133.3
132.12
130.85
129.53
128.12
126.41
124.41
122.01
118.98
115.47
111.41
106.92
102.13
97.249
92.608
88.408
84.989
82.302
80.349
79.03
78.346
78.053
78.053
78.248
78.492
78.737
78.932
78.932
78.786
78.444
78.004
77.32
76.636
75.806
74.878
73.999
72.973
72.045
71.117
70.091
69.261
68.284
67.503
66.672
65.94
65.256
64.621
64.035
63.546
63.058
62.569
62.13
61.69
61.299
60.909
60.616
60.322
59.981
59.736
59.492
59.248
59.004
58.808
58.613
58.418
58.222
58.124
57.929
57.783
57.587
57.49
57.343
57.245
57.099
57.001
56.855
56.757
56.61
56.415
56.22
55.975
55.682
55.438
55.292
55.487
56.806
60.567
68.04
79.225
92.608
106.24
118.98
130.22
139.6
146.68
151.56
154.3
155.37
155.13
153.91
152.2
150.2
148
145.85
143.99
142.23
140.82
139.45
138.23
137.2
136.18
135.1
133.98
132.76
131.2
129.29
127.04
124.36
121.23
117.62
113.37
108.63
103.6
98.421
93.488
88.994
85.184
82.107
79.86
78.297
77.32
76.783
76.685
76.881
77.125
77.369
77.467
77.564
77.418
77.174
76.783
76.294
75.757
75.073
74.341
73.608
72.875
72.045
71.215
70.433
69.603
68.724
67.942
67.112
66.281
65.5
64.718
64.132
63.497
62.911
62.472
62.032
61.69
61.348
61.104
60.86
60.664
60.42
60.322
60.127
59.932
59.785
59.687
59.541
59.443
59.297
59.15
59.004
58.759
58.564
58.369
58.173
58.027
57.929
57.88
57.734
57.685
57.587
57.538
57.49
57.441
57.343
57.294
57.294
57.538
58.613
61.69
67.942
77.809
90.117
103.16
115.76
127.04
136.62
143.99
149.07
152
153.13
152.88
151.61
149.76
147.51
145.12
142.82
140.62
138.62
136.81
135.2
133.74
132.37
131
129.68
128.17
126.51
124.55
122.26
119.47
116.25
112.54
108.43
103.84
99.154
94.562
90.313
86.601
83.621
81.374
79.86
78.883
78.444
78.297
78.444
78.59
78.883
78.981
79.03
78.981
78.737
78.297
77.76
77.027
76.343
75.562
74.683
73.803
72.875
71.996
71.068
70.189
69.31
68.431
67.6
66.721
65.988
65.256
64.572
63.937
63.351
62.814
62.276
61.885
61.348
61.006
60.616
60.322
59.932
59.59
59.346
59.101
58.906
58.759
58.564
58.418
58.222
58.124
57.929
57.734
57.587
57.441
57.294
57.245
57.196
57.099
57.001
56.903
56.855
56.757
56.61
56.464
56.22
56.073
55.78
55.682
55.975
57.538
61.885
69.994
81.618
95.099
108.68
121.23
132.12
140.92
147.41
151.81
154.2
155.08
154.74
153.57
151.86
149.95
147.8
145.8
143.85
142.14
140.62
139.16
137.94
136.81
135.74
134.61
133.44
132.12
130.61
128.75
126.56
123.87
120.74
117.03
112.78
108.19
103.16
98.128
93.243
88.847
85.135
82.156
80.007
78.492
77.564
77.174
77.125
77.223
77.564
77.809
78.004
78.053
78.004
77.76
77.369
76.929
76.343
75.66
74.976
74.194
73.413
72.631
71.801
70.922
70.042
69.163
68.284
67.405
66.623
65.842
65.109
64.474
63.839
63.302
62.814
62.374
61.934
61.592
61.251
60.909
60.664
60.42
60.176
59.932
59.687
59.541
59.346
59.15
59.004
58.808
58.662
58.564
58.418
58.32
58.222
58.173
58.173
58.124
58.027
58.027
57.978
57.929
57.783
57.734
57.587
57.49
57.294
57.294
57.88
59.883
64.67
73.12
84.696
97.688
110.63
122.55
133
141.31
147.31
151.07
152.78
152.93
151.95
150.1
147.85
145.41
143.02
140.72
138.67
136.86
135.3
133.98
132.81
131.68
130.56
129.44
128.07
126.41
124.5
122.06
119.18
115.86
112.05
107.95
103.45
98.763
94.22
90.166
86.796
84.256
82.302
81.032
80.349
80.055
80.104
80.446
80.739
81.032
81.228
81.374
81.228
80.984
80.593
80.104
79.469
78.737
78.004
77.174
76.343
75.562
74.683
73.852
72.973
72.192
71.41
70.677
69.945
69.261
68.626
68.04
67.551
67.063
66.526
66.135
65.744
65.305
64.914
64.621
64.377
64.035
63.79
63.595
63.448
62.716
63.009
64.035
66.819
72.533
81.863
93.976
107.26
120.3
132.32
142.62
150.83
156.69
160.36
162.26
162.8
162.36
161.23
159.77
158.11
156.5
155.08
153.81
152.69
151.66
150.68
149.76
148.73
147.75
146.63
145.31
143.75
141.89
139.6
136.91
133.93
130.41
126.56
122.31
117.76
112.88
107.85
102.91
98.225
94.123
90.801
88.31
86.552
85.428
84.842
84.745
84.94
85.282
85.673
85.868
85.868
85.575
84.989
84.158
83.182
82.009
80.739
79.469
78.297
77.027
75.904
74.78
73.803
72.778
71.801
70.922
70.042
69.261
68.479
67.747
67.063
66.428
65.842
65.402
65.012
64.572
64.181
63.79
63.497
63.253
63.009
62.814
62.618
62.423
62.276
62.13
61.983
61.788
61.592
61.348
61.104
60.86
60.616
60.42
60.176
59.883
59.59
59.443
59.15
58.857
58.564
58.32
58.027
57.734
57.685
58.173
60.42
65.744
74.878
87.138
100.62
113.81
125.82
135.93
143.85
149.41
152.69
154.1
154.05
152.93
151.22
149.12
146.83
144.48
142.28
140.38
138.62
137.11
135.88
134.76
133.69
132.56
131.44
130.12
128.61
126.8
124.6
122.06
118.98
115.42
111.32
106.72
101.89
96.809
91.973
87.626
83.865
80.984
78.883
77.418
76.636
76.246
76.197
76.343
76.636
76.929
77.027
77.125
77.027
76.783
76.343
75.855
75.171
74.438
73.608
72.729
71.85
70.97
70.091
69.261
68.431
67.551
66.721
65.988
65.256
64.572
63.839
63.155
62.569
61.983
61.495
61.006
60.616
60.322
59.981
59.736
59.492
59.248
59.004
58.808
58.613
58.466
58.369
58.173
58.027
57.88
57.734
57.587
57.49
57.343
57.245
57.245
57.245
57.245
57.245
57.245
57.196
57.196
57.099
57.001
56.855
56.659
56.415
56.22
56.22
56.659
58.564
63.107
71.312
82.742
95.783
108.82
120.74
131.1
139.45
145.41
149.17
150.88
150.98
150
148.19
145.85
143.36
140.82
138.38
136.13
134.13
132.32
130.8
129.44
128.17
126.95
125.63
124.11
122.35
120.25
117.67
114.54
110.97
106.97
102.67
98.128
93.634
89.434
85.819
82.791
80.593
79.127
78.199
77.662
77.613
77.76
77.906
78.199
78.346
78.444
78.444
78.199
77.809
77.32
76.685
76.001
75.22
74.438
73.559
72.68
71.801
70.922
70.091
69.261
68.431
67.6
66.868
66.135
65.402
64.816
64.132
63.546
63.009
62.569
62.13
61.69
61.299
60.909
60.616
60.322
60.029
59.736
59.492
59.248
59.004
58.808
58.613
58.418
58.173
57.978
57.783
57.587
57.441
57.245
57.05
56.855
56.757
56.61
56.464
56.366
56.22
56.122
55.926
55.682
55.438
55.243
55.047
55.194
56.122
59.248
65.842
76.246
89.043
102.43
115.13
126.41
135.93
143.16
148.24
151.22
152.44
152.39
151.37
149.76
147.75
145.7
143.7
141.75
139.99
138.47
137.11
135.93
134.81
133.74
132.61
131.44
130.12
128.56
126.75
124.55
121.91
118.79
115.17
111.07
106.53
101.69
96.76
91.925
87.529
83.816
80.886
78.59
77.125
76.246
75.806
75.806
76.05
76.343
76.734
76.978
77.125
77.027
76.881
76.539
76.05
75.415
74.731
73.999
73.217
72.436
71.654
70.824
69.994
69.114
68.284
67.405
66.623
65.793
65.06
64.279
63.595
63.009
62.472
62.032
61.69
61.299
61.006
60.664
60.469
60.225
60.029
59.932
59.785
59.687
59.492
59.346
59.248
59.101
59.004
58.857
58.759
58.662
58.564
58.466
58.418
58.369
58.369
58.32
58.222
58.124
57.929
57.734
57.538
57.294
57.099
56.903
56.903
57.685
60.029
65.353
74.341
86.259
99.251
112.05
123.72
133.74
141.55
147.12
150.54
152
152
150.88
149.07
146.83
144.48
142.14
139.94
137.89
135.98
134.22
132.76
131.29
129.93
128.56
127.19
125.68
124.02
122.01
119.67
116.88
113.61
109.85
105.7
101.25
96.614
92.12
87.968
84.403
81.618
79.567
78.199
77.32
76.929
76.881
77.027
77.32
77.467
77.662
77.76
77.76
77.564
77.125
76.636
76.001
75.318
74.487
73.657
72.875
71.947
71.068
70.189
69.261
68.382
67.551
66.721
65.988
65.305
64.621
64.035
63.448
62.911
62.423
61.983
61.544
61.104
60.664
60.322
59.932
59.687
59.346
59.101
58.906
58.662
58.466
58.32
58.124
57.929
57.734
57.538
57.441
57.245
57.099
57.001
56.855
56.806
56.659
56.61
56.464
56.366
56.22
56.073
55.878
55.633
55.34
55.243
55.633
57.343
61.934
70.384
82.156
95.686
109.07
121.38
132.07
140.57
146.83
150.83
152.78
153.32
152.69
151.22
149.37
147.26
145.07
142.92
140.92
139.11
137.54
136.18
135.01
133.98
133.1
132.17
131.2
129.93
128.51
126.75
124.55
121.87
118.69
114.93
110.63
105.94
100.91
95.881
90.997
86.552
82.84
79.86
77.76
76.246
75.366
75.073
75.122
75.415
75.904
76.343
76.734
76.929
77.027
76.929
76.685
76.294
75.757
75.073
74.292
73.559
72.778
71.996
71.166
70.384
69.554
68.675
67.796
66.965
66.184
65.353
64.67
63.986
63.351
62.814
62.374
61.983
61.544
61.153
60.86
60.567
60.322
60.127
59.932
59.687
59.492
59.297
59.101
59.004
58.808
58.662
58.564
58.466
58.418
58.418
58.369
58.369
58.369
58.369
58.369
58.32
58.222
58.124
57.929
57.734
57.49
57.294
57.099
57.196
58.027
60.811
66.721
76.343
88.603
101.74
114.44
125.82
135.49
143.02
148.19
151.17
152.3
152
150.64
148.63
146.24
143.75
141.35
139.16
137.25
135.54
134.08
132.66
131.49
130.32
129.19
127.92
126.56
124.94
122.94
120.55
117.76
114.3
110.39
105.99
101.35
96.614
92.071
87.919
84.403
81.716
79.811
78.492
77.809
77.564
77.613
77.858
78.199
78.492
78.737
78.883
78.786
78.59
78.248
77.662
77.027
76.343
75.562
74.683
73.803
72.924
72.045
71.117
70.189
69.359
68.479
67.698
66.916
66.233
65.598
65.06
64.425
63.839
63.351
62.862
62.423
61.983
61.592
61.251
60.909
60.616
60.322
59.981
59.736
59.492
59.248
59.053
58.808
58.564
58.369
58.124
57.929
57.734
57.538
57.441
57.294
57.196
57.05
57.001
56.855
56.757
56.561
56.366
56.122
55.78
55.536
55.438
55.975
58.222
63.693
72.973
85.575
99.251
112.54
124.55
134.76
142.72
148.44
151.95
153.57
153.76
152.78
151.22
149.27
147.07
144.87
142.87
141.11
139.5
138.13
137.01
135.88
134.81
133.74
132.56
131.24
129.73
128.07
126.07
123.72
121.04
117.86
114.2
110.05
105.41
100.57
95.637
90.801
86.503
82.84
80.055
78.004
76.636
75.855
75.611
75.66
76.001
76.441
76.783
77.027
77.174
77.125
76.929
76.636
76.197
75.611
74.976
74.243
73.413
72.631
71.801
70.97
70.189
69.359
68.479
67.698
66.868
66.037
65.305
64.621
63.986
63.351
62.862
62.472
62.13
61.739
61.348
61.055
60.713
60.469
60.225
59.981
59.736
59.541
59.443
59.248
59.053
58.906
58.759
58.564
58.369
58.173
58.027
57.978
57.929
57.929
57.929
57.929
57.88
57.88
57.88
57.734
57.685
57.49
57.343
57.245
57.294
57.978
60.127
65.158
73.755
85.428
98.372
111.22
122.99
133.1
141.11
146.92
150.44
152.05
152.05
150.98
149.27
146.97
144.63
142.19
139.79
137.59
135.74
134.08
132.56
131.2
129.97
128.8
127.53
126.16
124.55
122.7
120.35
117.57
114.25
110.44
106.24
101.69
97.004
92.511
88.506
85.038
82.449
80.446
79.03
78.248
77.858
77.858
78.004
78.248
78.492
78.59
78.59
78.444
78.102
77.662
77.125
76.441
75.66
74.927
74.097
73.217
72.387
71.508
70.629
69.749
68.919
68.089
67.307
66.477
65.793
65.109
64.572
63.986
63.448
62.911
62.423
61.983
61.592
61.251
60.86
60.567
60.225
59.981
59.736
59.492
59.297
59.101
58.906
58.759
58.564
58.369
58.173
57.978
57.783
57.587
57.441
57.294
57.245
57.196
57.05
57.001
56.855
56.757
56.561
56.317
56.073
55.78
55.536
55.536
56.317
59.053
65.256
75.366
88.115
101.6
114.44
125.97
135.64
143.06
148.24
151.37
152.74
152.78
151.95
150.44
148.49
146.39
144.24
142.23
140.57
139.11
137.94
136.86
135.93
135.1
134.17
133.2
131.98
130.56
128.85
126.8
124.31
121.28
117.86
113.86
109.51
104.67
99.74
94.758
90.117
86.063
82.742
80.251
78.444
77.369
76.783
76.734
76.929
77.223
77.613
77.906
78.102
78.102
78.004
77.613
77.174
76.636
76.001
75.318
74.536
73.803
73.071
72.24
71.361
70.531
69.749
68.87
68.04
67.307
66.526
65.842
65.256
64.67
64.181
63.742
63.351
63.058
62.716
62.472
62.227
61.983
61.788
61.544
61.348
61.104
60.909
60.664
60.469
60.225
60.029
59.785
59.59
59.443
59.248
59.053
58.906
58.808
58.613
58.466
58.369
58.173
57.978
57.734
57.49
57.245
57.001
56.855
57.001
58.124
61.299
67.844
78.053
90.606
103.79
116.35
127.63
137.01
144.14
148.97
151.81
152.88
152.64
151.37
149.56
147.41
145.26
143.06
141.06
139.25
137.69
136.32
135.05
133.88
132.76
131.68
130.51
129.09
127.63
125.82
123.67
121.18
118.11
114.54
110.49
105.99
101.25
96.369
91.778
87.626
84.158
81.423
79.469
78.199
77.418
77.125
77.174
77.369
77.662
78.053
78.248
78.297
78.248
77.906
77.564
76.978
76.294
75.562
74.731
73.901
72.973
72.094
71.166
70.287
69.505
68.675
67.942
67.161
66.379
65.598
65.012
64.377
63.742
63.253
62.716
62.276
61.885
61.446
61.055
60.664
60.371
60.029
59.785
59.541
59.346
59.101
58.906
58.662
58.466
58.369
58.173
58.027
57.88
57.734
57.587
57.538
57.441
57.294
57.196
57.05
56.855
56.659
56.366
55.975
55.536
55.194
54.998
55.438
57.49
62.618
71.605
83.719
97.053
110
121.82
131.93
139.94
145.75
149.51
151.32
151.66
150.98
149.56
147.75
145.7
143.75
141.89
140.33
138.91
137.74
136.67
135.74
134.81
133.78
132.76
131.44
129.97
128.36
126.36
124.02
121.18
117.86
114.05
109.8
105.11
100.18
95.246
90.557
86.503
83.182
80.593
78.786
77.662
77.027
76.978
77.174
77.467
77.809
78.102
78.297
78.346
78.248
77.906
77.467
76.978
76.343
75.611
74.78
73.999
73.168
72.289
71.508
70.677
69.847
68.968
68.235
67.503
66.721
66.135
65.5
65.012
64.474
64.035
63.595
63.302
62.911
62.618
62.276
62.032
61.788
61.544
61.348
61.104
60.86
60.664
60.42
60.176
59.981
59.736
59.541
59.297
59.101
58.906
58.759
58.613
58.418
58.32
58.173
58.027
57.88
57.685
57.49
57.245
57.001
56.806
56.806
57.538
132.42
131.39
130.17
128.75
127.04
124.99
122.5
119.47
116
112
107.55
102.82
97.932
93.243
88.945
85.233
82.351
80.251
78.737
77.858
77.467
77.418
77.613
77.906
78.248
78.444
78.541
78.492
78.297
77.858
77.369
76.685
76.001
75.171
74.292
73.413
72.533
71.605
70.726
69.847
68.968
68.235
67.503
66.819
66.135
65.5
64.865
64.279
63.742
63.302
62.862
62.423
62.032
61.69
61.299
61.006
60.664
60.42
60.176
59.981
59.736
59.541
59.297
59.101
58.906
58.662
58.466
58.369
58.222
58.124
57.978
57.88
57.734
57.587
57.538
57.441
57.294
57.05
56.806
56.464
56.171
55.926
55.926
56.806
59.883
66.428
76.783
89.678
103.16
115.76
126.95
136.13
143.11
147.95
150.73
151.95
151.81
150.73
149.27
147.36
145.36
143.46
141.7
140.18
138.81
137.69
136.62
135.69
134.76
133.69
132.56
131.24
129.68
127.87
125.68
122.99
119.81
116.05
111.95
107.41
102.57
97.591
92.657
88.115
84.158
80.984
78.688
77.027
76.197
75.757
75.562
75.66
76.05
76.539
76.978
77.223
77.418
77.467
77.369
76.978
76.441
75.806
75.073
74.243
73.413
72.485
71.605
70.726
69.847
68.968
68.186
67.356
66.526
65.793
65.06
64.425
63.79
63.155
62.667
62.227
61.788
61.446
61.055
60.664
60.371
60.127
59.883
59.59
59.443
59.248
59.101
59.004
58.857
58.808
58.662
58.564
58.418
58.222
58.027
57.88
57.685
57.538
57.441
57.196
56.903
56.757
56.61
56.415
56.171
55.975
55.78
55.731
60.029
59.541
59.053
58.662
58.32
57.978
57.685
57.441
57.196
57.001
56.806
56.61
56.464
56.317
56.171
55.975
55.926
55.78
55.682
55.633
55.487
55.292
55.096
54.852
54.608
54.363
54.119
53.875
53.631
53.338
53.191
52.947
52.8
52.654
52.556
52.361
52.214
52.068
51.872
51.726
51.628
51.677
52.312
54.754
60.86
71.752
86.308
101.69
115.86
128.12
138.18
145.75
150.83
153.61
154.54
154.05
152.54
150.44
147.95
145.36
142.92
140.67
138.57
136.67
135.01
133.54
132.22
131.05
129.93
128.7
127.24
125.48
123.28
120.6
117.42
113.66
109.41
104.82
99.935
95.051
90.508
86.405
83.133
80.544
78.737
77.564
76.783
76.49
76.343
76.49
76.685
76.881
76.978
77.027
76.978
76.734
76.441
76.001
75.415
74.731
74.048
73.315
72.533
71.752
70.922
70.091
69.31
68.479
67.698
66.916
66.135
65.353
64.718
64.035
63.497
62.911
62.374
61.934
61.544
61.251
60.909
60.616
60.322
60.029
59.785
59.541
59.346
59.297
59.248
59.15
59.053
58.906
58.857
58.759
58.613
58.369
58.124
57.783
57.538
57.441
57.685
59.101
63.009
70.384
81.13
93.781
106.63
118.35
128.51
136.76
143.02
147.31
149.8
150.88
150.83
150
148.63
146.97
145.26
143.5
141.79
140.23
138.86
137.59
136.42
135.3
134.13
132.95
131.54
129.97
128.17
126.07
123.43
120.45
116.93
112.98
108.63
103.94
99.056
94.22
89.727
85.819
82.547
80.007
78.199
76.978
76.441
76.246
76.343
76.636
76.881
77.125
77.32
77.32
77.027
76.685
76.197
75.562
74.878
73.999
73.168
72.289
71.41
70.482
69.603
68.724
67.844
67.063
66.233
65.5
64.718
63.986
63.302
62.667
62.032
61.495
61.006
60.567
60.127
59.687
59.248
58.857
58.466
58.173
57.88
57.685
57.538
57.343
57.245
57.099
56.903
56.757
56.561
56.366
56.122
55.78
55.487
55.243
55.243
55.926
58.32
63.742
72.875
84.745
97.591
110
120.99
130.36
137.69
142.92
146.19
147.7
147.75
146.83
145.16
143.16
141.01
138.81
136.62
134.57
132.66
130.95
129.39
127.97
126.7
125.48
124.26
122.84
121.23
119.33
116.88
113.86
110.29
106.19
101.6
96.809
91.925
87.382
83.377
80.153
77.76
76.001
74.878
74.243
74.048
74.048
74.292
74.683
74.976
75.22
75.415
75.464
75.415
75.171
74.878
74.438
73.901
73.315
72.68
71.947
71.117
70.287
69.505
68.675
67.796
66.868
65.94
65.109
64.279
63.546
62.862
62.179
61.544
60.909
60.42
59.932
59.541
59.101
58.808
58.564
58.369
58.173
58.027
57.929
57.88
57.783
57.783
57.734
57.685
57.538
57.49
57.294
57.099
56.903
56.855
57.245
59.004
63.351
71.312
82.498
95.441
108.24
120.01
129.97
138.03
143.99
147.95
150
150.64
150.05
148.83
147.12
145.26
143.31
141.45
139.69
138.13
136.67
135.3
134.13
132.95
131.73
130.51
129.09
127.53
125.72
123.58
120.99
117.91
114.34
110.29
105.8
101.01
96.076
91.29
86.991
83.279
80.349
78.102
76.539
75.611
75.171
75.171
75.366
75.806
76.246
76.636
76.783
76.783
76.685
76.343
75.904
75.318
74.536
73.755
72.875
71.996
71.068
70.189
69.261
68.284
67.307
66.379
65.402
64.572
63.693
62.911
62.179
61.544
60.909
60.42
59.981
59.59
59.346
59.101
58.857
58.662
58.418
58.173
57.88
57.587
57.294
56.903
56.61
56.22
55.975
55.926
56.806
59.59
65.793
75.611
87.919
100.91
113.12
123.82
132.76
139.6
144.43
147.31
148.49
148.44
147.41
145.85
143.94
141.89
139.79
137.89
136.08
134.42
133
131.78
130.76
129.68
128.56
127.29
125.87
124.06
121.87
119.23
116.05
112.39
108.09
103.5
98.567
93.536
88.799
84.549
81.032
78.346
76.441
75.171
74.536
74.438
74.634
75.073
75.562
76.001
76.343
76.539
76.539
76.441
76.197
75.66
75.073
74.341
73.559
72.729
71.947
71.117
70.384
69.554
68.821
68.089
67.405
66.819
66.233
65.598
65.06
64.425
63.839
63.351
62.814
62.227
61.788
61.348
61.055
61.006
61.592
63.742
68.382
76.246
86.991
99.154
111.36
122.5
131.93
139.35
144.68
148
149.41
149.37
148.29
146.43
144.19
141.75
139.35
137.11
135.01
133.1
131.44
129.88
128.41
127.04
125.68
124.11
122.31
120.11
117.42
114.2
110.39
106.14
101.45
96.614
91.925
87.675
84.11
81.228
79.127
77.613
76.734
76.294
76.246
76.343
76.539
76.783
76.978
77.027
76.978
76.734
76.343
75.855
75.22
74.487
73.657
72.778
71.947
71.068
70.091
69.163
68.186
67.258
66.379
65.5
64.67
63.937
63.155
62.569
61.983
61.446
61.006
60.567
60.127
59.736
59.443
59.101
58.808
58.466
58.222
57.978
57.783
57.587
57.49
57.294
57.099
56.903
56.806
56.61
56.415
56.317
56.122
55.975
55.878
55.682
55.536
55.34
55.194
54.998
54.803
54.608
54.412
54.217
54.07
53.924
53.875
53.777
53.68
53.631
53.484
53.289
53.045
52.8
52.556
52.507
53.24
56.366
63.79
76.099
91.436
106.87
120.94
133
142.82
150.1
155.08
157.86
158.89
158.55
157.33
155.42
153.32
151.12
149.07
147.17
145.51
143.99
142.67
141.55
140.43
139.35
138.18
136.81
135.3
133.49
131.44
128.85
125.92
122.5
118.54
114.05
109.12
103.84
98.567
93.341
88.701
84.598
81.423
79.03
77.418
76.441
76.001
75.904
76.099
76.343
76.685
76.929
77.027
77.027
76.881
76.636
76.197
75.611
75.073
74.341
73.657
72.924
72.094
71.312
70.433
69.603
68.724
67.942
67.063
66.233
65.402
64.67
63.986
63.351
62.862
62.423
61.983
61.592
61.299
61.055
60.811
60.616
60.42
60.225
60.029
59.932
59.736
59.59
59.443
59.15
59.004
58.808
58.564
58.369
58.124
57.88
57.587
57.343
57.196
56.903
56.757
56.561
56.366
56.171
56.073
55.878
55.682
55.487
55.292
55.096
54.852
54.803
55.096
56.561
60.469
67.942
78.786
91.534
104.38
116.2
126.41
134.81
141.11
145.41
147.85
148.83
148.53
147.41
145.75
143.75
141.6
139.55
137.54
135.74
134.13
132.61
131.39
130.22
129.09
127.97
126.7
125.19
123.38
121.13
118.45
115.22
111.56
107.51
103.01
98.225
93.488
88.994
85.038
81.814
79.225
77.418
76.294
75.757
75.562
75.66
76.001
76.441
76.783
77.125
77.32
77.32
77.174
76.929
76.49
76.001
75.366
74.634
73.852
73.071
72.192
71.215
70.287
69.359
68.479
67.551
66.672
65.842
65.158
64.425
63.79
63.155
62.667
62.472
62.862
64.67
68.87
76.099
86.063
97.444
108.87
119.33
128.31
135.35
140.43
143.5
144.87
144.92
144.04
142.62
140.72
138.67
136.47
134.37
132.32
130.32
128.51
126.75
124.99
123.28
121.48
119.42
117.18
114.49
111.32
107.7
103.55
99.056
94.318
89.629
85.233
81.423
78.346
76.099
74.634
73.803
73.51
73.657
74.048
74.634
75.171
75.66
76.001
76.05
76.001
75.66
75.171
74.536
73.852
73.071
72.192
71.361
70.482
69.603
68.821
67.942
67.112
66.281
65.5
64.67
63.937
63.155
62.569
61.934
61.348
60.909
60.469
60.127
59.785
59.492
59.15
58.906
58.759
58.466
58.32
58.124
57.929
57.734
57.538
57.294
57.099
56.903
56.806
56.757
56.61
56.464
56.415
56.366
56.22
56.122
55.975
55.878
55.731
55.536
55.34
55.194
54.998
54.803
54.559
54.363
54.119
53.875
53.68
53.435
53.24
53.045
52.849
52.752
52.605
52.507
52.41
52.312
52.214
52.166
52.117
51.97
51.872
51.775
51.872
52.605
55.243
61.69
72.924
87.626
103.16
117.47
129.97
140.18
147.8
152.88
155.76
156.69
156.25
154.79
152.78
150.54
148.29
146.19
144.24
142.48
140.92
139.5
138.18
136.81
135.49
134.13
132.66
131.05
129.24
127.04
124.5
121.43
117.86
113.86
109.36
104.58
99.593
94.806
90.362
86.552
83.426
81.13
79.469
78.492
77.906
77.76
77.76
77.858
78.004
78.102
78.102
78.004
77.662
77.32
76.734
76.099
75.366
74.634
73.755
72.924
72.045
71.117
70.238
67.991
67.112
66.281
65.5
64.718
64.035
63.448
62.716
62.13
61.495
61.006
60.469
59.981
59.541
59.101
58.808
58.418
58.124
57.88
57.587
57.343
57.099
56.855
56.659
56.464
56.317
56.122
55.926
55.682
55.536
55.34
55.292
55.194
55.047
54.998
54.852
54.754
54.559
54.315
54.07
53.729
53.435
53.191
53.045
53.338
54.803
58.759
66.233
77.174
89.873
102.43
113.9
123.82
131.68
137.54
141.35
143.5
144.19
143.8
142.67
141.16
139.45
137.59
135.88
134.22
132.76
131.44
130.17
129.09
128.07
127.04
125.97
124.8
123.48
121.91
120.06
117.81
115.08
111.95
108.24
104.14
99.691
95.099
90.655
86.698
83.279
80.593
78.59
77.174
76.343
75.904
75.806
75.904
76.099
76.294
76.49
76.539
76.49
76.294
76.001
75.464
74.927
74.243
73.559
72.778
72.045
71.215
70.433
69.603
68.724
67.942
67.161
66.428
65.695
65.012
64.377
63.742
63.107
62.569
61.983
61.495
61.006
60.616
60.225
59.932
59.59
59.346
59.101
58.906
58.759
58.564
58.369
58.173
57.978
57.783
57.538
57.441
57.245
57.099
57.001
56.806
56.659
56.61
56.464
56.415
56.317
56.22
56.122
55.926
55.682
55.487
55.292
55.194
55.633
57.441
62.13
70.531
82.253
95.246
107.99
119.47
129.29
137.2
142.92
146.73
148.83
149.61
149.37
148.49
147.17
145.75
144.24
142.87
141.55
140.38
139.16
138.18
137.2
136.32
135.35
134.37
133.25
131.88
130.32
128.36
126.12
123.48
120.35
116.79
112.73
108.29
103.6
98.812
94.074
89.678
85.819
82.693
80.153
78.346
77.125
76.343
76.05
76.05
76.294
76.539
76.783
76.929
76.978
76.929
76.685
76.246
75.611
74.878
74.048
73.217
72.387
71.508
70.677
69.798
68.919
68.04
67.258
66.477
65.744
65.012
64.279
63.693
63.009
62.374
61.788
61.251
60.811
60.371
59.932
59.541
59.248
58.906
58.662
58.418
58.173
57.978
57.783
57.587
57.343
57.099
56.855
56.61
56.317
55.975
55.731
55.487
55.34
55.243
55.047
54.901
54.657
54.51
54.217
54.07
53.777
53.631
53.435
53.435
53.729
55.194
58.857
66.135
76.783
89.385
101.99
113.61
123.67
131.88
137.98
142.14
144.48
145.41
145.26
144.29
142.92
141.26
139.5
137.69
136.08
134.52
133.1
131.93
130.76
129.63
128.41
127.19
125.72
124.06
122.06
119.67
116.79
113.51
109.66
105.41
100.91
96.321
91.729
87.529
83.914
80.984
78.786
77.223
76.294
75.855
75.806
75.904
76.246
76.636
76.881
77.027
77.027
76.929
76.636
76.099
75.562
74.78
74.048
73.168
72.24
71.361
70.482
69.603
68.821
67.991
67.161
66.428
65.695
65.012
64.377
63.742
63.155
62.618
62.13
61.592
61.153
60.713
60.322
59.932
59.541
59.248
58.906
58.662
58.466
58.222
58.027
57.783
57.685
57.49
57.245
57.099
56.903
56.806
56.61
56.464
56.317
56.171
56.073
55.926
55.78
55.682
55.633
55.536
55.438
55.243
55.047
54.803
54.608
54.754
55.975
59.59
66.721
77.369
90.069
102.91
114.93
125.29
133.88
140.38
144.87
147.56
148.88
149.07
148.44
147.36
146.04
144.58
143.06
141.75
140.48
139.45
138.38
137.5
136.62
135.74
134.76
133.74
132.56
131.1
129.44
127.43
124.94
122.06
118.69
114.88
110.63
105.99
101.11
96.174
91.436
87.187
83.475
80.593
78.444
76.881
76.001
75.611
75.562
75.806
76.099
76.49
76.734
76.881
76.783
76.636
76.197
75.66
75.073
74.292
73.51
72.631
71.752
70.873
70.042
69.163
68.382
67.551
66.721
65.988
65.256
64.572
63.839
63.155
62.472
61.934
61.299
60.811
60.322
59.932
59.492
59.15
58.857
58.564
58.222
57.978
57.734
57.538
57.343
57.196
57.001
56.806
56.61
56.415
56.22
55.975
55.78
55.682
55.536
55.34
55.243
55.096
54.852
54.657
54.412
54.119
53.777
53.484
53.24
52.996
53.045
53.729
56.171
61.739
71.068
83.035
95.93
108.09
118.94
127.87
134.66
139.45
142.23
143.46
143.46
142.62
141.16
139.45
137.54
135.64
133.78
132.12
130.61
129.29
128.17
127.19
126.16
125.24
124.16
122.99
121.62
120.01
118.01
115.47
112.54
109.07
105.11
100.81
96.369
91.925
87.724
84.061
81.032
78.737
77.125
76.05
75.415
75.171
75.171
75.318
75.562
75.757
75.904
75.904
75.806
75.562
75.171
74.683
74.048
73.364
72.631
71.85
71.068
70.189
69.359
68.626
67.796
67.063
66.233
65.549
64.865
64.181
63.497
62.862
62.276
61.739
61.251
60.811
60.371
59.932
59.541
59.15
58.857
58.564
58.32
58.124
57.929
57.734
57.538
57.343
57.196
57.05
56.855
56.757
56.561
56.366
56.22
56.073
55.926
55.731
55.633
55.487
55.438
55.292
55.194
55.047
54.852
54.657
54.412
54.315
54.51
55.731
59.297
66.428
77.125
89.873
102.82
114.78
125.29
133.88
140.33
144.82
147.51
148.83
148.93
148.39
147.26
145.85
144.43
143.02
141.75
140.57
139.6
138.67
137.79
136.91
135.93
134.86
133.69
132.32
130.66
128.85
126.75
124.31
121.43
118.11
114.34
110.19
105.7
100.86
96.076
91.436
87.236
83.621
80.739
78.541
77.125
76.246
75.904
75.904
76.099
76.49
76.783
76.978
77.027
76.978
76.685
76.246
75.611
74.927
74.194
73.364
72.485
71.605
70.726
69.847
68.968
68.186
67.356
66.526
65.793
65.109
64.425
63.79
63.253
62.667
62.13
61.592
61.153
60.713
60.371
59.981
59.541
59.15
58.857
58.466
58.173
57.929
57.685
57.441
57.196
57.001
56.806
56.61
56.415
56.171
55.975
55.731
55.536
55.34
55.194
55.047
54.901
54.754
54.608
54.412
54.168
53.924
53.631
53.338
53.094
52.947
52.996
53.924
57.001
63.351
73.51
85.917
98.812
110.88
121.38
130.07
136.62
141.06
143.7
144.82
144.73
143.85
142.48
140.87
139.06
137.25
135.54
133.98
132.66
131.49
130.41
129.39
128.41
127.43
126.41
125.38
124.06
122.45
120.45
118.01
115.08
111.56
107.55
103.11
98.421
93.683
89.189
85.135
81.716
79.176
77.32
76.099
75.415
75.122
75.122
75.366
75.66
76.001
76.246
76.343
76.294
76.099
75.806
75.366
74.78
74.194
73.51
72.68
71.947
71.117
70.238
69.407
68.528
67.747
66.916
66.037
65.256
64.474
63.79
63.155
62.569
62.032
61.544
61.153
60.713
60.42
60.127
59.785
59.541
59.297
59.053
58.808
58.613
58.369
58.124
57.88
57.587
57.441
57.196
57.001
56.757
56.464
56.317
56.073
55.878
55.731
55.633
55.536
55.487
55.438
55.34
55.292
55.194
54.998
54.754
54.412
54.315
54.51
55.682
59.101
66.135
76.734
89.434
102.28
114.1
124.55
133.1
139.55
144.14
146.92
148.39
148.68
148.24
147.26
146
144.58
143.16
141.79
140.57
139.35
138.23
137.2
136.18
135.2
134.22
133.25
132.07
130.66
129
126.95
124.55
121.67
118.35
114.54
110.24
105.6
100.72
95.93
91.387
87.284
84.012
81.374
79.567
78.297
77.662
77.467
77.613
78.004
78.346
78.737
79.03
79.176
79.127
78.883
78.492
77.906
77.223
76.49
75.66
74.78
73.999
73.12
72.24
71.41
70.531
69.749
68.87
68.04
67.307
66.526
65.842
65.256
64.67
64.23
63.79
63.497
63.155
62.862
62.618
62.374
62.227
62.032
61.885
61.69
61.495
61.299
61.153
61.006
60.86
60.713
60.567
60.371
60.225
60.029
59.883
59.687
59.492
59.443
59.346
59.346
59.346
59.443
59.443
59.492
59.443
59.346
59.248
59.15
59.248
59.932
61.983
66.819
75.073
85.966
98.128
109.85
120.45
129.49
136.81
142.19
145.85
148.05
149.07
149.12
148.68
147.8
146.73
145.7
144.63
143.7
142.87
142.19
141.55
141.01
140.43
139.74
138.91
137.94
136.76
135.25
133.44
131.24
128.56
125.38
121.67
117.42
112.78
107.85
102.82
97.932
93.536
89.873
86.943
84.745
83.23
82.302
81.912
81.863
82.058
82.351
82.693
82.937
83.035
82.986
82.742
82.351
81.814
81.13
80.349
79.567
78.688
77.809
76.929
76.05
75.171
74.341
73.51
72.68
71.801
70.97
70.238
63.546
73.608
85.721
98.372
110.29
120.94
129.83
136.47
141.06
143.7
144.73
144.58
143.6
142.19
140.43
138.62
136.81
135.05
133.49
132.07
130.76
129.63
128.56
127.53
126.6
125.58
124.36
123.04
121.48
119.62
117.37
114.64
111.41
107.7
103.55
99.105
94.513
89.971
85.868
82.302
79.372
77.174
75.611
74.634
74.048
73.901
73.999
74.243
74.487
74.683
74.78
74.78
74.634
74.292
73.803
73.217
72.631
71.947
71.166
70.384
69.554
68.821
67.991
67.161
66.379
65.549
64.816
64.035
63.351
62.667
62.032
61.446
60.86
60.371
59.785
59.346
58.906
58.564
58.222
57.929
57.587
57.294
57.05
56.757
56.464
56.22
56.073
55.926
55.731
55.536
55.438
55.243
55.047
54.852
54.754
54.559
54.412
54.315
54.168
54.07
53.924
53.729
53.631
53.435
53.24
53.045
52.8
52.752
53.24
55.096
59.59
67.6
78.786
91.632
104.38
116.1
126.16
134.22
140.13
143.94
145.85
146.43
145.95
144.68
143.11
141.35
139.6
137.89
136.23
134.76
133.44
132.17
131.1
130.12
129.09
128.12
127.04
125.72
124.31
122.6
120.55
118.06
115.17
111.76
107.85
103.55
99.007
94.22
89.678
85.575
82.009
79.03
76.881
75.366
74.438
73.901
73.852
73.999
74.292
74.634
74.78
74.927
74.878
74.683
74.292
73.803
73.12
72.387
71.557
70.677
69.847
68.968
68.089
67.307
66.428
65.598
64.816
64.035
63.253
62.569
61.885
61.251
60.616
60.029
59.492
59.004
58.564
58.124
57.734
57.441
57.05
56.659
56.366
56.073
55.731
55.536
55.292
55.047
54.852
54.657
54.51
54.217
54.07
53.777
53.631
53.435
53.24
53.045
52.947
52.752
52.605
52.41
52.312
52.068
51.872
51.628
51.286
51.042
50.749
50.602
50.749
51.775
54.852
61.104
70.873
82.84
95.441
107.36
117.86
126.51
133
137.35
139.74
140.57
140.13
139.01
137.3
135.3
133.25
131.2
129.29
127.63
126.12
124.75
123.58
122.45
121.43
120.35
119.23
118.01
116.44
114.64
112.29
109.61
106.38
102.67
98.567
94.171
89.678
85.379
81.57
78.444
76.099
74.487
73.413
72.973
72.924
73.12
73.51
73.852
74.194
74.438
74.536
74.487
74.243
73.852
73.315
72.68
71.996
71.215
70.433
69.603
68.87
68.04
67.258
66.428
65.598
64.865
64.181
63.497
62.814
62.179
61.544
61.006
60.42
59.981
59.492
59.053
58.662
58.32
57.978
57.685
57.343
57.099
56.855
56.659
56.415
56.171
55.975
55.78
55.633
55.438
55.243
55.047
54.852
54.657
54.51
54.363
54.217
54.07
53.924
53.729
53.533
53.435
53.289
53.191
53.045
52.849
52.752
52.556
52.41
52.556
53.484
56.366
62.374
71.996
84.11
97.004
109.26
120.3
129.63
136.81
141.89
144.92
146.39
146.53
145.85
144.63
142.92
141.11
139.35
137.69
136.18
134.91
133.78
132.76
131.78
130.95
130.07
129.05
127.97
126.75
125.19
123.43
121.23
118.59
115.57
112
107.99
103.6
98.909
94.22
89.678
85.624
82.156
79.421
77.32
75.855
74.927
74.536
74.487
74.634
74.878
75.171
75.415
75.562
75.464
75.22
74.878
74.341
73.755
73.071
72.289
71.508
70.677
69.847
69.066
68.235
67.405
66.623
65.842
65.06
64.279
63.546
62.862
62.13
61.446
60.811
60.176
59.687
59.101
58.662
58.173
57.783
57.441
57.05
56.659
56.415
56.171
55.926
55.731
55.487
55.292
55.047
54.852
54.657
54.412
54.217
54.07
53.875
53.68
53.484
53.289
53.191
52.996
52.8
52.605
52.41
52.166
51.872
51.628
51.531
52.068
53.973
58.613
66.819
78.053
90.557
102.87
114.1
123.82
131.63
137.25
140.87
142.72
143.16
142.67
141.45
139.79
137.94
135.98
134.13
132.32
130.66
129.24
127.97
126.85
125.87
124.94
124.02
122.99
121.82
120.35
118.59
116.44
113.81
110.73
107.12
103.06
98.665
94.074
89.482
85.184
81.423
78.444
76.197
74.683
73.755
73.364
73.315
73.51
73.852
74.243
74.536
74.78
74.878
74.731
74.536
74.194
73.755
73.168
72.533
71.947
71.215
70.629
69.847
69.163
68.431
67.747
66.965
66.233
65.5
64.816
64.132
63.448
62.716
62.13
61.544
60.909
60.42
59.981
59.736
59.785
60.713
63.497
68.87
77.174
87.724
99.251
110.44
120.55
129.05
135.64
140.18
142.82
143.94
143.85
142.92
141.45
139.6
137.59
135.54
133.64
131.73
130.12
128.56
127.14
125.82
124.55
123.28
121.91
120.45
118.59
116.44
113.81
110.68
107.07
102.91
98.421
93.781
89.287
85.233
81.716
78.981
76.929
75.562
74.731
74.438
74.438
74.683
75.073
75.366
75.611
75.806
75.757
75.464
75.122
74.536
73.901
73.217
72.436
71.605
70.726
69.847
69.066
68.186
67.356
66.526
65.744
65.012
64.23
63.546
62.862
62.227
61.592
61.104
60.616
60.127
59.736
59.297
58.906
58.613
58.32
57.978
57.685
57.441
57.196
56.903
56.757
56.464
56.317
56.122
55.926
55.731
55.633
55.438
55.292
55.096
54.998
54.803
54.657
54.51
54.363
54.217
53.973
53.729
53.533
53.289
53.094
52.849
52.605
52.361
52.068
51.726
51.482
51.189
50.993
50.944
51.482
53.924
59.883
70.384
84.158
99.007
112.93
125.38
135.79
143.8
149.17
152.25
153.52
153.32
152.25
150.54
148.63
146.53
144.63
142.87
141.31
139.94
138.81
137.74
136.76
135.74
134.76
133.69
132.42
131
129.24
127.19
124.75
121.91
118.59
114.78
110.53
105.85
100.91
95.93
91.094
86.747
83.133
80.251
78.199
76.783
76.001
75.611
75.611
75.757
75.904
76.099
76.246
76.197
76.001
75.66
75.171
74.634
73.999
73.315
72.533
71.85
71.117
70.433
69.652
68.919
68.089
67.356
66.623
65.793
65.06
64.279
63.546
62.911
62.276
61.739
61.251
60.811
60.371
59.981
59.687
59.346
59.053
58.808
58.564
58.32
58.027
57.88
57.685
57.49
57.294
57.196
57.05
56.903
56.806
56.659
56.561
56.464
56.366
56.317
56.22
56.122
56.073
55.878
55.731
55.536
55.34
55.194
54.901
54.657
54.51
54.412
54.901
56.855
61.348
69.31
80.251
92.608
105.01
116.44
126.31
134.32
140.04
143.75
145.6
146
145.31
143.94
142.04
140.04
137.94
135.93
133.98
132.22
130.61
129.19
127.87
126.7
125.48
124.31
122.99
121.48
119.67
117.47
114.88
111.66
108.04
103.99
99.544
95.051
90.606
86.503
82.986
80.153
78.102
76.685
75.855
75.464
75.415
75.611
75.855
76.099
76.294
76.441
76.343
76.099
75.757
75.22
74.683
73.999
73.217
72.436
71.557
70.677
69.847
68.968
68.089
67.307
66.526
65.744
65.012
64.279
63.595
63.009
62.423
61.934
61.446
60.909
60.469
60.127
59.736
59.346
59.053
58.759
58.418
58.173
57.88
57.587
57.441
57.245
57.05
56.855
56.659
56.464
56.317
56.122
55.975
55.78
55.682
55.487
55.438
55.292
55.194
55.047
54.901
54.754
54.559
54.315
53.973
53.68
53.289
52.996
52.996
53.875
56.806
63.155
73.315
85.868
99.007
111.41
122.5
131.68
138.77
143.6
146.48
147.85
148
147.31
146.04
144.58
142.82
141.11
139.5
138.03
136.76
135.64
134.61
133.64
132.61
131.63
130.51
129.29
127.87
126.12
124.06
121.62
118.69
115.37
111.51
107.26
102.67
97.884
93.048
88.554
84.696
81.423
78.932
77.174
76.05
75.415
75.318
75.366
75.611
75.806
76.001
76.05
76.001
75.806
75.464
75.073
74.536
73.999
73.315
72.533
71.85
71.117
70.287
69.554
68.724
67.942
67.063
66.233
65.353
64.621
63.839
63.155
62.472
61.934
61.348
60.909
60.469
60.127
59.736
59.443
59.101
58.808
58.564
58.222
57.978
57.783
57.587
57.343
57.196
56.903
56.757
56.464
56.317
56.122
55.926
55.78
55.633
55.487
55.438
55.438
55.34
55.34
55.292
55.243
55.096
54.998
54.852
54.754
54.657
54.852
55.878
58.759
64.572
73.803
85.477
98.03
110.05
120.89
129.93
137.01
141.89
144.73
145.95
145.8
144.82
143.26
141.31
139.25
137.25
135.35
133.64
132.07
130.61
129.29
127.97
126.75
125.43
124.11
92.364
88.164
84.354
81.13
78.541
76.636
75.22
74.438
73.999
73.901
73.999
74.194
74.341
74.487
74.487
74.438
74.194
73.803
73.315
72.729
72.045
71.312
70.531
69.749
68.919
68.089
67.307
66.526
65.744
65.012
64.279
63.546
62.862
62.227
61.592
61.006
60.42
59.932
59.492
59.053
58.613
58.222
57.88
57.538
57.245
56.903
56.659
56.415
56.22
56.122
55.926
55.78
55.633
55.487
55.34
55.194
55.047
54.852
54.754
54.559
54.363
54.217
54.07
53.924
53.777
53.68
53.484
53.338
53.24
53.045
52.849
52.654
52.41
52.312
52.507
53.484
56.61
62.911
72.875
85.233
98.177
110.39
121.23
130.32
137.3
142.19
145.12
146.53
146.87
146.24
145.12
143.7
142.14
140.62
139.16
137.89
136.76
135.69
134.66
133.74
132.81
131.88
130.85
129.68
128.36
126.75
124.85
122.6
119.91
116.79
113.17
109.07
104.62
99.886
95.002
90.362
86.063
82.351
79.372
77.174
75.611
74.634
74.048
73.901
74.048
74.292
74.536
74.731
74.78
74.683
74.438
74.048
73.51
72.875
72.192
71.41
70.629
69.798
68.968
68.186
67.405
66.672
65.842
65.109
64.377
63.595
62.862
62.179
61.446
60.811
60.127
59.541
59.004
58.466
58.027
57.685
57.294
56.903
56.61
56.317
56.073
55.878
55.633
55.438
55.243
54.998
54.754
54.51
54.315
54.07
53.777
53.631
53.435
53.24
53.045
52.849
52.605
52.41
52.166
51.921
51.677
51.384
51.091
50.944
50.651
50.602
50.798
51.97
55.096
61.495
71.312
83.377
95.881
107.55
117.86
126.31
132.61
136.86
139.16
139.99
139.55
138.42
136.76
134.86
132.86
130.85
129
127.24
125.68
124.36
123.18
122.11
121.13
120.06
118.98
117.76
116.3
114.49
112.29
109.61
106.43
102.82
98.763
94.416
90.069
85.917
82.253
79.225
76.881
75.171
74.048
73.413
73.12
73.071
73.217
73.51
73.657
73.803
73.852
73.755
73.559
73.168
72.68
72.094
71.508
70.726
70.042
69.31
68.528
67.747
66.868
66.037
65.256
64.425
63.693
63.009
62.276
61.69
61.055
60.42
59.932
59.346
58.906
58.466
58.027
57.685
57.343
57.001
56.757
56.415
56.171
55.975
55.731
55.487
55.292
55.096
54.998
54.803
54.657
54.51
54.315
54.168
53.973
53.875
53.729
53.631
53.484
53.338
53.289
53.24
53.094
52.947
52.752
52.556
52.361
52.214
52.507
53.875
57.49
64.572
75.073
87.529
100.37
112.29
122.7
131.24
137.74
142.23
144.92
146.19
146.29
145.75
144.73
143.46
141.99
140.48
139.11
137.79
136.67
135.69
134.76
133.78
132.81
131.78
130.76
129.53
128.17
126.51
124.55
122.16
119.37
116.05
112.29
108.19
103.7
98.909
94.123
89.482
85.233
81.618
78.688
76.539
75.073
74.194
73.803
73.803
73.999
74.292
74.634
74.78
74.927
74.78
74.487
74.048
73.559
72.924
72.192
71.361
70.531
69.798
68.968
68.186
67.356
66.623
65.842
65.109
64.425
63.693
63.058
62.423
61.788
61.153
60.616
60.029
59.59
59.15
58.759
58.32
57.929
57.587
57.294
57.001
56.757
56.561
56.366
56.171
56.073
55.878
55.682
55.536
55.34
55.194
55.047
54.852
54.754
54.559
54.412
54.315
54.168
54.07
53.924
53.729
53.484
53.24
52.996
52.849
53.045
54.217
57.49
63.986
127.24
125.92
124.31
122.31
120.01
117.23
114
110.29
106.14
101.55
96.858
92.218
87.871
84.012
80.886
78.444
76.734
75.611
74.976
74.78
74.78
75.073
75.366
75.611
75.757
75.757
75.611
75.318
74.878
74.341
73.657
72.973
72.24
71.508
70.629
69.749
68.919
68.04
67.161
66.379
65.549
64.718
63.937
63.107
62.423
61.739
61.104
60.567
60.029
59.59
59.248
59.101
59.492
61.055
64.718
71.215
80.446
91.29
102.57
112.98
122.16
129.63
135.2
138.86
140.82
141.45
141.06
140.04
138.77
137.25
135.54
133.78
132.12
130.51
128.95
127.43
125.97
124.55
123.04
121.43
119.62
117.47
115.08
112.19
108.92
105.16
101.01
96.467
91.925
87.431
83.279
79.811
77.027
74.976
73.755
73.071
72.778
72.924
73.217
73.608
73.999
74.243
74.292
74.243
74.048
73.657
73.217
72.631
71.996
71.312
70.531
69.749
68.968
68.186
67.405
66.623
65.793
65.06
64.23
63.448
62.716
61.983
61.299
60.664
60.127
59.541
59.101
58.662
58.32
57.978
57.734
57.49
57.294
57.099
56.903
56.806
56.61
56.415
56.22
56.073
55.878
55.682
55.536
55.34
55.194
54.901
54.754
54.559
54.315
54.168
53.973
53.777
53.631
53.435
53.24
53.045
52.849
52.654
52.41
52.214
52.068
51.872
51.677
51.531
51.433
51.286
51.189
51.042
50.944
50.847
50.749
50.651
50.554
50.407
50.309
50.309
51.091
53.973
60.616
71.752
85.868
100.57
114.2
126.16
136.08
143.5
148.49
151.37
152.44
152.3
151.32
149.76
147.85
145.85
143.85
141.94
140.13
138.47
137.06
135.74
134.52
133.25
131.98
130.76
129.29
127.73
125.82
123.58
120.94
117.76
114.1
110
105.41
100.62
95.734
91.094
86.991
83.475
80.788
78.786
77.467
76.685
76.294
76.197
76.246
76.441
76.636
76.734
76.685
76.539
76.246
75.757
75.22
74.536
73.803
73.071
72.24
71.41
70.629
69.798
68.919
68.186
67.356
66.526
65.793
65.06
64.377
63.742
63.155
62.618
62.13
61.544
61.055
60.616
60.176
59.785
59.492
59.101
58.808
58.418
58.027
57.685
57.294
57.001
56.61
56.317
55.975
55.682
55.438
55.243
54.998
54.754
54.559
54.412
54.217
54.119
53.973
53.875
53.729
53.533
53.435
53.24
52.996
52.654
52.361
52.117
51.872
52.068
53.191
56.61
63.302
73.364
85.379
97.591
109.12
119.23
127.63
133.93
138.33
141.01
142.23
142.43
141.94
140.82
139.35
137.79
136.23
134.66
133.25
131.93
130.8
129.73
128.7
127.73
126.75
125.63
124.36
122.79
120.99
118.74
116.1
112.98
109.41
105.41
101.01
96.321
91.534
86.991
82.986
79.762
77.223
75.415
74.243
73.608
73.413
73.51
73.755
74.048
74.341
74.634
74.683
74.634
74.292
73.852
73.315
72.729
72.045
71.361
70.629
69.798
69.066
68.284
67.551
66.819
65.988
65.256
64.425
63.693
62.911
62.227
61.544
60.909
60.371
59.883
59.443
59.053
58.662
58.369
58.124
57.88
57.685
57.441
57.245
57.099
56.903
56.806
56.659
56.561
56.415
56.22
56.073
55.878
55.682
55.487
55.292
55.096
54.998
54.852
54.657
54.559
54.412
54.315
54.119
53.973
53.777
53.533
53.338
53.24
53.338
54.412
57.49
63.742
73.413
85.379
97.884
109.66
120.25
129.19
136.08
141.01
144.04
145.56
145.8
145.16
143.94
142.38
140.62
138.81
137.11
135.64
134.22
133.05
131.98
131
129.97
129
127.83
126.56
125.14
123.38
121.28
118.89
115.91
112.54
108.63
104.38
99.74
95.051
90.508
86.259
82.693
79.811
77.76
76.294
75.415
74.976
74.927
75.073
75.318
75.611
75.806
75.855
75.757
75.464
75.073
74.487
73.803
73.071
72.289
71.508
70.629
69.749
68.87
68.04
67.161
66.379
65.598
64.865
64.181
63.497
62.814
62.179
61.592
61.055
60.567
60.029
59.541
59.053
58.564
58.124
57.734
57.343
57.001
56.757
56.415
56.22
55.975
55.78
55.633
55.438
55.243
55.047
54.852
54.608
54.412
54.168
53.973
53.777
53.631
53.435
53.24
52.996
52.8
52.556
52.312
52.068
51.775
51.482
51.286
51.286
51.921
54.217
59.443
68.089
79.616
92.12
104.23
115.13
124.31
131.54
136.67
139.79
141.35
141.6
141.06
139.89
138.33
136.57
134.81
133
131.29
129.68
128.26
126.95
125.82
124.8
123.82
122.84
121.82
120.6
119.13
117.32
115.13
112.44
109.26
105.55
101.45
97.004
92.511
88.115
84.11
80.788
78.199
76.294
74.976
74.243
73.852
73.803
73.901
74.097
74.292
74.438
74.487
74.438
74.243
73.852
73.364
72.778
72.094
71.41
70.677
69.847
69.114
68.284
67.551
66.721
65.988
65.256
64.572
63.937
63.253
62.618
62.032
61.495
60.909
60.42
59.932
59.443
59.004
58.613
58.32
58.027
57.734
57.441
57.196
56.903
56.659
56.415
56.22
55.975
55.78
55.633
55.34
55.243
55.047
54.852
54.657
54.51
54.315
54.168
54.07
53.924
53.777
53.68
53.533
53.338
53.191
52.947
52.752
52.654
52.996
54.363
58.027
65.256
75.757
88.164
100.81
112.63
122.99
131.54
137.98
142.43
145.07
146.24
146.24
145.51
144.19
142.67
141.06
139.5
138.03
136.81
135.74
134.76
133.74
132.81
131.88
130.8
129.68
128.36
126.95
125.24
123.28
121.04
118.35
115.32
111.76
107.75
103.45
98.812
94.123
89.629
85.575
82.058
79.225
77.125
75.611
74.731
74.292
74.194
74.341
74.634
74.878
75.073
75.122
75.073
74.878
74.438
73.852
73.217
72.485
71.654
70.873
69.994
69.114
68.235
67.356
66.477
65.695
64.914
64.23
63.497
62.814
62.179
61.592
61.055
60.567
60.029
59.541
59.053
58.564
58.124
57.685
57.245
56.855
56.464
56.122
55.78
55.536
55.34
55.194
54.998
54.803
54.608
54.363
54.119
53.875
53.68
53.484
53.338
53.24
53.045
52.849
52.654
52.556
52.361
52.117
51.872
51.531
51.237
51.042
51.042
51.726
54.168
59.541
68.479
80.104
92.608
104.58
115.22
124.31
131.39
136.37
139.5
141.01
141.26
140.57
139.25
137.54
135.74
133.88
132.07
130.41
128.95
127.63
126.51
125.43
124.41
123.48
122.45
121.38
120.11
118.59
116.79
114.54
111.85
108.68
105.01
100.91
96.565
91.973
87.626
83.572
80.153
77.564
75.66
74.341
73.559
73.12
72.973
73.12
73.364
73.657
73.852
73.999
73.999
73.803
73.51
72.973
72.436
71.801
71.117
70.384
69.603
68.87
68.04
67.307
66.477
65.744
64.914
64.181
63.448
62.716
62.032
61.348
60.713
60.176
59.687
59.15
58.808
58.418
58.027
57.685
57.343
57.099
56.855
56.61
56.366
56.122
55.878
55.633
55.487
55.292
55.194
54.998
54.754
54.559
54.412
54.217
54.07
53.924
53.729
53.631
53.484
53.338
53.24
53.094
52.996
52.8
52.654
52.507
52.361
52.507
53.338
56.171
62.032
71.361
83.182
95.686
107.7
118.35
127.43
134.42
139.45
142.58
144.14
144.48
143.99
143.02
141.7
140.23
138.86
137.5
136.23
135.05
133.98
132.95
131.93
130.95
129.88
128.8
127.63
126.26
124.7
122.79
120.6
118.01
114.98
111.41
107.51
103.16
98.616
93.878
89.385
85.184
81.618
78.737
76.539
74.976
74.048
73.559
73.364
73.51
73.755
73.999
74.194
74.292
74.194
73.999
73.608
73.12
72.485
71.801
71.068
70.238
69.505
68.626
67.796
66.965
66.233
65.5
64.816
64.035
63.351
62.667
62.032
61.495
60.909
60.371
59.883
59.346
58.906
58.466
58.027
57.685
57.294
56.903
56.561
56.22
55.975
55.78
55.536
55.34
55.194
55.047
54.852
54.754
54.559
54.412
54.315
54.168
54.07
53.924
53.875
53.729
53.631
53.484
53.338
53.191
52.996
52.8
52.605
52.556
53.191
55.34
60.42
68.968
80.3
92.804
104.87
115.76
125.14
132.51
137.89
141.35
143.31
143.94
143.7
142.82
141.55
140.04
138.47
136.91
135.44
134.08
132.81
131.73
130.66
129.73
128.75
127.73
126.6
125.29
123.72
122.01
119.86
117.37
114.34
110.92
107.07
102.82
98.225
93.634
89.189
85.184
81.716
79.03
76.978
75.562
74.683
74.243
74.194
74.292
74.536
74.78
74.976
75.073
74.976
74.78
74.438
73.901
73.364
72.68
71.996
71.166
70.384
69.603
68.821
67.991
67.258
66.428
65.695
64.914
64.23
63.546
62.911
62.276
61.739
61.153
60.713
60.225
59.785
59.346
59.004
58.662
58.369
58.027
57.783
57.538
57.294
57.05
56.806
56.561
56.366
56.171
55.975
55.78
55.536
55.292
55.047
54.852
54.657
54.412
54.315
54.119
53.924
53.729
53.533
53.289
53.045
52.8
52.605
52.556
53.094
55.292
60.322
68.919
80.3
92.804
104.82
115.66
124.99
132.32
137.59
141.01
142.87
143.46
143.06
142.14
140.72
139.16
137.69
136.23
134.86
133.54
132.37
131.39
130.36
129.44
128.41
127.29
126.07
124.6
122.94
120.94
118.54
115.81
112.54
108.92
104.82
100.37
95.686
90.997
86.601
82.742
79.469
77.027
75.22
74.048
73.315
73.071
73.071
73.217
73.51
73.755
73.852
73.852
73.657
73.364
72.924
72.387
71.801
71.166
70.531
69.847
69.163
68.479
67.844
67.112
66.379
65.598
64.816
63.986
63.253
62.423
61.739
61.055
60.42
59.785
59.248
58.759
58.32
57.929
57.538
57.196
56.855
56.61
56.366
56.171
55.975
55.78
55.682
55.487
55.34
55.194
54.998
54.803
54.608
54.412
54.217
54.07
53.875
53.729
53.533
53.338
53.191
52.996
52.8
52.556
52.361
52.166
51.97
51.872
51.921
52.556
54.657
59.443
67.551
78.492
90.606
102.43
113.12
122.31
129.68
135.05
138.57
140.48
141.06
140.72
139.74
138.33
136.62
134.81
133
131.24
129.53
127.97
126.6
125.29
124.11
122.99
121.82
120.55
119.03
117.32
115.13
112.54
109.41
105.85
101.89
97.542
93.097
88.75
84.793
81.374
78.59
76.539
75.122
74.194
73.755
73.559
73.608
73.755
73.852
73.901
73.999
73.901
73.657
73.364
72.924
72.387
71.654
70.97
70.238
69.407
68.675
67.844
67.063
66.233
65.5
64.67
63.937
63.253
62.569
61.934
61.299
60.713
60.225
59.736
59.248
58.808
58.418
58.027
57.685
57.343
57.05
56.757
56.464
56.171
55.878
55.536
55.292
54.998
54.657
54.363
54.07
53.729
53.435
53.094
52.8
52.605
52.361
52.214
52.068
51.921
51.775
51.677
51.531
51.384
51.189
50.993
50.651
50.407
50.212
50.309
51.189
53.875
59.687
68.968
80.593
92.804
104.28
114.64
123.28
130.12
135.01
138.03
139.6
139.99
139.6
138.77
137.5
136.13
134.66
133.25
131.88
130.56
129.29
128.17
127.04
125.97
124.85
123.72
122.5
120.99
119.37
117.37
115.13
112.44
109.31
105.7
101.69
97.297
92.755
88.164
84.012
80.349
77.467
75.22
73.657
72.631
71.996
71.801
71.85
72.045
72.289
72.533
72.68
72.68
72.533
72.289
71.996
71.508
70.97
70.482
69.847
69.261
68.528
67.796
67.112
66.379
65.549
64.718
63.937
63.155
62.423
61.739
61.104
60.567
59.981
59.59
59.248
58.857
58.564
58.222
57.929
57.587
57.343
57.099
56.903
56.659
56.415
56.22
56.073
55.78
55.633
55.34
55.194
54.901
54.754
54.559
54.363
54.168
54.07
53.875
53.68
53.533
53.338
53.24
52.996
52.8
52.556
52.312
52.166
52.214
53.191
55.878
61.544
70.629
81.912
93.927
105.36
115.61
124.26
131.05
135.98
139.16
140.87
141.26
140.82
139.74
138.38
136.76
135.1
133.49
131.98
130.56
129.24
128.07
126.85
125.72
124.6
123.43
122.11
120.69
118.94
116.93
114.54
111.61
108.29
104.58
100.42
96.076
91.534
87.236
83.377
80.055
77.418
75.464
74.194
73.315
72.924
72.729
72.778
72.973
73.168
73.364
73.413
73.315
73.12
72.729
72.289
71.752
71.117
70.433
69.652
68.919
68.089
67.356
66.526
65.744
65.012
64.23
63.497
62.716
62.032
61.348
60.811
60.225
59.736
59.248
58.808
58.369
57.929
57.538
57.099
56.806
56.464
56.171
55.926
55.682
55.438
55.243
55.047
54.852
54.657
54.51
54.315
54.168
53.973
53.875
53.729
53.631
53.533
53.435
53.338
53.191
52.996
52.8
52.556
52.214
51.872
51.531
51.433
51.97
54.217
59.346
68.089
79.469
91.778
103.55
114.1
123.14
130.17
135.3
138.62
140.43
140.92
140.62
139.74
138.57
137.11
135.69
134.22
133
131.88
130.85
129.88
128.8
127.83
126.75
125.63
124.41
122.99
121.38
119.42
117.13
114.44
111.22
107.6
103.6
99.251
94.611
89.922
85.477
81.472
78.102
75.562
73.608
72.387
71.654
71.361
71.361
71.557
71.801
72.045
72.192
72.24
72.094
71.85
71.508
71.068
70.531
69.994
69.359
68.724
68.04
67.356
66.672
65.94
65.109
64.279
63.546
62.716
61.983
61.299
60.616
60.029
59.492
59.053
58.613
58.173
57.783
57.441
57.099
56.806
56.561
56.22
55.926
55.682
59.297
58.906
58.613
58.32
57.978
57.685
57.343
57.099
56.903
56.659
56.464
56.317
56.122
55.926
55.731
55.536
55.34
55.243
55.096
54.998
54.852
54.657
54.51
54.315
54.119
53.875
53.533
53.24
52.947
52.605
52.312
51.97
51.775
52.117
53.68
57.929
65.94
77.174
90.117
103.01
114.88
125.24
133.64
139.99
144.29
146.83
147.85
147.8
147.07
145.85
144.38
142.72
141.06
139.55
138.13
136.81
135.54
134.32
133.1
131.93
130.76
129.39
127.87
126.12
124.02
121.57
118.59
115.22
111.36
106.97
102.28
97.444
92.511
87.871
83.719
80.3
77.662
75.66
74.341
73.608
73.315
73.315
73.559
73.852
74.097
74.292
74.341
74.341
74.194
73.803
73.364
72.875
72.24
71.654
71.068
70.384
69.603
68.87
68.04
67.161
66.379
65.5
64.67
63.839
63.058
62.276
61.544
60.86
60.176
59.59
59.101
58.808
58.662
58.808
59.687
61.934
66.477
73.755
83.23
93.878
104.58
114.49
123.04
129.93
135.05
138.33
140.04
140.48
139.94
138.77
137.11
135.3
133.34
131.49
129.63
127.83
126.12
124.5
122.84
121.28
119.62
117.81
115.76
113.32
110.39
106.97
103.16
99.007
94.513
89.922
85.575
81.618
78.297
75.806
73.901
72.778
72.192
71.996
72.192
72.533
73.071
73.51
73.901
74.194
74.243
74.097
73.803
73.364
72.778
72.094
71.361
70.531
69.749
68.87
67.991
67.112
66.184
65.305
64.474
63.693
62.911
62.227
61.544
60.909
60.371
59.785
59.297
58.808
58.369
57.978
57.685
57.294
57.001
56.659
56.415
56.22
56.073
55.878
55.682
55.487
55.292
55.096
54.998
54.803
54.608
54.412
54.217
54.07
53.924
53.729
53.631
53.435
53.24
53.094
52.947
52.752
52.605
52.41
52.312
52.117
51.97
51.775
51.677
51.628
51.482
51.384
51.189
51.042
50.847
50.602
50.554
50.798
52.361
56.806
65.744
78.786
93.878
108.63
122.11
133.74
142.92
149.56
153.81
156.01
156.64
156.11
154.74
152.93
150.93
148.93
147.07
145.26
143.7
142.23
140.92
139.74
138.57
137.3
136.08
134.66
133.1
131.39
129.29
126.85
124.06
120.79
116.98
112.73
107.99
103.01
97.932
92.95
88.408
84.549
81.277
78.786
76.978
75.806
75.122
74.878
74.878
75.073
75.318
75.464
75.562
75.464
75.318
74.976
74.536
74.048
73.413
72.729
71.996
71.166
70.433
69.652
68.87
68.04
67.258
66.428
65.695
64.865
64.035
63.302
62.569
61.885
61.251
60.616
60.029
59.541
59.053
58.613
58.222
57.88
57.587
57.343
57.05
56.806
56.561
56.366
56.122
55.926
55.682
55.487
55.292
55.096
54.998
54.803
54.608
54.412
54.168
53.875
53.533
53.24
52.947
52.605
52.312
52.117
51.97
52.166
53.191
56.073
61.934
71.117
82.693
94.806
106.43
116.74
125.38
132.07
136.67
139.45
140.62
140.57
139.69
138.18
136.42
134.42
132.51
130.61
128.8
127.19
125.68
124.31
122.94
121.67
120.45
119.03
117.57
115.81
113.66
111.07
108.04
104.48
100.57
96.321
91.925
87.675
83.67
80.3
77.564
75.464
74.048
73.12
72.631
72.485
72.533
72.778
73.071
73.315
73.51
73.559
73.51
73.217
72.924
72.485
71.996
71.361
70.677
69.945
69.163
68.431
67.6
66.868
66.037
65.256
64.377
63.595
62.862
62.13
61.495
60.86
60.322
59.736
59.297
58.857
58.418
58.027
57.734
57.441
57.099
56.855
56.61
56.415
56.317
56.122
55.975
55.78
55.682
55.536
55.438
55.292
55.096
54.998
54.803
54.608
54.412
54.168
53.924
53.68
53.533
53.777
55.194
58.857
65.988
76.539
89.189
102.04
114.1
124.7
133.44
139.99
144.58
147.26
148.44
148.49
147.8
146.53
145.02
143.26
141.5
139.89
138.33
136.91
135.64
134.52
133.34
132.22
131.1
129.88
128.41
126.8
124.94
122.7
120.01
116.79
113.22
109.12
104.67
99.935
95.099
90.508
86.161
82.547
79.469
77.174
75.562
74.536
74.048
73.901
74.097
74.438
74.731
75.073
75.22
75.22
75.122
74.78
74.341
73.803
73.168
72.436
71.605
70.873
69.994
69.163
68.284
67.405
66.526
65.695
64.816
63.986
63.155
62.472
61.788
61.104
60.567
59.981
59.492
59.004
58.564
58.124
57.734
57.343
57.001
56.61
56.366
56.122
55.878
55.633
55.34
55.096
54.901
54.803
54.608
54.412
54.217
54.07
53.777
53.631
53.338
53.094
52.947
52.752
52.556
52.361
52.166
51.97
51.775
51.531
51.286
51.042
50.749
50.407
50.309
50.407
51.482
54.657
61.299
71.557
84.061
96.858
108.92
119.62
128.61
135.44
140.18
143.11
144.43
144.48
143.8
142.58
140.92
139.16
137.35
135.64
133.93
132.32
130.85
129.53
128.31
127.04
125.82
124.5
123.14
121.48
119.62
117.42
114.73
111.61
107.99
103.94
99.544
94.855
90.215
85.819
81.912
78.737
76.246
74.487
73.315
72.631
72.387
72.436
72.631
72.924
73.217
73.51
73.608
73.657
73.559
73.217
72.875
72.436
71.947
71.361
70.726
70.091
69.407
68.724
67.991
67.161
66.428
65.598
64.816
64.035
63.253
62.569
61.885
61.153
60.567
59.981
59.492
59.053
58.613
58.369
58.369
59.004
61.006
65.353
72.68
82.547
93.732
104.92
115.22
124.11
131.29
136.62
140.04
141.89
142.38
141.89
140.67
139.06
137.2
135.2
133.1
131.1
129.24
127.48
125.82
124.16
122.6
121.04
119.37
117.57
115.42
112.88
109.95
106.48
102.57
98.225
93.732
89.238
84.989
81.277
78.248
75.855
74.194
73.12
72.533
72.387
72.436
72.729
73.071
73.413
73.657
73.803
73.755
73.559
73.217
72.778
72.24
71.557
70.873
70.042
69.31
68.479
67.698
66.868
65.988
65.158
64.377
63.595
62.862
62.179
61.495
60.909
60.371
59.785
59.297
58.808
58.369
57.929
57.538
57.245
56.903
56.61
56.366
56.073
55.78
55.536
55.34
55.194
54.998
54.803
54.608
54.412
54.168
53.973
53.875
53.729
53.533
53.435
53.24
53.094
52.947
52.8
52.654
52.507
52.361
52.214
52.117
51.97
51.872
51.726
51.628
51.433
51.286
51.091
50.847
50.651
50.602
50.993
52.947
57.929
67.307
80.3
95.002
109.31
122.26
133.3
141.99
148.24
152.2
154.25
154.79
154.3
153.08
151.42
149.61
147.75
145.95
144.19
142.58
141.11
139.79
138.62
137.45
136.32
135.1
133.78
132.32
130.51
128.41
125.97
123.18
119.91
116.1
111.85
107.26
102.28
97.249
92.315
87.724
83.719
80.495
78.004
76.246
75.122
74.487
74.292
74.341
74.634
74.878
75.122
75.22
75.22
75.073
74.683
74.194
73.608
72.924
72.192
71.312
70.433
69.554
68.675
67.796
66.965
66.135
65.353
64.621
63.937
63.253
62.569
61.934
61.299
60.664
60.127
59.492
58.906
58.418
57.88
57.343
56.903
56.561
56.171
55.926
55.633
55.438
55.243
55.047
54.852
54.657
54.412
54.168
53.973
53.777
53.729
53.777
54.217
55.731
59.346
65.94
75.366
86.503
97.932
108.53
117.91
125.63
131.49
135.44
137.69
138.57
138.38
137.3
135.79
133.98
131.98
130.07
128.17
126.51
124.85
123.28
121.87
120.5
119.13
117.62
116
114.1
111.85
109.26
106.04
102.38
98.323
93.927
89.434
85.135
81.179
77.809
75.122
73.168
71.947
71.166
70.824
70.726
70.873
71.166
71.508
71.801
72.045
72.192
72.192
72.045
71.801
71.508
71.117
70.677
70.189
69.603
69.066
68.382
67.6
66.868
66.037
65.305
64.621
64.23
64.474
65.744
68.528
73.12
79.323
86.356
93.781
100.81
106.92
111.8
115.37
117.42
118.11
117.42
115.57
112.73
109.31
105.36
101.16
96.858
92.56
88.31
84.11
80.104
76.246
72.68
69.359
66.477
64.035
62.276
61.153
60.616
60.616
61.055
61.788
62.814
63.937
65.012
65.988
66.868
67.551
67.991
68.186
68.186
67.991
67.6
67.112
66.477
65.793
65.06
64.23
63.448
62.618
61.885
61.104
60.371
59.687
59.004
58.369
57.783
57.196
56.61
56.171
55.731
55.34
54.998
54.657
54.363
54.07
53.777
53.533
53.338
53.191
52.996
52.8
52.654
52.556
52.41
52.312
52.166
52.068
57.441
56.903
56.561
56.171
55.78
55.487
55.243
54.901
54.657
54.412
54.168
53.924
53.729
53.631
53.484
53.338
53.191
53.094
52.996
52.947
52.849
52.752
52.605
52.41
52.312
52.117
51.921
51.726
51.628
51.775
52.996
56.122
62.276
71.361
82.107
92.999
103.06
111.95
119.23
124.94
128.95
131.54
133.05
133.64
133.54
133.05
132.32
131.44
130.51
129.53
128.7
127.83
126.95
125.97
124.99
123.87
122.7
121.38
119.86
118.2
116.25
114.05
111.51
108.53
105.26
101.69
97.786
93.781
89.727
85.868
82.302
79.323
76.783
74.927
73.559
72.68
72.192
71.947
71.85
71.947
71.996
71.996
71.947
71.801
71.508
71.117
70.677
70.189
69.554
68.919
68.235
67.503
66.721
65.988
65.305
64.572
63.839
63.155
62.423
61.739
61.055
60.42
59.736
59.101
58.564
57.978
57.49
57.001
56.561
56.171
55.878
55.487
55.194
54.901
54.754
54.559
54.363
54.168
53.924
53.729
53.533
53.289
53.045
52.752
52.507
52.166
51.97
52.068
52.849
55.34
60.616
68.87
79.127
89.727
99.74
108.63
116.1
121.91
126.31
129.19
130.8
131.49
131.39
130.76
129.83
128.7
127.39
126.12
124.8
123.58
122.26
120.99
119.67
118.35
116.98
115.61
114
112.19
110
107.36
104.38
101.01
97.2
93.195
88.994
84.94
81.179
77.858
75.122
73.071
71.557
70.531
69.994
69.749
69.749
69.945
70.042
70.238
70.287
70.287
70.189
69.994
69.652
69.31
68.821
68.235
67.698
67.063
66.428
65.793
65.109
64.425
63.79
63.107
62.423
61.788
61.153
60.664
60.127
59.59
59.101
58.613
58.173
57.685
57.245
56.855
56.561
56.317
56.22
56.561
57.587
60.225
65.256
72.68
81.814
91.534
100.91
109.36
116.64
122.35
126.51
129.05
130.32
130.56
129.93
128.8
127.29
125.58
123.82
122.01
120.16
118.5
116.74
115.08
113.32
111.51
109.56
107.36
104.92
102.13
98.86
95.295
91.485
87.626
83.816
80.349
77.418
75.073
73.217
72.045
71.312
70.922
70.824
70.873
71.068
71.312
71.41
71.557
71.508
71.41
71.166
70.824
70.287
69.652
69.066
68.382
67.698
66.916
66.184
65.402
64.67
63.937
63.253
62.472
61.788
61.104
60.469
59.883
59.346
58.857
58.369
57.88
57.441
57.05
56.61
56.22
55.926
55.536
55.243
54.998
54.657
54.412
54.217
54.07
53.875
53.631
53.484
53.289
53.191
53.045
52.947
52.8
52.654
52.556
52.41
52.312
52.166
52.068
51.921
51.775
51.726
51.628
51.482
51.384
51.237
51.091
50.944
50.749
50.602
50.407
50.505
51.286
54.119
60.567
70.97
84.012
97.249
109.51
120.3
129.39
136.23
141.11
144.24
145.95
146.53
146.39
145.7
144.63
143.36
142.04
140.62
139.16
137.79
136.47
135.1
133.78
132.42
131
129.49
127.83
125.97
124.02
121.62
118.98
115.91
112.49
108.63
104.48
100.03
95.49
91.045
86.845
83.182
80.055
77.613
75.757
74.487
73.657
73.315
73.168
73.217
73.364
73.51
73.559
73.559
73.413
73.168
72.778
72.289
71.752
71.068
70.238
69.407
68.528
67.698
66.819
65.94
65.109
64.279
63.546
62.814
62.13
61.495
60.86
60.225
59.687
59.15
58.662
58.222
57.88
57.49
57.099
56.757
56.415
56.122
55.78
55.487
55.194
54.901
54.754
54.559
54.363
54.168
53.973
53.777
53.68
53.484
53.24
52.996
52.752
52.507
52.166
51.921
51.677
51.628
51.97
53.289
56.757
63.155
72.485
83.377
94.318
104.43
113.37
120.74
126.36
130.32
132.66
133.74
133.88
133.2
132.07
130.56
128.95
127.19
125.48
123.87
122.26
120.74
119.37
117.91
116.54
115.13
113.56
111.8
109.75
107.36
104.58
101.3
97.688
93.732
89.678
85.673
82.009
78.883
76.294
74.341
72.924
71.996
71.508
71.312
71.312
71.508
71.654
71.947
72.094
72.192
72.094
71.996
71.752
71.312
70.824
70.238
69.603
68.968
68.235
67.551
66.819
66.037
65.256
64.474
63.742
63.009
62.227
61.592
60.909
60.322
59.736
59.248
58.808
58.369
57.978
57.587
57.294
57.001
56.757
56.464
56.317
56.073
55.878
55.682
55.536
55.438
55.292
55.194
55.047
54.998
54.852
54.657
54.51
54.315
54.07
53.777
53.533
53.435
53.631
54.852
58.32
65.109
75.122
86.943
98.812
109.85
119.67
127.87
134.13
138.57
141.45
142.87
143.26
142.87
141.89
140.62
139.11
137.54
136.08
134.57
133.05
131.63
130.12
128.7
127.19
125.68
124.06
122.26
120.3
118.06
115.57
112.63
109.31
105.6
101.5
97.2
92.755
88.506
84.598
81.228
78.541
76.441
74.927
73.901
73.413
73.168
73.217
73.364
73.559
73.755
73.852
73.803
73.657
73.364
72.924
72.436
71.85
71.166
70.433
69.652
68.919
68.186
67.356
66.623
65.842
65.109
64.377
63.693
63.009
62.374
61.739
61.153
60.664
60.127
59.59
59.101
58.662
58.222
57.783
57.441
57.001
56.61
56.317
55.975
55.682
55.438
55.194
54.901
54.657
54.51
54.315
54.168
53.973
53.777
53.68
53.484
53.338
53.094
52.947
52.654
52.41
52.117
51.726
51.482
51.384
51.775
53.68
58.32
66.379
77.174
88.994
100.42
110.88
120.01
127.39
132.95
136.86
139.16
140.23
140.23
139.55
138.38
136.81
135.05
133.25
131.44
129.73
128.12
126.51
124.99
123.48
121.91
120.35
118.59
116.69
114.44
111.85
108.87
105.36
101.5
97.297
92.95
88.506
84.354
80.739
77.76
75.415
73.755
72.533
71.85
71.557
71.508
71.654
71.947
72.24
72.436
72.631
72.631
72.485
72.24
71.801
71.312
70.824
70.189
69.554
68.919
68.235
67.551
66.868
66.184
65.5
64.816
64.132
63.448
62.814
62.179
61.592
61.055
60.567
60.029
59.541
59.15
58.857
58.613
58.564
58.662
59.346
61.055
64.67
70.873
79.225
89.043
99.105
108.63
117.18
124.31
129.73
133.54
135.79
136.67
136.47
135.44
133.88
131.88
129.63
127.29
124.99
122.6
120.35
118.2
116.1
114
111.95
109.61
107.12
104.23
101.06
97.493
93.683
89.678
85.721
82.058
78.786
76.099
74.097
72.68
71.801
71.361
71.215
71.361
71.605
71.996
72.289
72.533
72.68
72.729
72.631
72.387
71.996
71.508
70.922
70.287
69.603
68.919
68.186
67.356
66.526
65.793
65.012
64.181
63.448
62.667
61.983
61.348
60.713
60.176
59.59
59.101
58.662
58.222
57.88
57.49
57.196
56.855
56.561
56.22
55.975
55.731
55.536
55.34
55.194
54.998
54.803
54.608
54.51
54.315
54.119
53.924
53.777
53.631
53.484
53.289
53.094
52.947
52.8
52.605
52.507
52.312
52.166
51.97
51.872
51.677
51.531
51.433
51.237
51.091
50.944
50.798
50.651
50.602
50.505
50.407
50.358
50.212
50.163
50.114
50.065
50.065
50.407
52.068
56.61
65.353
78.004
92.218
106.14
118.59
129.49
138.23
144.73
149.12
151.61
152.69
152.69
151.86
150.49
148.73
146.83
144.73
142.82
140.87
139.01
137.25
135.54
133.98
132.42
130.85
129.24
127.48
125.58
123.43
120.89
118.01
114.64
110.83
106.63
102.04
97.346
92.657
88.164
84.158
80.886
78.199
76.197
74.78
73.901
73.51
73.364
73.413
73.51
73.608
73.755
73.755
73.657
73.413
73.12
72.631
72.094
71.557
70.922
70.238
69.554
68.87
68.186
67.405
66.672
65.94
65.158
64.425
63.693
62.862
62.13
61.446
60.811
60.176
59.59
59.101
58.662
58.32
57.929
57.587
57.294
57.05
56.806
56.561
56.317
56.122
55.926
55.731
55.536
55.34
55.194
55.047
54.852
54.754
54.608
54.51
54.363
54.217
54.119
54.07
53.875
53.68
53.484
53.289
53.094
52.996
52.849
52.752
52.654
52.605
52.605
52.605
52.605
52.605
52.605
52.556
52.556
52.556
52.654
53.338
55.34
59.981
67.844
78.444
90.166
101.69
112.29
121.57
129.09
134.66
138.38
140.38
141.01
140.48
139.25
137.5
135.35
133.1
130.76
128.51
126.26
124.11
122.11
120.25
118.35
116.49
114.64
112.54
110.29
107.75
104.82
101.55
97.932
94.074
90.117
86.259
82.693
79.567
76.929
74.927
73.559
72.631
72.192
126.99
125.24
123.28
121.13
118.59
115.76
112.49
108.87
104.72
100.37
95.783
91.241
87.04
83.279
80.3
77.906
76.294
75.171
74.634
74.341
74.438
74.536
74.78
75.073
75.171
75.122
74.976
74.634
74.243
73.657
72.973
72.24
71.41
70.677
69.847
69.114
68.284
67.503
66.721
65.94
65.109
64.425
63.693
63.009
62.276
61.69
61.055
60.42
59.932
59.443
59.004
58.613
58.222
57.929
57.587
57.294
57.05
56.806
56.561
56.366
56.171
55.975
55.78
55.633
55.438
55.243
55.096
54.901
54.754
54.559
54.363
54.217
54.119
53.973
53.777
53.631
53.435
53.24
53.045
52.849
52.605
52.507
52.556
53.289
55.633
60.664
68.919
79.811
91.925
103.94
114.88
124.16
131.78
137.69
141.89
144.48
145.7
145.8
145.12
143.8
142.04
140.04
137.94
135.79
133.74
131.73
129.88
128.07
126.41
124.75
123.04
121.23
119.23
116.93
114.2
110.97
107.36
103.31
98.909
94.416
90.069
85.917
82.449
79.567
77.418
76.001
75.073
74.536
74.341
74.438
74.536
74.731
74.927
74.976
74.927
74.731
74.438
73.901
73.315
72.533
71.752
70.824
69.945
69.066
68.235
67.405
66.623
65.793
64.914
64.132
63.253
62.374
61.446
60.567
59.687
58.808
58.027
57.294
56.659
56.171
55.682
55.292
54.998
54.754
54.559
54.412
54.315
54.168
54.07
53.924
53.777
53.631
53.533
53.435
53.289
53.24
53.094
53.045
52.947
52.8
52.752
52.654
52.605
52.41
52.312
52.117
51.921
51.677
51.433
51.189
50.993
50.798
50.651
50.847
51.775
54.315
59.59
68.04
78.981
90.85
102.47
112.88
121.57
128.41
133.64
137.11
139.11
139.89
139.5
138.33
136.62
134.57
132.37
130.07
127.73
125.48
123.38
121.28
119.37
117.37
115.32
113.12
110.63
107.75
104.38
100.67
96.614
92.413
88.261
84.305
80.886
78.053
76.001
74.536
73.657
73.315
73.217
73.51
73.852
74.292
74.683
74.976
75.122
75.122
74.927
74.634
74.194
73.608
72.973
72.24
71.41
70.629
69.798
68.919
68.089
67.258
66.379
65.549
64.718
63.986
63.253
62.569
61.885
61.251
60.664
60.127
59.59
59.15
58.759
58.32
57.929
57.587
57.294
57.05
56.806
56.61
56.415
56.22
56.122
55.926
55.731
55.536
55.34
55.243
55.047
54.901
54.803
54.657
54.559
54.51
54.315
54.168
54.07
53.875
53.729
53.533
53.289
53.094
52.996
53.191
54.168
57.05
63.107
72.533
84.5
97.249
109.41
120.3
129.44
136.62
141.99
145.7
147.85
148.88
148.83
148
146.73
145.26
143.55
141.79
140.04
138.38
136.81
135.35
133.93
132.56
131.2
129.68
128.17
126.41
124.36
122.01
119.23
116.1
112.49
108.48
104.14
99.495
94.855
90.362
86.259
82.742
80.007
77.906
76.539
75.66
75.318
75.22
75.415
75.66
76.001
76.197
76.246
76.099
75.855
75.464
74.976
74.341
73.657
72.924
72.192
71.41
70.629
69.847
69.066
68.284
67.503
66.672
65.842
65.06
64.23
63.497
62.862
62.374
62.227
62.862
64.816
68.968
75.757
84.94
95.441
106.24
116.35
125.14
132.22
137.69
141.45
143.6
144.43
144.24
143.26
141.79
139.99
137.94
135.79
133.64
131.39
129.09
126.85
124.6
122.35
120.01
117.47
114.73
111.66
108.29
104.58
100.42
96.076
91.632
87.284
83.377
79.909
77.174
75.171
73.852
73.12
72.924
73.12
73.559
74.048
74.536
74.976
75.22
75.366
75.22
74.878
74.438
73.803
73.071
72.289
71.41
70.531
69.652
68.821
67.942
66.965
66.184
65.353
64.572
63.79
63.058
62.374
61.739
61.055
60.469
59.932
59.443
59.004
58.564
58.173
57.783
57.49
57.196
56.903
56.659
56.464
56.22
56.073
55.78
55.633
55.438
55.243
55.047
54.852
54.754
54.559
54.363
54.168
53.973
53.875
53.68
53.533
53.338
53.24
53.045
52.947
52.8
52.654
52.556
52.41
52.312
52.166
52.068
51.921
51.872
51.775
52.214
54.119
59.053
68.186
81.13
95.734
110.05
122.79
133.54
142.04
148.39
152.74
155.23
156.2
155.91
154.74
152.93
150.68
148.24
145.8
143.5
141.26
139.06
137.06
135.2
133.44
131.68
129.97
128.17
126.12
123.72
120.94
117.62
113.76
109.41
104.72
99.886
95.002
90.313
86.161
82.742
80.104
78.248
76.978
76.294
76.001
76.05
76.246
76.539
76.783
76.978
77.027
76.881
76.539
76.099
75.562
74.878
74.097
73.315
72.436
71.557
70.726
69.847
69.066
68.235
67.405
66.672
65.842
65.158
64.474
63.79
63.155
62.569
61.983
61.495
61.006
60.567
60.029
59.687
59.248
58.906
58.613
58.32
57.978
57.685
57.441
57.099
56.855
56.61
56.366
56.171
55.975
55.78
55.633
55.487
55.292
55.096
54.901
54.754
54.559
54.363
54.217
54.119
53.973
53.924
53.777
53.631
53.484
53.289
53.094
52.947
52.8
52.8
53.289
55.194
59.687
67.747
78.883
91.534
104.23
115.86
125.87
133.93
140.04
144.38
146.97
148.19
148.24
147.41
146
144.19
142.14
140.04
137.98
135.98
134.08
132.22
130.51
128.8
127.14
125.29
123.38
121.13
118.54
115.61
112.29
108.48
104.28
99.789
95.197
90.655
86.552
82.986
80.104
77.906
76.441
75.464
75.073
74.927
75.122
75.415
75.806
76.099
76.343
76.441
76.294
76.001
75.562
74.976
74.292
73.559
72.729
71.85
70.97
70.091
69.31
68.431
67.551
66.721
65.94
65.158
64.425
63.742
63.058
62.423
61.885
61.299
60.811
60.322
59.883
59.443
59.004
58.662
58.369
58.027
57.734
57.441
57.196
56.903
56.659
56.464
56.317
56.122
55.926
55.731
55.536
55.34
55.243
55.047
54.852
54.657
54.559
54.363
54.168
53.973
53.777
53.729
53.631
53.533
53.338
53.24
53.045
52.8
52.605
52.507
52.507
52.996
54.901
59.492
67.6
78.883
91.632
104.38
116
125.92
133.93
140.04
144.43
147.07
148.29
148.44
147.7
146.29
144.58
142.48
140.38
138.18
136.13
134.17
132.32
130.51
128.75
126.95
125.04
123.04
120.94
118.54
115.81
112.63
108.92
104.87
100.42
95.881
91.29
87.04
83.426
80.446
78.199
76.636
75.611
75.122
74.976
75.122
75.366
75.66
75.904
76.099
76.197
76.05
75.757
75.318
74.731
73.999
73.217
72.436
71.557
70.677
69.798
68.968
68.089
67.307
66.477
65.744
65.012
64.279
63.595
62.911
62.276
61.739
61.153
60.664
60.225
59.785
59.346
58.906
58.564
58.173
57.783
57.441
57.05
56.757
56.464
56.171
55.975
55.78
55.536
55.34
55.194
54.998
54.803
54.608
54.412
54.217
54.07
53.777
53.631
53.338
53.094
52.947
52.752
52.556
52.361
52.214
52.068
51.872
51.677
51.482
51.286
51.091
50.847
50.749
50.651
51.091
52.752
56.903
64.474
75.073
87.187
99.3
110.63
120.45
128.56
134.81
139.35
142.23
143.75
143.99
143.36
142.14
140.38
138.33
136.13
133.93
131.73
129.68
127.68
125.82
124.02
122.16
120.35
118.35
116.2
113.61
110.73
107.36
103.55
99.349
94.904
90.508
86.308
82.498
79.372
76.978
75.22
74.097
73.413
73.168
73.168
73.315
73.559
73.803
73.999
74.048
73.901
73.755
73.364
72.924
72.387
71.801
71.166
70.531
69.945
69.261
68.479
67.796
67.063
66.281
65.549
64.718
63.986
63.253
62.472
61.788
61.153
60.567
59.981
59.492
59.053
58.613
58.173
57.783
57.49
57.196
56.903
56.61
56.366
56.122
55.878
55.682
55.487
55.243
55.047
54.852
54.657
54.51
54.315
54.168
54.07
53.924
53.729
53.631
53.435
53.289
53.094
52.996
52.849
52.752
52.605
52.507
52.361
52.166
52.068
51.872
51.677
51.482
51.286
51.091
51.091
51.677
53.68
58.369
66.477
77.467
89.922
102.28
113.66
123.43
131.39
137.45
141.75
144.48
145.75
145.85
145.07
143.55
141.7
139.6
137.45
135.25
133.2
131.24
129.44
127.68
125.97
124.36
122.6
120.74
118.69
116.35
113.76
110.68
107.16
103.31
99.007
94.562
90.117
85.917
82.253
79.176
76.881
75.22
74.194
73.559
73.413
73.559
73.803
74.097
74.487
74.731
74.878
74.878
74.683
74.341
68.089
67.356
66.526
65.842
65.109
64.425
63.79
63.107
62.472
61.934
61.348
60.86
60.42
59.981
59.59
59.248
58.857
58.564
58.32
57.978
57.685
57.441
57.245
57.001
56.806
56.61
56.415
56.22
55.975
55.78
55.633
55.438
55.243
55.047
54.852
54.754
54.608
54.51
54.363
54.217
54.119
53.973
53.777
53.631
53.484
53.289
53.094
53.24
53.924
56.171
60.909
68.821
79.323
91.045
102.87
113.86
123.48
131.24
136.86
140.48
142.38
142.82
142.23
140.92
139.11
137.11
135.01
132.81
130.76
128.8
126.99
125.29
123.67
122.16
120.69
118.98
117.18
115.13
112.73
109.85
106.63
102.87
98.812
94.513
90.117
85.917
82.156
79.127
76.685
74.976
73.999
73.413
73.364
73.559
73.999
74.536
75.073
75.415
75.66
75.806
75.66
75.366
74.927
74.341
73.657
72.924
72.192
71.361
70.531
69.652
68.87
68.089
67.356
66.623
65.842
65.109
64.425
63.79
63.253
62.667
62.179
61.69
61.251
60.86
60.469
60.127
59.736
59.346
59.053
58.808
58.564
58.32
58.027
57.88
57.685
57.49
57.294
57.196
57.05
56.903
56.757
56.61
56.415
56.22
56.073
55.926
55.731
55.633
55.438
55.243
55.096
54.998
54.803
54.608
54.412
54.217
54.119
54.119
54.657
56.561
60.811
68.284
78.688
90.557
102.72
114.25
124.36
132.61
138.81
142.92
145.26
146
145.7
144.63
143.02
141.11
139.06
137.01
135.05
133.25
131.63
130.12
128.75
127.48
126.16
124.94
123.43
121.82
119.81
117.37
114.49
111.12
107.26
103.01
98.421
93.878
89.434
85.379
82.009
79.225
77.223
75.904
75.22
74.976
75.171
75.611
76.099
76.685
77.125
77.369
77.418
77.32
76.978
76.49
75.855
75.171
74.341
73.51
72.533
71.654
70.726
69.798
68.919
68.089
67.258
66.379
65.549
64.718
63.986
63.302
62.618
61.934
61.348
60.811
60.225
59.785
59.346
59.004
58.662
58.369
58.124
57.88
57.538
57.294
57.05
56.757
56.464
56.171
55.926
55.633
55.34
55.194
54.998
54.803
54.608
54.51
54.315
54.119
53.875
53.68
53.435
53.24
52.996
52.752
52.556
52.312
52.068
51.775
51.628
51.531
51.775
52.849
55.878
61.69
70.677
82.009
94.074
105.8
116.49
125.58
132.51
137.3
140.13
141.16
140.92
139.69
137.74
135.49
133.1
130.66
128.41
126.26
124.31
122.55
120.99
119.47
118.11
116.74
115.22
113.42
111.36
108.82
105.85
102.43
98.616
94.513
90.166
85.917
82.058
78.737
76.05
74.097
72.778
72.045
71.801
71.947
72.387
72.875
73.51
74.048
74.487
74.78
74.878
74.78
74.536
74.097
73.559
72.924
72.192
71.361
70.482
69.603
68.724
67.796
66.916
66.037
65.256
64.425
63.595
62.862
62.179
61.544
60.909
60.42
59.932
59.492
59.053
58.759
58.418
58.173
57.929
57.587
57.343
57.196
56.903
56.757
56.561
56.366
56.171
56.073
55.878
55.682
55.536
55.34
55.243
55.096
54.998
54.852
54.754
54.608
54.412
54.315
54.119
53.924
53.777
53.631
53.435
53.24
53.045
52.849
52.654
52.605
53.094
54.998
59.443
67.258
77.809
89.873
102.04
113.61
123.82
132.12
138.23
142.23
144.38
145.02
144.58
143.36
141.75
139.89
137.89
135.88
133.88
132.07
130.36
128.8
127.29
125.87
124.41
122.84
121.23
119.37
117.18
114.64
111.61
108.09
104.18
99.886
95.295
90.801
86.503
82.693
79.469
77.027
75.318
74.194
73.657
73.657
74.048
74.634
75.22
75.806
76.246
76.441
76.343
76.05
75.611
74.927
74.097
73.217
72.289
71.361
70.384
69.407
68.528
67.698
66.868
66.037
65.305
64.621
63.937
63.302
62.667
62.032
61.446
60.86
60.322
59.785
59.297
58.857
58.418
58.027
57.685
57.343
57.05
56.806
56.561
56.317
56.073
55.878
55.682
55.487
55.292
55.194
54.998
54.803
54.608
54.412
54.217
54.07
53.875
53.729
53.631
53.533
53.435
53.289
53.191
52.996
52.8
52.556
52.312
52.068
51.775
51.628
51.628
52.117
53.777
57.88
65.06
75.22
87.138
99.154
110.49
120.35
128.41
134.32
138.03
139.79
140.04
139.16
137.5
135.35
133.05
130.61
128.31
126.12
124.11
122.31
120.6
119.18
117.76
116.35
114.93
113.22
111.32
108.92
106.04
102.62
98.812
94.611
90.362
86.161
82.351
79.127
76.539
74.634
73.364
72.729
72.533
72.778
73.217
73.803
74.341
74.78
75.171
75.366
75.366
75.122
74.731
74.194
73.559
72.778
71.996
71.166
70.287
69.407
68.528
67.698
66.868
66.037
65.305
64.572
63.839
63.155
62.618
62.032
61.495
61.055
60.567
60.127
59.736
59.443
59.101
58.808
58.564
58.32
58.027
57.783
57.538
57.294
57.099
56.903
56.757
56.561
56.366
56.171
55.975
55.78
55.633
55.438
55.243
55.047
54.901
54.754
54.559
54.412
54.217
54.119
53.924
53.777
53.68
53.533
53.338
53.191
53.045
52.996
53.24
54.51
57.734
64.035
73.657
85.477
98.03
110.09
121.04
130.17
137.11
141.94
144.68
145.85
145.85
145.07
143.55
141.75
139.74
137.74
135.79
133.98
132.37
130.85
129.44
128.17
126.85
125.63
124.26
122.6
120.74
118.45
115.76
112.63
108.97
104.87
100.42
95.783
91.241
86.943
83.182
80.055
77.662
75.904
74.927
74.487
74.487
74.78
75.22
75.757
76.197
76.539
76.685
76.685
76.441
76.05
75.464
74.78
74.048
73.168
72.289
71.41
70.482
69.603
68.724
67.844
67.063
66.281
65.549
64.816
64.035
63.448
62.814
62.227
61.739
61.251
60.713
60.322
59.932
59.59
59.297
59.004
58.662
58.369
58.124
57.88
57.587
57.441
57.245
57.099
56.903
56.757
56.61
56.561
56.415
56.317
56.122
55.975
55.878
55.682
55.536
55.438
55.292
55.096
54.901
54.657
54.51
54.217
53.973
53.68
53.484
53.533
54.51
57.294
63.009
71.996
83.279
95.49
107.36
118.11
127.19
134.22
139.16
142.14
143.36
143.36
142.43
140.92
139.01
136.81
134.61
132.42
130.32
128.41
126.7
125.14
123.67
122.31
120.94
119.42
117.67
115.61
113.12
110.05
106.53
102.57
98.225
93.683
89.189
84.989
81.277
78.297
76.05
74.487
73.559
73.12
73.168
73.51
73.999
74.536
74.976
75.22
75.366
75.366
75.122
74.731
74.243
73.608
72.924
72.192
71.361
70.629
69.798
69.066
68.235
67.405
66.672
65.94
65.158
64.425
63.742
63.058
62.423
61.788
61.299
60.811
60.42
60.029
59.736
59.443
59.15
58.906
58.662
58.466
58.222
58.027
57.929
57.783
57.587
57.441
57.294
57.099
56.903
56.757
56.464
56.317
56.122
55.926
55.78
55.633
55.487
55.292
55.096
54.998
54.852
54.657
54.51
54.217
54.07
53.777
53.68
53.729
54.412
56.415
60.86
68.382
78.541
90.215
102.18
113.37
123.23
131.2
137.06
140.72
142.62
142.92
142.14
140.48
138.33
135.88
133.34
130.95
128.56
126.36
124.36
122.6
120.99
119.42
117.81
116.1
114.2
111.85
109.17
106.04
102.47
98.47
94.171
89.922
85.868
82.253
79.323
77.027
75.562
74.683
74.341
74.438
74.731
75.22
75.757
76.197
76.441
76.539
76.49
76.294
75.855
75.366
74.683
73.901
73.071
72.24
71.312
70.433
69.554
68.675
67.796
66.965
66.184
65.353
64.621
63.937
63.253
62.618
62.032
61.544
61.104
60.664
60.322
59.932
59.541
59.248
58.906
58.662
58.369
58.124
57.88
57.587
57.441
57.245
57.001
56.806
56.659
56.464
56.317
56.122
55.926
55.78
55.682
55.536
55.438
55.292
55.194
55.047
54.901
54.803
54.608
54.412
54.168
53.973
53.729
53.533
53.533
54.07
55.78
60.029
67.6
78.102
90.362
102.82
114.49
124.75
133
139.06
143.02
145.12
145.75
145.31
144.14
142.48
140.62
138.62
136.57
134.66
132.81
131.05
129.44
127.83
126.31
124.85
123.28
121.67
119.81
117.67
115.08
112.05
108.48
104.48
100.13
95.539
90.997
86.845
83.182
80.153
78.004
76.441
75.464
75.122
75.122
75.366
75.757
76.099
76.49
76.685
76.734
76.636
76.343
75.904
75.366
74.683
73.999
73.168
72.387
71.557
70.726
69.945
69.114
68.284
67.503
66.721
65.94
65.158
64.425
63.693
63.107
62.569
62.032
61.592
61.251
60.86
60.567
60.225
59.981
59.785
59.541
59.297
59.053
58.808
58.613
58.418
58.32
58.124
57.929
57.783
57.685
57.49
57.294
57.05
56.855
56.659
56.464
56.366
56.22
56.073
55.926
55.731
55.536
55.292
55.047
54.803
54.608
54.412
54.51
55.047
57.001
61.251
68.626
78.737
90.557
102.67
114.1
124.16
132.32
138.33
142.19
144.14
144.48
143.75
142.19
140.04
137.74
135.3
132.95
130.61
128.56
126.7
124.94
123.38
121.87
120.3
118.59
116.69
114.49
111.8
108.73
105.16
101.25
97.004
92.608
88.359
84.5
81.228
78.688
76.881
75.66
75.122
75.073
75.22
75.66
76.099
76.539
76.929
77.125
77.174
76.978
76.685
76.099
75.464
74.731
73.901
73.071
72.192
71.215
70.287
69.407
68.528
67.698
66.868
66.037
65.256
64.474
63.839
63.253
62.667
62.13
61.69
61.251
60.811
60.42
60.127
59.736
59.443
59.101
58.857
58.613
58.369
58.124
57.929
57.685
57.49
57.294
57.099
56.903
56.757
56.561
56.366
56.171
55.975
55.878
55.731
55.536
55.438
55.292
55.096
54.901
54.754
54.51
54.168
53.875
53.533
53.24
53.24
53.973
56.61
62.227
71.215
82.791
95.344
107.6
118.79
128.17
135.49
140.57
143.55
144.82
144.82
143.8
142.28
140.43
138.47
136.57
134.76
133.1
131.68
130.41
129.24
128.07
126.85
125.63
124.11
122.45
120.35
117.91
115.08
111.66
107.8
103.55
99.007
94.318
89.727
85.477
81.863
78.932
76.783
75.366
74.536
74.292
74.487
74.927
75.415
75.904
76.343
76.636
76.734
76.636
76.294
75.855
75.318
74.634
73.852
73.071
72.192
71.361
70.482
69.652
68.87
68.089
67.307
66.526
65.842
65.158
64.572
63.937
63.351
62.814
62.276
61.788
61.348
60.909
60.567
60.225
59.932
59.59
59.346
59.101
58.857
58.662
58.418
58.173
57.978
57.783
57.587
57.441
57.245
57.05
56.903
56.757
56.61
56.561
56.464
56.366
56.317
56.171
56.073
55.878
55.682
55.438
55.194
54.852
54.657
54.852
55.975
59.053
65.06
74.194
85.624
97.884
109.8
120.6
129.68
136.67
141.55
144.48
145.7
145.7
144.73
143.26
141.45
139.45
137.35
135.44
133.54
131.88
130.22
128.8
127.39
126.07
124.6
123.04
121.23
119.18
116.69
113.66
110.24
106.28
101.99
97.444
92.853
88.506
84.549
81.374
78.883
77.223
76.246
75.806
75.806
76.197
76.685
77.32
77.809
78.199
78.346
78.297
78.053
77.613
76.978
76.294
75.464
74.634
73.657
72.729
71.801
70.873
69.945
68.968
68.089
67.258
66.428
65.695
65.012
64.279
63.742
63.107
62.618
62.179
61.739
61.348
61.006
60.664
60.42
60.176
59.932
59.59
59.346
59.15
58.906
58.759
58.466
58.32
58.124
57.929
57.734
57.538
57.343
57.196
57.001
56.806
56.659
56.464
56.366
56.22
56.122
55.926
55.731
55.536
55.34
55.194
55.047
55.243
56.073
58.564
63.742
72.192
83.426
95.93
108.43
119.91
129.73
137.45
142.87
146.19
147.75
148
147.26
145.95
144.29
142.58
140.72
139.06
137.45
135.98
134.66
133.44
132.22
131
129.73
128.31
126.75
124.8
122.5
119.77
116.54
112.88
108.73
104.23
99.495
94.758
90.215
86.259
82.937
80.446
78.688
77.662
77.32
77.369
77.76
78.297
78.883
79.372
79.665
79.811
79.762
79.372
78.883
78.248
77.418
76.539
75.611
74.683
73.657
72.729
71.752
70.824
69.945
69.066
68.235
67.405
66.721
66.037
65.353
64.718
64.181
63.595
63.107
62.618
62.227
61.788
61.446
61.055
60.713
60.42
60.127
59.785
59.492
59.248
59.004
58.808
58.564
58.369
58.173
57.978
57.734
57.538
57.343
57.196
57.001
56.757
56.561
56.366
56.171
55.975
55.78
55.633
55.438
55.243
54.998
54.754
54.608
54.754
55.682
58.32
63.79
72.485
83.719
96.076
108.09
119.18
128.51
135.74
140.82
143.85
145.16
145.26
144.38
142.87
141.06
139.11
137.06
135.1
133.2
131.49
129.88
128.36
126.85
125.38
123.82
122.11
120.16
118.01
115.37
112.24
108.68
104.67
100.23
95.637
91.045
86.796
83.23
80.3
78.199
76.685
75.806
75.415
75.464
75.757
76.099
76.441
76.685
76.783
76.783
76.636
76.246
75.757
75.171
74.487
73.755
72.973
72.192
71.361
70.482
69.652
68.821
67.991
67.258
66.428
65.695
64.914
64.181
63.497
62.862
62.227
61.69
61.153
60.713
60.42
60.029
59.785
59.541
59.346
59.15
59.004
58.808
58.613
58.369
58.173
57.978
57.783
57.587
57.441
57.245
57.05
56.806
56.61
56.415
56.22
56.073
55.926
55.78
55.682
55.536
55.34
55.243
55.096
54.901
54.754
54.559
54.363
54.217
54.217
54.608
55.926
59.101
65.109
74.194
85.379
97.444
109.12
119.62
128.36
135.05
139.5
141.89
142.48
141.79
140.23
138.03
135.64
133
130.51
128.07
125.87
123.82
121.87
120.06
118.2
116.3
114.2
111.76
108.97
105.8
102.18
98.225
94.123
89.922
85.966
82.547
79.811
77.809
76.539
75.904
75.904
76.246
76.881
77.467
78.053
78.492
78.737
78.737
78.541
78.248
77.662
76.978
76.197
75.318
74.438
73.51
72.533
71.654
70.726
69.847
68.968
68.186
67.356
66.623
65.94
65.256
64.621
63.986
63.448
62.911
62.472
62.13
61.739
61.348
61.055
60.713
60.42
60.127
59.883
59.59
59.346
59.15
58.906
58.662
58.466
58.222
58.027
57.929
57.783
57.685
57.538
57.343
57.245
57.05
56.855
56.757
56.561
56.366
56.171
56.073
55.878
55.731
55.536
55.34
55.194
54.901
54.754
54.559
54.608
55.34
57.734
62.862
71.508
82.84
95.539
108.19
119.81
129.63
137.35
142.82
146.14
147.75
148
147.31
146.14
144.58
142.82
141.01
139.3
137.69
136.18
134.86
133.64
132.42
131.24
130.07
128.75
127.24
125.58
123.48
120.99
118.06
114.54
110.53
106.14
101.45
96.662
92.071
87.919
84.5
81.716
79.762
78.492
77.858
77.76
78.004
78.444
78.932
79.323
79.616
79.762
79.616
79.323
78.786
78.199
77.418
76.539
75.66
74.731
73.803
72.924
72.045
71.166
70.384
69.554
68.724
67.991
67.258
66.526
65.94
65.305
64.718
64.23
63.742
63.253
62.814
62.423
62.032
61.69
61.348
61.055
60.713
60.42
60.176
59.932
59.687
59.492
59.297
59.101
58.906
58.759
58.564
58.32
58.027
57.783
57.538
57.294
57.001
56.757
56.415
56.171
55.926
55.633
55.34
55.096
54.852
54.608
54.51
54.559
55.292
57.538
62.472
70.677
81.57
93.732
105.94
117.03
126.56
134.08
139.35
142.67
144.19
144.43
143.7
142.23
140.48
138.57
136.57
134.66
132.86
131.24
129.83
128.51
127.29
126.12
124.85
123.48
121.87
119.86
117.42
114.49
110.97
106.97
102.57
97.884
93.097
88.701
84.745
81.472
79.03
77.369
76.441
76.001
76.001
76.294
76.734
77.223
77.662
77.906
78.004
77.858
77.564
77.125
76.49
75.855
75.122
74.341
73.559
72.729
71.947
71.117
70.287
69.505
68.626
67.796
67.063
66.281
65.549
64.914
64.279
63.742
63.253
62.716
62.374
62.032
61.739
61.446
61.153
60.909
60.713
60.469
60.322
60.029
59.785
59.59
59.346
59.101
58.857
58.662
58.466
58.222
58.027
57.783
57.538
57.343
57.196
57.001
56.855
56.659
56.561
56.366
56.171
55.926
55.682
55.487
55.292
55.194
55.292
56.073
58.32
63.058
70.922
81.472
93.439
105.41
116.64
126.26
133.88
139.35
142.72
144.38
144.63
143.8
142.23
140.33
138.13
135.88
133.69
131.63
129.68
127.92
126.36
124.85
123.43
122.01
120.5
118.79
116.88
114.44
111.41
107.85
103.84
99.544
95.051
90.655
86.698
83.279
80.69
78.883
77.76
77.174
77.027
77.32
77.662
78.102
78.492
78.737
78.786
78.737
78.444
78.004
77.418
76.734
75.904
75.073
74.194
73.315
72.387
71.508
70.629
69.749
68.87
68.089
67.307
66.623
65.94
65.256
64.67
64.132
63.595
63.155
62.716
62.374
61.983
61.69
61.299
61.006
60.664
60.371
60.029
59.785
59.541
59.346
59.101
58.906
58.759
58.613
58.418
58.222
58.027
57.88
57.685
57.49
57.294
57.099
56.903
56.806
56.659
56.561
56.415
56.317
56.171
56.073
55.926
55.731
55.682
55.975
57.196
60.42
66.672
76.197
87.968
100.67
112.88
123.82
132.86
139.74
144.38
146.97
148.05
147.95
147.07
145.7
143.99
142.19
140.43
138.77
137.11
135.69
134.42
133.34
132.32
131.29
130.22
129.05
127.68
125.97
123.82
121.13
117.91
114.1
109.85
105.26
100.33
95.441
90.85
86.796
83.475
80.984
79.176
78.199
77.809
77.858
78.297
78.883
79.469
79.909
80.251
80.349
80.153
79.811
79.225
78.541
77.662
76.734
75.806
74.78
73.803
72.778
71.85
70.97
70.091
69.261
68.431
67.6
66.868
66.184
65.549
65.012
64.425
63.937
63.497
63.058
62.618
62.227
61.885
61.544
61.251
60.909
60.664
60.42
60.176
59.932
59.736
59.541
59.443
59.248
59.101
58.906
58.759
58.564
58.418
58.222
58.027
57.88
57.734
143.75
142.04
140.18
138.13
136.18
134.32
132.61
131.05
129.63
128.31
127.04
125.82
124.55
123.04
121.18
118.94
116.2
112.88
109.07
104.67
99.984
95.197
90.557
86.308
82.742
80.007
78.004
76.685
76.05
75.855
76.001
76.343
76.734
77.125
77.32
77.418
77.32
77.125
76.685
76.197
75.562
74.78
74.048
73.315
72.485
71.752
70.922
70.091
69.31
68.479
67.698
66.916
66.184
65.402
64.718
64.035
63.448
62.862
62.276
61.788
61.348
61.006
60.664
60.42
60.176
59.932
59.59
59.443
59.15
59.004
58.759
58.564
58.369
58.222
58.027
57.929
57.783
57.587
57.49
57.294
57.196
57.001
56.855
56.659
56.561
56.366
56.171
55.975
55.78
55.633
55.34
55.096
54.852
54.657
54.657
55.292
57.245
61.544
68.919
79.127
90.948
103.06
114.49
124.41
132.51
138.33
141.99
143.8
144.04
143.31
141.7
139.6
137.3
135.01
132.66
130.56
128.56
126.75
125.04
123.43
121.87
120.25
118.5
116.44
114
111.12
107.75
103.84
99.691
95.295
90.997
86.991
83.475
80.69
78.688
77.369
76.734
76.636
76.783
77.223
77.809
78.248
78.541
78.737
78.688
78.492
78.102
77.613
76.929
76.197
75.366
74.487
73.608
72.68
71.801
70.873
69.994
69.163
68.382
67.6
66.868
66.184
65.5
64.865
64.23
63.693
63.107
62.667
62.227
61.885
61.495
61.153
60.86
60.616
60.322
60.029
59.785
59.59
59.443
59.248
59.053
58.857
58.662
58.564
58.369
58.173
58.027
57.88
57.685
57.49
57.294
57.099
57.001
56.855
56.659
56.561
56.415
56.317
56.122
55.926
55.682
55.487
55.292
55.292
55.731
57.343
61.446
68.724
79.176
91.534
104.38
116.35
126.95
135.44
141.7
145.75
148
148.68
148.39
147.31
145.85
144.19
142.48
140.72
139.11
137.59
136.18
134.91
133.74
132.61
131.44
130.17
128.75
127.14
125.19
122.79
120.01
116.64
112.73
108.43
103.79
98.909
94.171
89.678
85.868
82.742
80.446
78.883
78.004
77.809
78.004
78.492
79.03
79.616
80.007
80.251
80.251
80.007
79.567
78.981
78.248
77.418
76.49
75.562
74.536
73.608
72.68
71.752
70.873
70.042
69.163
68.431
67.698
66.916
66.281
65.695
65.06
64.474
63.937
63.497
63.058
62.667
62.276
61.983
61.592
61.299
61.055
60.811
60.567
60.322
60.127
59.883
59.687
59.492
59.248
59.053
58.808
58.613
58.418
58.222
58.027
57.88
57.685
57.49
57.294
57.196
57.001
56.806
56.61
56.415
56.171
55.975
55.78
55.682
56.073
57.49
61.104
67.844
77.858
89.873
102.43
114.44
124.94
133.49
139.94
144.19
146.48
147.31
146.97
146
144.43
142.67
140.82
138.91
137.2
135.54
134.13
132.81
131.63
130.41
129.29
128.07
126.7
124.99
122.99
120.55
117.62
114.1
110.05
105.55
100.72
95.881
91.192
86.991
83.426
80.593
78.688
77.418
76.881
76.783
77.125
77.613
78.199
78.688
79.03
79.176
79.03
78.688
78.199
77.418
76.636
75.757
74.731
73.803
72.875
71.947
70.97
70.042
69.261
68.431
67.6
66.819
66.037
65.353
64.67
64.035
63.351
62.814
62.276
61.788
61.446
61.055
60.664
60.371
60.029
59.785
59.541
59.346
59.101
58.857
58.613
58.369
58.173
57.978
57.783
57.685
57.441
57.245
57.05
56.806
56.61
56.366
56.122
55.926
55.682
55.487
55.292
55.096
54.852
54.608
54.363
54.119
53.777
53.484
53.289
53.191
53.435
54.412
57.05
62.374
70.873
81.912
94.171
106.19
117.13
126.31
133.3
137.98
140.62
141.5
141.06
139.69
137.74
135.54
133.3
131.1
129.09
127.24
125.58
124.02
122.6
121.38
120.01
118.5
116.69
114.49
111.8
108.63
104.87
100.72
96.321
91.778
87.48
83.719
80.69
78.346
76.881
76.05
75.757
75.855
76.294
76.783
77.369
77.858
78.199
78.248
78.199
77.906
77.564
76.929
76.246
75.415
74.634
73.755
72.778
71.947
71.068
70.091
69.261
68.431
67.6
66.819
66.037
65.353
64.718
64.132
63.546
63.058
62.569
62.179
61.739
61.348
61.006
60.664
60.371
60.029
59.736
59.492
59.297
59.053
58.857
58.613
58.418
58.222
57.978
57.783
57.587
57.441
57.245
57.05
56.855
56.659
56.464
56.317
56.122
55.926
55.731
55.536
55.438
55.243
55.047
54.852
54.657
54.51
54.315
54.119
54.07
54.217
55.292
58.222
64.279
73.657
85.624
98.47
110.92
122.11
131.44
138.47
143.31
146.19
147.36
147.41
146.63
145.36
143.85
142.23
140.62
139.06
137.54
136.23
135.01
133.88
132.76
131.68
130.61
129.39
127.92
126.16
124.06
121.48
118.45
114.78
110.63
106.14
101.3
96.418
91.778
87.48
83.914
81.13
79.127
77.906
77.369
77.369
77.662
78.199
78.688
79.03
79.323
79.372
79.176
78.786
78.248
77.564
76.734
75.904
74.976
74.048
73.12
72.192
71.215
70.384
69.505
68.626
67.796
66.965
66.233
65.5
64.816
64.181
63.595
63.058
62.472
61.983
61.544
61.153
60.811
60.567
60.225
59.932
59.687
59.346
59.101
58.857
58.613
58.418
58.173
57.929
57.783
57.587
57.441
57.196
57.001
56.757
56.561
56.317
56.122
55.926
55.731
55.536
55.34
55.194
54.901
54.754
54.51
54.217
53.924
53.68
53.435
53.289
53.484
54.608
57.538
63.302
72.24
83.572
95.881
107.8
118.54
127.48
134.22
138.86
141.45
142.38
142.04
140.92
139.3
137.35
135.3
133.25
131.39
129.68
128.12
126.75
125.43
124.26
123.04
121.72
120.3
118.54
116.49
113.9
110.88
107.26
103.26
98.86
94.367
89.922
85.868
82.302
79.567
77.613
76.343
75.757
75.562
75.757
76.099
76.636
77.125
77.418
77.662
77.662
77.564
77.223
76.783
76.197
75.464
74.731
73.901
73.071
72.094
71.166
70.287
69.359
68.528
67.698
66.916
66.184
65.5
64.816
64.181
63.546
63.009
62.472
61.983
61.592
61.251
60.909
60.616
60.322
60.029
59.785
59.541
59.297
59.053
58.808
58.564
58.369
58.124
57.929
57.685
57.49
57.294
57.099
56.903
56.757
56.561
56.415
56.22
56.073
55.878
55.731
55.633
55.487
55.34
55.243
55.047
54.852
54.657
54.51
54.363
54.315
54.852
56.757
61.055
68.675
79.372
91.778
104.43
116.25
126.41
134.66
140.67
144.58
146.68
147.41
147.17
146.24
144.92
143.46
141.89
140.33
138.81
137.45
136.18
135.1
134.13
133.05
131.98
130.8
129.44
127.87
125.92
123.62
120.74
117.42
113.56
109.31
104.67
99.935
95.197
90.752
86.845
83.719
81.374
79.762
78.786
78.444
78.492
78.883
79.372
79.811
80.153
80.349
80.446
80.153
79.811
79.225
78.541
77.76
76.783
75.855
74.927
73.999
73.12
72.192
71.312
70.433
69.652
68.87
68.089
67.405
66.721
66.037
65.402
64.914
64.425
63.937
63.497
63.107
62.667
62.374
61.983
61.592
61.251
60.86
60.42
60.029
59.687
59.297
58.906
58.613
58.32
57.978
57.734
57.49
57.245
57.001
56.806
56.561
56.317
56.073
55.878
55.682
55.487
55.34
55.243
55.047
54.901
54.657
54.363
54.119
53.777
53.533
53.533
54.217
56.561
61.69
70.042
81.032
93.292
105.36
116.35
125.63
132.95
138.03
141.26
142.82
143.11
142.48
141.31
139.74
138.03
136.32
134.61
133.05
131.63
130.36
129.24
128.17
127.14
125.97
124.75
123.23
121.43
119.18
116.44
113.12
109.31
105.01
100.37
95.686
91.045
86.796
83.133
80.251
78.102
76.685
75.904
75.757
76.001
76.49
77.027
77.613
78.053
78.248
78.297
78.199
77.858
77.418
76.734
76.05
75.22
74.341
73.51
72.68
71.801
70.922
70.042
69.163
68.284
67.503
66.672
65.94
65.256
64.572
63.986
63.448
62.862
62.374
61.934
61.544
61.251
60.909
60.616
60.371
60.127
59.883
59.59
59.443
59.248
59.053
58.857
58.662
58.466
58.32
58.124
57.929
57.734
57.538
57.343
57.196
57.001
56.806
56.61
56.415
56.22
56.122
55.926
55.682
55.487
55.292
55.047
54.852
54.608
54.559
54.803
56.073
59.346
65.744
75.366
87.138
99.593
111.61
122.26
130.95
137.5
141.94
144.58
145.7
145.6
144.73
143.46
141.89
140.18
138.47
136.86
135.44
134.08
132.86
131.68
130.61
129.49
128.26
126.95
125.29
123.28
120.94
118.01
114.54
110.63
106.24
101.5
96.662
92.071
87.919
84.5
81.814
79.909
78.688
78.102
78.004
78.248
78.59
79.03
79.469
79.762
79.86
79.762
79.421
78.932
78.297
77.564
76.734
75.855
74.927
74.048
73.12
72.24
71.361
70.531
69.798
69.066
68.284
67.551
66.916
66.281
65.744
65.158
64.621
64.181
63.742
63.351
63.009
62.618
62.227
61.934
61.544
61.299
61.006
60.713
60.469
60.322
60.127
59.932
59.736
59.59
59.443
59.297
59.101
58.906
58.808
58.613
58.418
58.222
58.124
57.929
57.734
57.538
57.343
57.196
57.05
56.903
56.757
56.464
56.171
55.975
55.926
56.366
58.124
62.13
69.163
79.225
91.192
103.5
115.13
125.29
133.54
139.6
143.6
145.8
146.68
146.53
145.75
144.48
143.06
141.45
139.79
138.33
136.86
135.64
134.42
133.3
132.32
131.24
129.97
128.61
126.95
124.94
122.35
119.37
115.76
111.61
106.97
102.18
97.249
92.511
88.261
84.696
81.863
79.86
78.59
78.004
77.809
78.004
78.444
78.883
79.323
79.567
79.665
79.567
79.176
78.59
77.906
77.125
76.246
75.318
74.341
73.364
72.436
71.508
70.531
69.603
68.821
67.991
67.161
66.477
65.793
65.109
64.474
63.937
63.448
62.862
62.374
61.934
61.495
61.153
60.811
60.469
60.176
59.883
59.59
59.346
59.101
58.857
58.613
58.369
58.173
57.929
57.734
57.538
57.343
57.196
56.903
56.757
56.464
56.317
56.122
55.926
55.731
55.536
55.34
55.194
54.998
54.754
54.51
54.217
53.924
53.68
53.435
53.191
53.094
53.24
54.07
56.22
60.909
68.724
79.323
91.241
103.11
114.05
123.38
130.61
135.69
138.67
139.94
139.89
138.86
137.25
135.35
133.3
131.39
129.53
127.87
126.31
124.94
123.58
122.31
120.94
119.42
117.62
115.47
112.93
109.85
106.24
102.23
97.932
93.488
89.189
85.379
82.156
79.811
78.102
77.174
76.734
76.783
77.125
77.564
78.053
78.444
78.688
78.737
78.688
78.346
77.906
77.32
76.636
75.855
74.976
74.097
73.217
72.387
71.508
70.629
69.749
68.919
68.089
67.356
66.623
65.94
65.305
64.67
64.132
63.595
63.155
62.716
62.276
61.934
61.544
61.251
60.86
60.567
60.322
60.029
59.785
59.541
59.346
59.101
58.857
58.613
58.418
58.173
57.929
57.685
57.49
57.294
57.196
57.001
56.757
56.561
56.317
56.122
55.926
55.78
55.633
55.438
55.292
55.096
54.901
54.803
54.608
54.363
54.168
54.07
54.07
54.608
56.464
60.86
68.626
79.421
91.876
104.43
116.05
126.16
134.22
140.04
143.8
145.85
146.53
146.24
145.36
144.14
142.72
141.31
139.89
138.47
137.3
136.18
135.1
134.13
133.05
131.93
130.66
129.24
127.53
125.58
123.14
120.25
116.88
113.07
108.82
104.23
99.495
94.806
90.508
86.698
83.621
81.277
79.616
78.59
78.199
78.102
78.346
78.688
78.981
79.225
79.323
79.225
78.981
78.541
78.004
77.32
76.539
75.757
74.878
73.901
72.973
72.045
71.117
70.189
69.31
68.479
67.698
66.868
66.135
65.402
64.718
64.132
63.497
63.009
62.472
61.983
61.544
61.153
60.811
60.469
60.176
59.883
59.59
59.443
59.15
59.004
58.808
58.613
58.418
58.222
58.027
57.88
57.734
57.538
57.343
57.196
56.903
56.757
56.464
56.317
56.122
55.926
55.731
55.536
55.438
55.243
54.998
54.803
54.559
54.315
54.07
53.875
53.875
54.217
55.536
58.808
65.06
74.292
85.819
97.981
109.8
120.35
129.19
135.88
140.43
143.06
144.04
143.85
142.82
141.26
139.35
137.35
135.44
133.64
131.88
130.32
128.95
127.68
126.51
125.38
124.11
122.55
120.69
118.35
115.47
112.19
108.29
103.99
99.447
94.855
90.508
86.601
83.426
81.032
79.372
78.444
78.004
78.004
78.248
78.59
78.981
79.225
79.421
79.421
79.323
78.932
78.444
77.809
77.125
76.294
75.464
74.634
73.657
72.778
71.947
71.117
70.287
69.505
68.675
67.942
67.161
66.428
65.793
65.158
64.621
64.035
63.595
63.107
62.716
62.276
61.983
61.592
61.348
61.055
60.86
60.616
60.371
60.127
59.883
59.59
59.346
59.101
58.857
58.662
58.466
58.32
58.124
57.88
57.685
57.49
57.245
57.05
56.855
146.43
146.68
146.14
145.12
143.8
142.38
140.87
139.45
138.13
136.91
135.88
134.91
134.08
133.1
132.12
130.85
129.39
127.48
125.19
122.45
119.23
115.57
111.41
106.92
102.13
97.297
92.657
88.506
84.989
82.253
80.153
78.932
78.248
78.004
78.102
78.346
78.688
78.932
79.127
79.127
78.932
78.541
78.053
77.418
76.685
75.855
75.073
74.097
73.217
72.289
71.41
70.531
69.652
68.87
68.04
67.258
66.477
65.744
65.012
64.377
63.742
63.155
62.667
62.179
61.739
61.348
61.006
60.664
60.371
60.127
59.883
59.59
59.346
59.15
58.906
58.662
58.466
58.369
58.173
57.978
57.783
57.587
57.441
57.245
57.001
56.757
56.464
56.22
56.073
55.78
55.633
55.438
55.243
55.047
54.852
54.608
54.412
54.168
53.924
53.729
53.533
53.631
54.119
55.78
59.736
66.868
76.929
88.799
101.06
112.63
122.7
130.8
136.76
140.57
142.58
143.02
142.38
141.06
139.3
137.35
135.35
133.34
131.54
129.93
128.41
127.04
125.72
124.41
123.04
121.48
119.57
117.23
114.44
111.12
107.31
103.06
98.567
93.976
89.678
85.868
82.742
80.349
78.688
77.76
77.32
77.32
77.467
77.906
78.297
78.688
78.883
78.883
78.688
78.346
77.906
77.32
76.539
75.806
74.927
74.048
73.168
72.289
71.41
70.531
69.749
68.919
68.089
67.356
66.623
65.94
65.305
64.67
64.132
63.595
63.107
62.667
62.227
61.788
61.446
61.055
60.664
60.371
60.127
59.785
59.541
59.297
59.053
58.857
58.613
58.418
58.222
58.027
57.88
57.685
57.49
57.294
57.099
56.903
56.757
56.464
56.317
56.073
55.878
55.682
55.487
55.34
55.194
55.047
54.852
54.754
54.559
54.412
54.217
54.168
54.168
54.803
56.806
61.446
69.505
80.446
92.804
105.26
116.69
126.6
134.61
140.38
144.04
146.04
146.73
146.63
145.8
144.63
143.26
141.79
140.43
139.06
137.89
136.81
135.88
134.91
133.98
133
131.88
130.56
129
127.14
124.8
122.06
118.79
115.13
110.92
106.38
101.55
96.76
92.169
88.066
84.598
81.863
79.909
78.59
78.004
77.809
77.858
78.199
78.492
78.786
78.932
78.932
78.737
78.444
77.906
77.32
76.539
75.757
74.927
74.048
73.12
72.192
71.215
70.287
69.407
68.626
67.747
66.965
66.233
65.5
64.865
64.279
63.693
63.155
62.618
62.179
61.739
61.348
61.006
60.616
60.225
59.932
59.687
59.346
59.101
58.857
58.613
58.369
58.173
57.929
57.734
57.538
57.343
57.196
56.903
56.757
56.464
56.317
56.073
55.878
55.682
55.438
55.243
55.047
54.852
54.608
54.363
54.119
53.875
53.533
53.289
53.094
53.045
53.289
54.315
57.05
62.569
71.312
82.449
94.562
106.28
116.93
125.82
132.61
137.35
140.13
141.26
141.16
140.23
138.77
137.01
135.05
133.1
131.29
129.63
128.17
126.85
125.72
124.7
123.67
122.6
121.38
119.81
117.91
115.47
112.63
109.12
105.16
100.81
96.321
91.778
87.626
84.012
81.032
78.883
77.418
76.539
76.197
76.246
76.441
76.783
77.174
77.564
77.809
77.858
77.76
77.369
76.929
76.343
75.66
74.878
74.048
73.168
72.289
71.41
70.531
69.652
68.821
67.991
67.258
66.477
65.744
65.109
64.474
63.937
63.351
62.911
62.472
62.032
61.69
61.348
61.055
60.713
60.42
60.176
59.981
59.785
59.541
59.346
59.15
59.004
58.857
58.662
58.466
58.32
58.124
57.929
57.783
57.587
57.538
57.441
57.294
57.245
57.196
57.099
57.001
56.903
56.855
56.806
56.659
56.61
56.464
56.366
56.171
55.975
55.926
56.122
57.001
59.59
65.06
73.803
84.989
97.297
109.36
120.3
129.53
136.67
141.7
144.92
146.63
146.87
146.19
145.16
143.94
142.62
141.35
140.23
139.16
138.18
137.25
136.32
135.35
134.37
133.3
132.07
130.61
129
126.95
124.55
121.67
118.3
114.44
110.09
105.41
100.62
95.783
91.29
87.382
84.11
81.667
80.007
78.981
78.541
78.541
78.883
79.225
79.665
80.007
80.104
80.104
79.86
79.421
78.883
78.199
77.418
76.539
75.757
74.878
73.901
72.973
72.094
71.166
70.238
69.359
68.431
67.503
66.672
65.793
65.012
64.23
63.546
62.911
62.276
61.739
61.251
60.811
60.42
60.127
59.785
59.492
59.15
58.906
58.759
58.466
58.222
58.027
57.783
57.538
57.294
57.05
56.855
56.61
56.366
56.122
55.878
55.633
55.438
55.194
54.998
54.803
54.608
54.363
54.168
53.924
53.68
53.435
53.094
52.8
52.556
52.41
52.8
54.168
57.734
64.377
73.999
85.477
97.444
108.82
118.89
127.19
133.44
137.59
140.04
140.92
140.82
139.94
138.57
136.86
135.1
133.3
131.63
130.07
128.7
127.43
126.26
125.04
123.87
122.55
120.99
119.18
116.93
114.3
111.17
107.55
103.55
99.154
94.66
90.166
86.063
82.449
79.567
77.369
75.904
75.073
74.683
74.683
74.976
75.366
75.806
76.197
76.441
76.49
76.343
76.099
75.66
75.171
74.536
73.803
73.071
72.24
71.41
70.531
69.652
68.87
67.991
67.161
66.379
65.598
64.865
64.23
63.595
63.058
62.472
61.983
61.544
61.153
60.811
60.469
60.176
59.932
59.687
59.443
59.15
58.857
58.613
58.369
58.124
57.88
57.685
57.441
57.196
56.903
56.757
56.464
56.317
56.122
55.926
55.731
55.536
55.34
55.194
54.998
54.901
54.803
54.754
54.608
54.51
54.315
54.119
53.924
53.729
53.68
53.875
54.852
57.587
63.302
72.192
83.475
95.734
107.7
118.45
127.48
134.52
139.45
142.48
143.94
144.29
143.8
142.72
141.45
139.89
138.33
136.76
135.25
133.88
132.51
131.29
130.12
128.95
127.68
126.31
124.75
122.94
120.74
118.2
115.08
111.51
107.41
103.01
98.372
93.683
89.287
85.428
82.156
79.762
78.053
76.929
76.441
76.343
76.539
76.881
77.223
77.564
77.662
77.662
77.467
77.174
76.734
76.099
75.366
74.634
73.755
72.924
72.045
71.166
70.287
69.407
68.626
67.796
66.965
66.281
65.598
64.914
64.279
63.693
63.107
62.618
62.13
61.69
61.251
60.86
60.469
60.127
59.785
59.492
59.15
58.906
58.613
58.369
58.173
57.929
57.685
57.441
57.245
57.001
56.806
56.61
56.415
56.317
56.122
55.926
55.731
55.536
55.438
55.243
55.096
54.998
54.803
54.657
54.559
54.315
54.119
53.924
53.777
53.68
53.924
55.047
58.173
64.279
73.559
85.038
97.249
108.87
119.33
127.97
134.61
139.11
141.79
143.02
143.06
142.38
141.16
139.6
137.98
136.23
134.52
132.76
131.1
129.63
128.17
126.85
125.58
124.16
122.7
120.94
118.89
116.35
113.42
109.95
105.94
101.5
96.858
92.169
87.724
83.816
80.593
78.199
76.49
75.415
74.878
74.731
74.878
75.122
75.415
75.66
75.855
75.904
75.757
75.464
74.976
74.438
73.755
72.973
72.24
71.41
70.629
69.798
68.968
68.235
67.405
66.623
65.842
65.158
64.474
63.839
63.302
62.814
62.276
61.885
61.446
61.055
60.713
60.371
60.029
59.736
59.443
59.15
58.906
58.662
58.466
58.32
58.124
57.929
57.783
57.587
57.49
57.294
57.196
57.001
56.757
56.561
56.22
55.975
55.731
55.487
55.292
55.047
54.852
54.754
54.559
54.412
54.217
54.119
53.875
53.68
53.435
53.24
53.094
53.191
53.777
55.731
60.029
67.405
77.564
89.189
101.01
112
121.62
129.39
135.05
138.77
140.67
141.26
140.82
139.69
138.03
136.18
134.22
132.22
130.36
128.56
126.8
125.19
123.62
122.11
120.55
118.79
116.88
114.64
112
108.87
105.26
101.3
97.053
92.755
88.554
84.842
81.716
79.372
77.613
76.539
76.001
75.855
76.001
76.246
76.539
76.783
76.929
76.929
76.734
76.441
76.001
75.415
74.78
74.097
73.364
72.533
71.752
70.873
70.042
69.261
68.431
67.698
66.916
66.184
65.549
64.865
64.23
63.693
63.107
62.618
62.13
61.69
61.251
60.811
60.42
60.127
59.736
59.443
59.101
58.857
58.564
58.32
58.027
57.88
57.685
57.441
57.245
57.001
56.806
56.561
56.366
56.171
56.073
55.878
55.682
55.487
55.292
55.096
54.901
54.803
54.608
54.51
54.363
54.217
54.119
53.924
53.729
53.533
53.435
53.484
54.217
56.561
61.592
69.994
81.032
93.341
105.55
116.64
126.07
133.49
138.81
142.14
143.85
144.38
143.94
142.87
141.45
139.79
138.18
136.62
135.1
133.74
132.51
131.39
130.17
129.05
127.83
126.41
124.85
123.04
120.89
118.3
115.32
111.8
107.85
103.6
99.056
94.416
89.922
85.917
82.498
79.811
77.809
76.441
75.66
75.415
75.464
75.757
76.05
76.343
76.539
76.539
76.441
76.197
75.806
75.22
74.634
73.852
73.071
72.24
71.41
70.531
69.749
68.87
68.04
67.258
66.477
65.744
65.012
64.279
63.693
63.058
62.423
61.885
61.299
60.86
60.469
60.127
59.785
59.492
59.248
59.004
58.759
58.466
58.32
58.027
57.88
57.685
57.441
57.245
57.001
56.806
56.61
56.415
56.171
55.975
55.731
55.536
55.34
55.194
55.047
54.901
54.803
54.608
54.51
54.315
54.119
53.924
53.729
53.533
53.289
53.191
53.191
53.68
55.34
59.346
66.477
76.49
88.164
100.03
111.32
121.13
129.19
135.2
139.16
141.35
142.14
141.79
140.82
139.25
137.45
135.49
133.54
131.68
129.88
128.17
126.7
125.19
123.72
122.31
120.79
119.03
117.03
114.69
111.95
108.68
104.92
100.86
96.467
92.071
87.822
83.914
80.69
78.199
76.441
75.318
74.731
74.634
74.731
75.073
75.366
75.66
75.855
76.001
75.855
75.611
75.22
74.683
74.048
73.364
72.533
71.801
70.97
70.189
69.31
68.479
67.747
66.965
66.184
65.402
64.718
64.035
63.448
62.862
62.276
61.739
61.153
60.664
60.176
59.736
59.248
58.808
58.369
57.978
57.587
57.294
57.001
56.659
56.415
56.22
56.073
55.878
55.682
55.487
55.292
55.194
54.901
54.754
54.51
54.315
54.07
53.875
53.631
53.435
53.24
53.045
52.947
52.752
52.605
52.41
52.214
52.068
51.775
51.628
51.384
51.189
51.189
51.775
53.973
58.857
67.112
78.102
90.362
102.43
113.51
122.94
130.41
135.79
139.25
141.01
141.55
141.11
140.04
138.57
136.86
135.05
133.34
131.73
130.22
128.85
127.63
126.41
125.29
124.06
122.7
121.13
119.23
116.98
114.3
111.17
107.55
103.5
99.105
94.611
90.117
85.868
82.156
79.176
76.881
75.22
74.194
73.657
73.608
73.852
74.194
74.536
74.878
75.073
75.171
75.073
74.78
74.438
73.852
73.217
72.533
71.801
70.97
70.238
69.407
68.675
67.844
67.112
66.281
65.549
64.865
64.181
63.546
62.911
62.374
61.885
61.348
61.006
60.567
60.176
59.785
59.443
59.053
58.759
58.418
58.173
57.88
57.538
57.294
57.001
56.806
56.561
56.366
56.122
55.926
55.682
55.487
55.292
55.194
54.998
103.16
99.251
95.002
90.557
86.259
82.253
78.688
75.806
73.608
72.045
71.117
70.677
70.726
71.068
71.557
72.094
72.631
72.973
73.217
73.315
73.217
72.924
72.485
71.947
71.312
70.531
69.749
68.919
68.04
67.161
66.379
65.549
64.718
63.937
63.107
62.374
61.69
61.055
60.469
59.932
59.443
59.004
58.564
58.222
57.929
57.587
57.294
57.05
56.757
56.415
56.171
55.926
55.682
55.487
55.292
55.096
54.901
54.754
54.559
54.315
54.07
53.875
53.68
53.533
53.338
53.24
53.094
52.947
52.8
52.605
52.507
52.312
52.117
51.921
51.726
51.531
51.531
52.068
54.07
58.564
66.477
77.369
89.629
101.89
113.17
122.94
130.76
136.47
140.23
142.23
142.87
142.43
141.26
139.69
137.89
135.93
133.98
132.17
130.51
128.85
127.39
125.92
124.55
123.18
121.72
120.11
118.3
116.1
113.61
110.63
107.12
103.26
99.007
94.513
89.971
85.673
81.912
78.737
76.294
74.536
73.51
72.924
72.778
73.071
73.413
73.901
74.438
74.731
74.927
74.927
74.731
74.341
73.852
73.217
72.533
71.752
70.922
70.091
69.163
68.284
67.405
66.623
65.793
65.06
64.279
63.595
63.009
62.374
61.788
61.251
60.713
60.322
59.883
59.443
59.053
58.662
58.369
58.027
57.734
57.49
57.245
57.001
56.757
56.464
56.22
56.073
55.878
55.633
55.438
55.243
55.047
54.901
54.754
54.608
54.363
54.168
53.973
53.875
53.729
53.631
53.484
53.338
135.49
133.69
131.88
130.22
128.75
127.39
126.07
124.7
123.23
121.67
119.86
117.67
115.13
112.1
108.68
104.72
100.42
95.93
91.387
86.991
83.133
79.86
77.369
75.562
74.341
73.657
73.559
73.755
74.097
74.536
74.976
75.318
75.464
75.464
75.22
74.878
74.292
73.657
72.924
72.094
71.312
70.433
69.554
68.724
67.844
66.965
66.184
65.402
64.67
63.937
63.253
62.618
61.983
61.446
60.86
60.371
59.932
59.443
59.004
58.564
58.173
57.783
57.441
57.05
56.757
56.366
56.073
55.78
55.487
55.243
54.998
54.803
54.608
54.412
54.315
54.119
53.973
53.777
53.631
53.338
53.094
52.947
52.752
52.605
52.41
52.312
52.117
51.872
51.628
51.384
51.091
50.798
50.554
50.554
51.189
53.338
58.173
66.379
77.32
89.434
101.45
112.44
121.87
129.39
134.76
138.03
139.69
139.94
139.25
137.79
135.93
133.88
131.63
129.49
127.39
125.43
123.67
122.06
120.55
119.03
117.47
115.81
113.9
111.66
109.07
105.94
102.38
98.372
94.123
89.727
85.477
81.618
78.297
75.757
73.852
72.631
71.947
71.752
71.801
72.094
72.533
72.973
73.413
73.657
73.803
73.755
73.559
73.217
72.729
72.192
71.557
70.922
70.189
69.407
68.626
67.796
67.063
66.281
65.598
64.914
64.23
63.595
63.009
62.374
61.788
61.251
60.664
60.176
59.736
59.297
58.857
58.466
58.124
57.783
57.49
57.245
57.001
56.757
56.464
56.317
56.073
55.878
55.731
55.536
55.34
55.194
55.047
54.852
54.754
54.559
54.363
54.217
54.07
53.875
53.729
53.533
53.435
53.289
53.094
52.947
52.752
52.507
52.214
52.068
52.068
52.507
54.168
58.173
65.353
75.611
87.48
99.593
111.07
121.04
129.29
135.44
139.5
141.79
142.58
142.19
141.11
139.55
137.59
135.54
133.44
131.24
129.19
127.29
125.48
123.87
122.26
120.74
119.18
117.47
115.61
113.37
110.68
107.55
103.99
99.984
95.734
91.387
87.187
83.279
80.055
77.418
75.611
74.438
73.755
73.559
73.657
73.999
74.438
74.878
75.122
75.22
75.22
75.122
74.78
74.292
73.755
72.973
72.24
71.41
70.531
69.749
68.87
68.04
67.161
66.428
65.598
64.865
64.132
63.448
62.716
62.179
61.544
61.055
60.567
60.029
59.59
59.248
58.808
58.418
58.124
57.783
57.49
57.245
56.903
56.659
56.366
56.122
55.78
55.487
55.243
54.901
54.657
54.412
54.168
53.924
53.68
53.484
53.289
53.094
52.947
52.8
52.605
52.507
52.361
52.214
52.068
51.921
51.726
51.531
51.286
51.042
50.847
50.847
51.628
53.973
59.248
67.942
79.225
91.534
103.7
114.69
124.11
131.49
136.76
140.04
141.7
141.99
141.35
140.04
138.38
136.47
134.52
132.56
130.66
128.95
127.39
125.92
124.55
123.18
121.87
120.35
118.69
116.69
114.34
111.61
108.43
104.72
100.67
96.321
91.778
87.382
83.279
79.811
77.027
74.976
73.608
72.729
72.436
72.533
72.778
73.217
73.657
74.048
74.292
74.438
74.341
74.194
73.852
73.364
72.778
72.094
71.41
70.629
69.798
68.919
68.089
67.307
66.477
65.695
64.914
64.181
63.497
62.814
62.179
61.592
61.055
60.567
60.127
59.736
59.443
59.101
58.857
58.613
58.369
58.124
57.783
57.538
57.294
57.05
56.855
56.659
56.464
56.317
56.073
55.878
55.682
55.438
55.243
55.047
54.852
54.657
54.51
54.363
54.217
54.07
53.875
53.68
53.484
53.289
53.045
52.849
52.605
52.556
52.849
54.168
57.49
63.79
73.217
84.745
97.004
108.73
119.23
127.87
134.42
138.91
141.5
142.48
142.23
141.11
139.45
137.45
135.3
133.05
130.85
128.8
126.85
125.04
123.43
121.87
120.35
118.89
117.32
115.42
113.32
110.68
107.7
104.14
100.18
95.93
91.485
87.236
83.279
79.909
77.32
75.366
74.097
73.364
73.12
73.217
73.559
73.901
74.292
74.634
74.878
74.927
74.78
74.487
74.048
73.559
72.924
72.192
71.41
70.629
69.749
68.87
67.991
67.112
66.281
65.5
64.67
63.937
63.253
62.569
61.983
61.446
60.86
60.322
59.785
59.346
58.906
58.564
58.173
57.88
57.587
57.294
57.001
56.757
56.464
56.22
56.073
55.878
55.682
55.487
55.292
55.096
54.998
54.803
54.608
54.51
54.315
54.119
53.924
53.729
53.631
53.435
53.289
53.191
53.045
52.849
52.752
52.556
52.361
52.214
52.361
53.191
55.731
61.251
70.238
82.009
94.904
107.41
118.79
128.36
135.79
141.06
144.29
145.95
146.24
145.7
144.43
142.87
141.16
139.3
137.5
135.69
133.98
132.42
130.95
129.53
128.17
126.85
125.48
123.92
122.11
120.06
117.62
114.69
111.32
107.51
103.26
98.665
94.074
89.434
85.233
81.472
78.492
76.246
74.634
73.657
73.315
73.364
73.657
74.194
74.683
75.073
75.318
75.366
75.171
74.878
74.341
73.755
72.973
72.192
71.312
70.433
69.505
68.528
67.698
66.721
65.94
65.06
64.23
63.497
62.814
62.179
61.544
60.909
60.371
59.785
59.297
58.808
58.418
57.978
57.587
57.245
56.903
56.61
56.366
56.122
55.878
55.682
55.487
55.34
55.194
54.998
54.852
54.657
54.51
54.315
54.119
53.924
53.729
53.533
53.338
53.191
52.996
52.8
52.605
52.41
52.214
51.97
51.677
51.433
51.189
51.042
51.042
51.433
52.8
56.317
62.911
72.729
107.12
104.28
101.01
97.249
93.195
88.994
84.842
81.032
77.809
75.22
73.413
72.24
71.654
71.557
71.752
72.192
72.631
73.12
73.51
73.803
73.901
73.852
73.608
73.168
72.631
71.996
71.312
70.531
69.798
68.919
68.089
67.258
66.428
65.598
64.816
64.035
63.302
62.618
61.934
61.251
60.616
60.127
59.59
59.15
58.759
58.32
57.929
57.587
57.294
57.05
56.855
56.61
56.366
56.122
55.926
55.682
55.438
55.292
55.096
54.901
54.657
54.559
54.363
54.168
53.973
53.875
53.68
53.484
53.338
53.24
53.094
52.996
52.849
52.752
52.605
52.507
52.312
52.166
51.97
51.921
52.117
53.191
56.366
62.716
72.631
84.842
97.884
110.24
121.23
130.36
137.35
142.14
144.92
146.19
146.19
145.31
143.94
142.19
140.33
138.42
136.57
134.81
133.25
131.78
130.56
129.39
128.17
126.95
125.58
124.06
122.26
120.06
117.47
114.49
110.97
107.07
102.72
98.177
93.488
88.994
84.842
81.277
78.492
76.343
74.927
74.194
73.852
73.999
74.341
74.878
75.366
75.757
75.904
75.904
75.757
75.366
74.878
74.243
73.51
72.729
71.85
70.922
70.042
69.114
68.235
67.356
66.526
65.793
65.06
64.279
63.595
63.009
62.374
61.739
61.251
60.664
60.225
59.736
59.346
59.004
58.613
58.222
57.929
57.685
57.441
57.196
56.855
56.659
56.464
56.22
56.073
55.878
55.682
55.438
55.243
55.047
54.754
54.51
54.168
53.924
53.631
53.289
53.045
52.752
52.41
52.117
51.775
51.531
51.286
51.091
50.993
51.286
52.752
56.415
63.302
73.217
85.038
97.249
108.68
118.79
127.14
133.34
137.54
139.94
140.82
140.62
139.55
138.03
136.23
134.22
132.32
130.32
128.36
126.56
124.8
123.23
121.72
120.25
118.59
116.93
114.93
112.54
109.85
106.68
103.06
99.105
94.855
90.41
86.063
82.058
78.59
75.855
73.803
72.387
71.508
71.215
71.41
71.85
72.387
72.924
73.413
73.755
73.852
73.803
73.608
73.168
72.68
72.045
71.361
70.677
69.994
69.261
68.528
67.844
67.112
66.428
65.744
65.012
64.279
63.595
62.911
62.227
61.69
61.055
60.469
59.932
59.443
58.906
58.564
58.124
57.734
57.441
57.099
56.806
56.561
56.317
56.122
55.878
55.682
55.536
55.438
55.292
55.194
54.998
54.803
54.657
54.559
54.51
54.363
54.217
54.168
54.07
53.924
53.729
53.533
53.289
53.094
52.849
52.752
52.849
53.777
56.61
62.374
71.361
82.791
95.051
106.97
117.67
126.75
133.74
138.62
141.55
142.82
142.82
141.79
140.23
138.33
136.18
133.98
131.88
129.83
127.83
125.92
124.26
122.6
121.04
119.42
117.76
115.86
113.61
110.97
107.95
104.38
100.37
96.076
91.632
87.236
83.23
79.86
77.174
75.171
73.901
73.217
72.973
73.12
73.364
73.755
74.194
74.438
74.634
74.634
74.487
74.243
73.803
73.217
72.533
71.801
71.068
70.238
69.359
68.528
67.698
66.819
65.94
65.109
64.279
63.497
62.716
62.032
61.446
60.811
60.225
59.687
59.248
58.808
58.369
57.978
57.685
57.343
57.099
56.806
56.561
56.317
56.122
55.926
55.78
55.633
55.438
55.292
55.194
54.998
54.852
54.657
54.559
54.412
54.217
54.119
53.973
53.777
53.68
53.533
53.435
53.24
53.045
52.849
52.654
52.605
52.849
54.119
57.538
64.23
74.292
86.503
99.3
111.36
122.06
130.85
137.5
141.99
144.58
145.6
145.51
144.63
143.11
141.31
139.25
137.2
135.25
133.34
131.63
130.07
128.61
127.24
125.92
124.6
123.14
121.48
119.47
117.18
114.44
111.17
107.36
103.16
98.616
93.927
89.287
85.038
81.423
78.541
76.441
74.976
74.243
73.901
73.999
74.341
74.878
75.318
75.66
75.904
75.904
75.806
75.415
74.927
74.243
73.559
72.729
71.85
71.068
70.189
69.31
68.382
67.503
66.672
65.842
65.109
64.377
63.693
63.009
62.374
61.739
61.153
60.664
60.176
59.736
59.346
59.004
58.613
58.32
57.978
57.685
57.441
57.099
56.855
56.561
56.317
56.073
55.78
55.536
55.243
54.998
54.754
54.51
54.217
53.924
53.68
53.435
53.24
53.045
52.849
52.654
52.41
52.214
52.068
51.872
51.726
51.872
52.752
55.292
60.811
69.652
81.179
93.683
105.94
117.03
126.51
133.88
139.11
142.28
143.8
143.99
143.26
141.79
139.99
138.03
135.98
134.08
132.17
130.41
128.8
127.39
125.97
124.7
123.28
121.82
120.06
118.06
115.61
112.73
109.41
105.55
101.25
96.614
91.925
87.382
83.182
79.616
76.734
74.634
73.168
72.387
72.045
72.192
72.485
72.924
73.315
73.657
73.852
73.901
73.803
73.559
73.12
72.631
71.996
71.361
70.629
69.847
69.066
68.235
67.356
66.526
65.744
64.914
64.181
63.351
62.618
61.934
61.251
60.616
60.029
59.541
59.101
58.613
58.222
57.88
57.538
57.294
57.05
56.806
56.561
56.366
56.122
55.878
55.682
55.487
55.34
55.194
54.998
54.803
54.657
54.51
54.363
54.168
54.07
53.924
53.729
53.631
53.484
53.289
53.094
52.947
52.752
52.556
52.41
52.654
53.777
56.855
62.911
72.094
83.67
95.979
107.95
118.59
127.63
134.42
139.16
141.99
143.11
143.02
141.89
140.13
137.98
135.69
133.3
131
128.8
126.8
125.04
123.43
121.87
120.45
118.94
117.23
115.32
112.98
110.19
106.82
102.91
98.763
94.367
89.922
85.721
82.058
78.981
76.636
74.976
74.048
73.608
73.559
73.755
74.097
74.536
74.878
75.122
75.22
75.122
74.878
74.438
73.901
73.217
72.485
71.752
70.873
70.042
69.163
68.284
67.503
66.623
65.842
65.06
64.279
63.595
62.911
62.227
61.592
61.055
60.567
60.029
59.541
59.15
58.808
58.418
58.124
57.734
57.441
57.196
56.903
56.659
56.464
56.317
56.122
55.926
55.731
55.633
55.438
55.292
55.096
54.998
54.803
54.608
54.51
54.315
54.168
54.07
53.875
53.729
53.533
53.289
53.045
52.849
52.654
52.654
53.338
55.633
60.811
69.505
81.032
119.62
116.98
113.81
110.24
106.19
101.69
96.907
92.169
87.675
83.67
80.251
77.613
75.66
74.438
73.803
73.657
73.852
74.194
74.536
74.927
75.171
75.22
75.122
74.878
74.487
73.901
73.315
72.533
71.85
71.117
70.287
69.505
68.675
67.844
67.063
66.233
65.402
64.67
63.839
63.107
62.423
61.739
61.104
60.567
60.029
59.59
59.15
58.857
58.466
58.173
57.88
57.538
57.294
57.05
56.855
56.659
56.415
56.22
56.073
55.878
55.682
55.487
55.292
55.047
54.852
54.754
54.559
54.363
54.168
53.973
53.875
53.68
53.484
53.289
53.094
52.947
52.849
53.094
54.363
57.587
64.035
73.755
85.624
98.177
110.19
120.89
129.73
136.42
141.01
143.7
144.82
144.73
143.8
142.28
140.48
138.42
136.37
134.37
132.42
130.66
129.09
127.68
126.31
124.99
123.58
122.06
120.25
118.11
115.57
112.44
108.87
104.72
100.18
95.441
90.655
86.259
82.351
79.176
76.783
75.22
74.341
74.048
74.243
74.634
75.171
75.757
76.197
76.539
76.734
76.734
76.49
76.099
75.562
74.78
73.999
73.12
72.192
71.166
70.189
69.163
68.186
67.258
66.281
65.402
64.621
63.79
63.058
62.374
61.739
61.104
60.567
59.981
59.443
59.004
58.564
58.124
57.734
57.441
57.099
56.806
56.61
56.415
56.317
56.171
56.122
55.975
55.878
55.731
55.536
55.34
55.243
55.047
54.901
54.803
54.608
54.51
54.363
54.168
53.973
53.729
53.533
53.289
53.094
53.094
53.68
55.633
60.322
68.382
79.469
92.169
104.87
116.49
126.51
134.42
140.13
143.7
145.51
146
145.56
144.43
142.92
141.26
139.45
137.59
135.88
134.22
132.66
131.29
129.93
128.61
127.29
125.92
124.36
122.5
120.3
117.62
114.44
110.83
106.68
102.18
97.493
92.755
88.164
84.11
80.69
78.004
76.05
74.78
74.097
73.852
73.999
74.292
74.731
75.122
75.366
75.415
75.366
75.122
74.731
74.194
73.51
72.68
71.85
70.97
70.091
69.31
68.431
67.6
66.721
65.94
65.06
64.23
63.448
62.618
61.934
61.153
60.567
59.932
59.346
58.857
58.418
58.027
57.783
57.538
57.294
57.05
56.855
56.61
56.366
56.171
55.878
55.633
55.292
54.998
54.754
54.412
54.168
53.924
53.68
53.533
53.338
53.24
53.094
52.996
52.849
52.654
52.507
52.214
51.97
51.677
51.482
51.482
51.97
53.729
58.027
65.695
76.343
88.799
101.35
112.98
122.99
130.85
136.47
139.94
141.55
141.75
140.82
139.25
137.25
135.05
132.86
130.8
128.85
127.04
125.43
124.02
122.7
121.28
119.91
118.35
116.64
114.49
111.85
108.82
105.16
101.06
96.614
92.071
87.626
83.475
80.007
77.125
75.073
73.608
72.875
72.631
72.729
73.12
73.608
74.194
74.634
74.927
75.073
74.976
74.683
74.292
73.657
72.973
72.24
71.41
70.629
69.749
68.821
67.942
67.063
66.184
65.305
64.474
63.742
63.009
62.276
61.69
61.104
60.567
60.029
59.59
59.15
58.759
58.369
57.978
57.685
57.343
57.05
56.757
56.415
56.171
55.975
55.78
55.633
55.438
55.243
55.047
54.852
54.657
54.559
54.363
54.217
54.07
53.875
53.729
53.631
53.435
53.289
53.191
52.996
52.849
52.654
52.556
52.654
53.68
56.464
62.374
71.801
83.865
96.858
109.36
120.55
129.88
137.01
141.94
144.92
146.29
146.43
145.7
144.29
142.58
140.62
138.67
136.76
135.01
133.34
131.88
130.61
129.44
128.31
127.14
82.058
81.179
80.251
79.323
78.297
77.369
76.343
75.415
74.487
73.559
72.68
71.801
70.97
70.238
69.407
68.675
67.991
67.307
66.721
66.184
65.695
65.256
64.816
64.425
64.035
63.742
63.351
63.058
62.667
62.423
62.179
61.934
61.69
61.495
61.251
61.055
60.811
60.616
60.371
60.127
59.785
59.492
59.248
58.906
58.808
59.101
60.811
65.158
73.315
85.038
98.665
112.19
124.31
134.37
142.28
148.1
152.2
154.88
156.45
157.13
157.23
156.94
156.35
155.57
154.69
153.81
152.93
152.05
151.22
150.29
149.17
147.8
146.19
144.14
141.7
138.67
135.1
131
126.26
120.89
115.17
109.31
103.7
98.665
94.562
91.436
89.238
87.822
86.943
86.503
86.259
86.112
85.917
85.721
85.428
85.038
84.403
83.816
83.035
82.253
81.374
80.446
79.469
78.541
77.564
76.636
75.611
74.683
73.657
72.729
71.85
71.068
70.238
69.505
68.724
68.089
67.503
66.916
66.428
65.988
65.549
65.109
64.718
64.377
63.986
63.595
63.302
63.009
62.667
62.374
61.983
61.739
61.495
61.153
60.909
60.664
60.371
60.029
59.785
59.492
59.248
59.053
58.808
58.613
58.418
58.222
58.027
57.88
57.587
57.294
57.001
56.659
56.464
56.806
58.613
63.595
73.12
86.698
102.04
116.79
129.73
140.43
148.73
154.79
159.13
162.02
163.68
164.56
164.8
164.6
164.12
163.38
162.55
161.67
160.79
159.87
158.94
157.91
156.79
155.57
154.05
152.2
150
147.36
144.24
140.67
136.47
131.68
126.31
120.5
114.34
108.29
102.67
97.786
93.927
91.045
89.092
87.968
87.382
87.138
87.04
86.991
86.845
86.601
86.161
85.624
84.94
84.158
83.377
82.449
81.472
80.544
79.469
78.492
77.418
76.441
75.366
74.341
73.413
72.485
71.654
70.873
70.091
69.359
68.626
67.942
67.307
66.672
66.135
65.549
65.06
64.621
64.132
63.693
63.253
62.862
62.472
62.13
61.739
61.446
61.153
60.86
60.616
60.371
60.176
59.981
59.736
59.492
59.15
58.906
58.564
58.173
57.734
57.245
56.806
56.366
55.975
55.975
56.757
59.248
65.06
74.78
87.675
101.6
114.73
126.26
135.79
143.16
148.63
152.44
154.79
156.11
156.5
156.2
155.47
154.54
153.52
152.3
151.07
149.85
148.73
147.61
146.48
145.16
143.75
141.99
139.89
137.25
134.08
130.22
125.72
120.6
114.98
109.12
103.31
97.932
93.341
89.727
87.04
85.282
84.158
83.572
83.279
83.23
83.279
83.23
83.182
82.937
82.498
82.009
81.277
80.593
79.86
79.03
78.248
77.369
76.49
75.562
74.634
73.657
72.778
71.85
70.97
70.091
69.31
68.528
67.796
67.063
66.428
65.793
65.305
64.816
64.279
63.937
63.497
63.107
62.716
62.374
61.983
61.592
61.299
60.909
60.567
60.127
59.785
59.541
59.346
59.248
59.101
58.906
58.759
58.564
58.418
58.222
58.027
57.783
57.538
57.294
57.099
57.294
58.418
61.788
68.821
79.762
93.439
107.75
120.94
132.37
141.55
148.49
153.42
156.74
158.69
159.57
159.57
158.99
158.06
156.94
155.62
154.3
152.98
151.76
150.54
149.32
147.95
146.48
144.73
142.72
140.38
137.5
133.98
129.88
125.04
119.77
113.9
108.04
102.28
97.2
92.999
89.727
87.529
86.161
85.428
85.135
84.989
84.989
84.989
84.94
84.745
84.403
83.914
83.279
82.595
81.814
80.935
80.007
79.03
78.053
77.125
76.099
75.171
74.243
73.315
72.387
71.41
70.531
69.749
68.919
68.089
67.405
66.721
66.135
65.402
64.865
64.377
63.937
63.546
63.155
