52.849
52.8
52.654
52.605
52.556
52.41
52.361
52.312
52.214
52.166
52.117
52.068
52.068
51.97
51.97
51.97
51.921
51.97
52.312
53.484
56.903
63.986
74.878
87.919
101.01
112.88
123.18
131.93
138.91
144.14
147.7
149.8
150.73
150.93
150.54
149.76
148.73
147.51
146.24
144.87
143.46
141.99
140.57
139.01
137.3
135.49
133.49
131.29
128.85
126.12
123.04
119.62
115.81
111.66
107.26
102.72
98.225
93.976
90.215
87.04
84.598
82.791
81.472
80.788
80.495
80.495
80.593
80.886
81.13
81.228
81.277
81.228
81.032
80.69
80.251
79.762
79.127
78.346
77.613
76.783
76.001
75.22
74.487
73.803
73.071
72.387
71.654
70.97
70.384
69.652
68.968
68.382
67.796
67.307
66.868
66.428
65.988
65.598
65.109
64.67
64.23
63.839
63.546
63.302
63.058
62.716
62.472
62.179
61.885
61.544
61.446
61.446
61.885
63.253
66.379
71.85
79.665
88.799
98.177
107.07
114.98
121.72
127.04
130.85
133.34
134.76
135.2
134.86
134.08
132.86
131.44
129.93
128.31
126.6
124.99
123.38
121.67
120.01
118.11
116.1
113.86
111.22
108.19
104.72
100.91
96.907
92.804
88.799
85.282
82.351
80.007
78.199
76.929
76.246
76.001
76.05
76.294
76.685
77.027
77.369
77.613
77.76
77.76
77.613
77.418
77.174
76.783
76.294
75.757
75.122
74.487
73.901
73.315
72.68
72.094
71.508
70.824
70.091
69.407
68.87
68.284
67.796
67.307
66.819
66.281
65.842
65.402
65.012
64.572
64.23
63.839
63.595
63.302
63.058
62.814
62.472
62.227
61.934
61.69
61.446
61.251
61.153
61.055
60.86
60.664
60.469
60.371
60.176
59.981
59.736
59.541
59.346
59.248
59.053
58.906
58.759
58.564
58.369
58.173
57.929
57.685
57.538
57.783
58.808
61.544
67.063
75.464
85.966
97.004
107.41
116.88
124.99
131.68
136.81
140.38
142.48
143.46
143.5
142.92
141.89
140.57
139.16
137.69
136.32
134.86
133.49
132.17
130.8
129.39
127.73
125.92
123.92
121.62
119.03
116.1
112.78
109.07
105.01
100.72
96.467
92.511
88.994
86.063
83.719
82.058
80.886
80.153
79.811
79.665
79.762
80.007
80.153
80.446
80.544
80.495
80.349
80.153
79.86
79.421
78.883
78.248
77.564
76.783
76.001
75.22
74.487
73.755
72.973
72.24
71.508
70.824
70.091
69.505
68.87
68.284
67.796
67.307
66.819
66.281
65.842
65.5
65.109
64.816
64.425
64.132
63.79
63.546
63.302
63.058
62.814
62.569
62.276
61.983
61.69
61.446
61.153
60.86
60.616
60.371
60.127
59.932
59.736
59.492
59.297
59.15
59.101
59.59
61.299
65.109
71.605
80.544
90.655
100.81
110.09
118.35
125.43
131.05
135.3
138.13
139.74
140.38
140.33
139.69
138.77
137.5
136.18
134.81
133.44
132.07
130.8
129.49
128.17
126.75
125.14
123.38
121.43
119.13
116.44
113.37
109.85
105.99
101.79
97.542
93.341
89.482
86.259
83.572
81.57
80.153
79.225
78.737
78.492
78.492
78.59
78.786
78.981
79.127
79.176
79.127
78.981
78.737
78.297
77.809
77.174
76.539
75.855
75.171
74.487
73.755
72.973
72.24
71.508
70.726
70.042
69.359
68.724
68.186
67.6
67.112
66.526
66.037
65.5
65.012
64.621
64.279
63.986
63.742
63.497
63.155
62.862
62.618
62.374
62.227
62.032
61.934
61.739
61.592
61.446
61.251
61.104
61.006
60.86
60.811
60.713
60.664
60.567
60.371
60.225
60.029
59.932
60.029
60.86
63.009
67.307
74.243
83.426
93.488
103.5
112.63
120.69
127.43
132.66
136.42
138.81
139.99
140.18
139.55
138.47
137.06
135.44
133.69
131.93
130.17
128.56
126.85
125.19
123.43
121.57
119.57
117.23
114.64
111.56
108.09
104.38
100.37
96.223
92.364
88.945
85.966
83.719
82.058
80.886
80.153
79.86
79.86
80.055
80.349
80.593
80.886
80.984
80.984
80.935
80.69
80.3
79.86
79.323
78.688
78.004
77.32
76.539
75.806
74.976
74.243
73.413
72.68
71.996
71.312
70.629
69.945
69.31
68.724
68.235
67.747
67.258
66.819
66.379
65.988
65.598
65.256
64.865
64.572
64.279
63.986
63.742
63.497
63.302
63.058
62.814
62.618
62.423
62.276
62.13
61.934
61.739
61.544
61.446
61.251
61.104
60.909
60.713
60.567
60.371
60.322
60.567
61.739
64.718
70.384
78.737
88.994
99.74
110.05
119.37
127.48
134.08
139.01
142.43
144.43
145.36
145.51
145.02
144.14
143.06
141.94
140.72
139.69
138.62
137.54
136.42
135.3
134.08
132.61
131
129.09
126.99
124.55
121.67
118.5
114.88
110.92
106.68
102.38
98.03
94.074
90.557
87.626
85.379
83.719
82.595
82.009
81.716
81.716
81.912
82.107
82.302
82.449
82.498
82.351
82.156
81.814
81.277
80.69
80.055
79.323
78.541
77.809
76.978
76.197
75.366
74.634
73.852
73.12
72.436
71.752
71.117
70.433
69.798
69.163
68.626
68.04
67.503
66.965
66.526
66.037
65.598
65.256
64.865
64.474
64.181
63.937
63.693
63.448
63.155
62.911
62.667
62.423
62.179
61.983
61.739
61.495
61.299
61.055
60.811
60.616
60.371
60.127
59.981
59.981
60.567
62.276
66.135
72.68
81.618
91.876
102.04
111.61
120.11
127.43
133.25
137.54
140.38
141.99
142.62
142.43
141.79
140.82
139.69
138.42
137.11
135.88
134.61
133.44
132.17
130.95
129.53
128.07
126.36
124.41
122.11
119.42
116.3
112.73
108.82
104.48
100.13
95.734
91.729
88.31
85.575
83.475
82.009
81.032
80.544
80.349
80.495
80.69
80.984
81.228
81.423
81.472
81.423
81.228
80.984
80.544
80.007
79.372
78.688
78.004
77.223
76.539
75.806
75.073
74.243
73.51
72.778
72.045
71.361
70.677
70.042
69.505
68.919
68.382
67.796
67.307
66.868
66.428
66.037
65.695
65.353
65.06
64.816
64.474
64.23
63.986
63.742
63.497
63.302
63.058
62.911
62.716
62.569
62.374
62.179
62.032
61.885
61.69
61.495
61.251
61.055
60.86
60.909
61.446
63.107
66.916
73.413
82.449
92.657
103.06
112.78
121.43
128.8
134.76
139.16
142.14
143.75
144.29
144.04
143.31
142.19
140.87
139.5
138.03
136.62
135.3
133.93
132.56
131.05
129.53
127.83
125.87
123.62
121.04
118.06
114.69
110.88
106.72
102.38
98.03
93.927
90.215
87.187
84.793
83.133
82.009
81.374
81.179
81.179
81.423
81.667
82.009
82.156
82.302
82.253
82.058
81.667
81.228
80.69
80.007
79.225
78.444
77.613
76.734
75.904
75.122
74.292
73.51
72.729
71.996
71.215
70.531
69.945
69.31
68.675
68.089
67.551
67.063
66.623
66.184
65.793
65.402
65.06
64.718
64.474
64.181
63.937
63.693
63.448
63.253
63.009
62.814
62.569
62.276
62.13
61.885
61.69
61.495
61.251
61.006
60.713
60.469
60.225
59.981
59.736
59.59
59.736
60.567
62.862
67.503
74.878
84.256
94.318
104.04
112.98
120.89
127.43
132.56
136.23
138.47
139.69
139.99
139.69
138.86
137.74
136.42
135.05
133.64
132.17
130.76
129.24
127.73
126.12
124.41
122.5
120.35
117.86
114.93
111.61
107.85
103.79
99.495
95.197
91.241
87.822
84.989
82.84
81.374
80.349
79.86
79.665
79.811
80.055
80.349
80.69
80.886
80.935
80.886
80.69
80.349
79.909
79.421
78.883
78.297
77.613
76.929
76.246
75.464
74.731
73.999
73.217
72.533
71.85
71.166
70.531
69.945
69.31
68.724
68.284
67.796
67.405
67.063
66.672
66.428
66.135
65.842
65.598
65.402
65.158
65.012
64.816
64.621
64.425
64.181
63.937
63.742
63.497
63.302
63.107
62.911
62.716
62.569
62.374
62.179
61.983
61.788
61.592
61.446
61.495
62.032
63.693
67.405
73.755
82.547
92.657
103.01
112.63
121.23
128.56
134.52
139.01
141.99
143.75
144.48
144.38
143.75
142.67
141.45
140.04
138.62
137.2
135.79
134.42
133.05
131.63
130.12
128.51
126.6
124.5
122.11
119.33
116.05
112.39
108.39
104.04
99.593
95.441
91.68
88.554
86.063
84.256
83.035
82.351
82.058
82.058
82.253
82.547
82.84
83.133
83.23
83.23
83.035
82.791
82.351
81.814
81.13
80.446
79.665
78.883
78.102
77.32
76.49
75.66
74.878
74.097
73.315
72.533
71.85
71.166
70.531
69.994
69.407
68.87
68.382
67.844
67.405
67.063
66.672
66.379
66.037
65.744
65.5
65.305
65.06
64.816
64.621
64.377
64.181
63.986
63.79
63.595
63.448
63.253
63.107
62.911
62.716
62.472
62.276
62.13
62.13
62.667
64.377
68.186
74.731
83.865
94.367
105.11
115.22
124.26
131.98
138.23
142.87
146.04
147.8
148.53
148.44
147.75
146.68
145.51
144.24
143.02
141.79
140.67
139.5
138.38
137.06
135.69
134.17
132.42
130.41
128.12
125.43
122.31
118.79
114.93
110.63
106.14
101.55
97.102
93.097
89.824
87.138
85.135
83.719
82.986
82.595
82.547
82.693
82.84
83.133
83.279
83.377
83.377
83.182
82.791
82.351
81.814
81.13
80.446
79.616
78.883
78.004
77.174
76.343
75.464
74.683
73.852
73.12
72.387
71.605
70.922
70.238
69.554
68.968
68.431
67.844
67.356
66.868
66.477
66.135
65.793
65.5
65.158
64.865
64.621
64.377
64.132
63.839
63.595
63.448
63.253
63.058
62.862
62.618
62.423
62.227
62.032
61.788
61.544
61.299
61.055
60.86
60.86
61.299
62.667
65.988
71.801
80.153
89.971
100.13
109.75
118.5
126.07
132.12
136.67
139.74
141.55
142.28
142.28
141.6
140.62
139.35
137.94
136.47
135.01
133.49
131.98
130.56
129.09
127.53
125.92
124.11
121.91
119.37
116.35
112.93
109.07
104.87
100.42
96.076
91.973
88.506
85.673
83.621
82.156
81.228
80.739
80.593
80.739
81.032
81.374
81.667
81.863
81.863
81.814
81.57
81.228
80.739
80.251
79.616
78.981
78.346
77.662
76.929
76.246
75.464
74.731
74.048
73.364
72.68
71.996
71.361
70.824
70.238
69.749
69.261
68.724
68.284
67.942
67.503
67.112
66.721
66.428
66.135
65.793
65.549
65.353
65.109
64.865
64.67
64.425
64.23
63.986
63.839
63.693
63.546
63.351
63.155
63.009
62.814
62.618
62.374
62.179
61.983
62.032
62.569
64.181
67.942
74.292
83.23
93.634
104.14
114.1
123.04
130.76
136.91
141.5
144.63
146.39
147.07
146.92
146.29
145.31
144.14
142.87
141.5
140.18
138.86
137.54
136.23
134.91
133.54
132.07
130.36
128.41
126.26
123.62
120.55
117.03
113.17
108.92
104.48
100.13
95.93
92.315
89.385
87.138
85.428
84.354
83.719
83.426
83.426
83.572
83.816
84.061
84.256
84.256
84.158
83.914
83.572
83.035
82.498
81.814
80.984
80.251
79.421
78.541
77.76
76.881
76.05
75.22
74.487
73.755
72.973
72.289
71.605
70.97
70.384
69.847
69.31
68.87
68.382
67.942
67.551
67.161
66.868
66.526
66.233
65.988
65.793
65.549
65.305
65.109
64.914
64.718
64.572
64.377
64.23
64.035
63.839
63.693
63.497
63.253
63.009
62.814
62.716
63.253
64.914
68.724
75.318
84.354
94.904
105.75
115.86
124.94
132.61
138.67
143.16
146.04
147.61
148.19
148
147.31
146.24
145.12
143.85
142.62
141.45
140.23
139.11
137.98
136.81
135.49
134.08
132.42
130.51
128.26
125.68
122.6
119.13
115.22
110.92
106.48
101.94
97.493
93.536
90.313
87.724
85.868
84.549
83.719
83.377
83.279
83.377
83.426
83.572
83.621
83.621
83.475
83.23
82.84
82.351
81.814
81.179
80.495
79.762
78.981
78.199
77.369
76.539
75.757
74.878
74.048
73.315
72.533
71.801
71.117
70.433
69.798
69.261
68.675
68.186
67.698
67.258
66.868
66.477
66.184
65.842
65.549
65.305
65.012
64.718
64.425
64.181
63.937
63.693
63.497
63.302
63.058
62.862
62.618
62.423
62.179
61.934
61.69
61.348
61.104
60.909
60.811
61.006
61.788
64.181
68.87
76.294
85.917
96.369
106.63
116.05
124.31
131.24
136.62
140.38
142.72
143.94
144.24
143.8
142.92
141.79
140.43
139.06
137.54
136.08
134.57
133.1
131.68
130.17
128.61
126.85
124.75
122.26
119.37
116
112.19
107.99
103.6
99.154
95.099
91.534
88.701
86.405
84.842
83.816
83.182
82.937
83.035
83.23
83.572
83.816
84.012
84.061
83.914
83.719
83.377
82.84
82.302
81.618
80.886
80.055
79.225
78.444
77.613
76.783
75.904
75.122
74.341
73.608
72.924
72.289
71.654
71.166
70.677
70.189
69.652
69.261
68.87
68.431
68.04
67.698
67.307
66.916
66.526
66.233
65.94
65.695
65.5
65.353
65.695
66.916
69.847
75.318
83.279
93.097
103.7
113.9
123.38
131.49
138.13
143.11
146.48
148.44
149.27
149.12
148.44
147.31
146.04
144.73
143.36
142.04
140.72
139.5
138.23
136.91
135.54
133.98
132.17
130.12
127.68
124.94
121.72
118.11
114.05
109.61
105.01
100.42
96.174
92.511
89.482
87.187
85.575
84.5
84.012
83.865
84.012
84.256
84.549
84.793
84.989
85.038
84.842
84.549
84.061
83.377
82.547
81.667
80.739
79.811
78.786
77.858
76.881
76.001
75.122
74.243
73.51
72.778
72.094
71.508
70.922
70.384
69.798
69.31
68.724
68.186
67.6
67.063
66.477
65.94
65.402
64.865
64.377
63.839
63.497
63.107
62.814
62.472
62.227
62.032
61.885
61.739
61.592
61.495
61.446
61.299
61.153
61.055
60.909
60.713
60.567
60.42
60.225
60.127
59.932
59.736
59.59
59.492
59.346
59.248
59.101
59.004
58.906
58.857
59.004
59.443
61.055
64.865
71.752
81.423
92.755
104.14
114.73
124.31
132.42
139.06
143.94
147.17
149.07
149.8
149.76
148.97
147.95
146.63
145.26
143.85
142.43
141.01
139.55
138.13
136.62
135.1
133.44
131.63
129.53
127.14
124.26
120.94
117.13
112.88
108.39
103.74
99.3
95.246
91.778
89.092
87.04
85.624
84.745
84.305
84.256
84.354
84.549
84.793
84.989
85.038
84.989
84.793
84.5
84.012
83.377
82.742
82.009
81.179
80.349
79.567
78.688
77.858
77.027
76.246
75.415
74.683
73.901
73.217
72.533
71.85
71.215
70.677
70.091
69.603
69.114
68.626
68.186
67.796
67.356
66.965
66.672
66.379
66.135
65.842
65.598
65.353
65.109
64.914
64.67
64.474
64.279
64.035
63.839
63.742
63.546
63.351
63.155
63.009
62.814
62.569
62.276
62.13
62.032
62.227
63.253
65.842
70.97
78.883
88.75
99.495
110
119.77
128.31
135.44
141.06
145.02
147.51
148.73
148.97
148.53
147.7
146.53
145.26
143.99
142.82
141.7
140.62
139.55
138.42
137.25
135.88
134.37
132.56
130.36
127.83
124.85
121.43
117.62
113.42
108.92
104.28
99.789
95.637
92.071
89.189
86.943
85.379
84.354
83.816
83.621
83.67
83.816
84.012
84.158
84.158
84.11
83.914
83.621
83.133
82.547
81.912
81.228
80.495
79.665
78.883
78.053
77.223
76.441
75.611
74.78
74.048
73.315
72.485
71.801
71.068
70.433
69.749
69.114
68.528
68.04
67.551
67.112
66.672
66.379
65.988
65.744
65.5
65.158
64.914
64.67
64.425
64.23
64.035
63.79
63.595
63.448
63.155
63.009
62.716
62.569
62.276
62.032
61.788
61.544
61.299
61.006
60.811
60.713
61.153
62.716
66.281
72.533
81.228
91.387
101.69
111.36
120.11
127.63
133.54
137.98
140.87
142.58
143.16
143.02
142.23
141.16
139.94
138.57
137.2
135.88
134.61
133.3
131.98
130.61
129.05
127.39
125.43
123.18
120.55
117.47
113.9
110
105.7
101.16
96.662
92.56
88.994
86.112
84.061
82.595
81.716
81.374
81.374
81.618
82.009
82.351
82.595
82.791
82.84
82.791
82.547
82.156
81.667
81.13
80.446
79.762
79.03
78.297
77.613
76.881
76.099
75.366
74.634
73.852
73.168
72.485
71.85
71.215
70.677
70.091
69.554
69.066
68.626
68.186
67.796
67.503
67.161
66.916
66.623
66.281
66.037
65.793
65.549
65.353
65.158
64.914
64.718
64.572
64.279
64.132
63.839
63.742
63.546
63.351
63.155
63.009
62.716
62.472
62.276
62.13
62.179
62.862
64.865
69.114
76.05
85.282
95.734
106.24
116.1
124.94
132.42
138.38
142.72
145.56
147.07
147.56
147.31
146.48
145.41
144.24
143.02
141.75
140.48
139.35
138.23
137.06
135.79
134.52
132.95
131.2
129.19
126.85
124.16
121.04
117.47
113.51
109.17
104.62
100.23
96.174
92.657
89.824
87.529
85.966
84.94
84.354
84.158
84.256
84.354
84.598
84.793
84.842
84.793
84.696
84.403
84.012
83.426
82.742
82.009
81.179
80.349
79.469
78.59
77.809
76.929
76.099
75.318
74.487
73.657
72.973
72.289
71.654
71.068
70.433
69.994
69.554
69.163
68.675
68.186
67.6
67.063
66.623
66.526
66.721
66.721
66.428
66.037
65.842
65.793
65.598
65.353
65.158
65.012
64.816
64.621
64.474
64.572
64.474
64.279
63.839
63.302
62.862
62.911
63.79
65.744
69.31
75.122
83.377
93.439
104.04
114.44
123.87
132.12
138.67
143.5
146.63
148.39
148.97
148.97
148.49
147.51
146.14
144.63
143.46
142.58
141.6
140.18
138.03
135.54
133.98
134.22
134.91
133.2
128.95
124.85
122.16
119.77
116.1
111.61
106.87
102.28
97.981
94.074
90.801
88.261
86.356
85.038
84.305
84.012
83.914
84.012
84.158
84.354
84.5
84.5
84.305
83.914
83.475
82.84
82.253
81.423
80.544
79.762
79.127
78.541
77.858
77.027
76.197
75.318
74.536
73.755
72.924
72.192
71.557
70.922
70.384
69.847
69.359
68.919
68.431
67.942
67.405
67.112
66.819
66.428
66.135
65.793
65.549
65.305
65.06
64.865
64.67
64.474
64.23
64.035
63.839
63.595
63.351
63.107
62.911
62.667
62.472
62.276
62.032
61.788
61.544
61.348
61.348
61.885
63.351
66.819
72.973
81.57
91.632
101.94
111.61
120.45
127.92
133.98
138.57
141.6
143.46
144.14
144.04
143.36
142.38
141.06
139.6
137.98
136.42
135.01
133.64
132.12
130.41
128.56
126.8
124.99
122.79
120.01
116.64
112.73
108.73
104.48
100.18
95.881
92.12
89.092
86.943
85.233
84.11
83.475
83.279
83.377
83.572
83.816
84.11
84.354
84.5
84.5
84.354
84.061
83.572
82.84
82.107
81.374
80.544
79.762
78.883
78.004
77.125
76.294
75.415
74.634
73.803
73.071
72.387
71.752
71.117
70.482
69.945
69.505
69.066
68.626
68.235
67.844
67.356
66.916
66.477
66.184
65.988
65.988
65.94
65.744
65.5
65.256
65.012
64.865
64.718
64.67
64.67
64.718
64.67
64.67
64.621
64.474
63.986
63.351
62.716
62.227
61.983
62.179
62.911
64.67
68.382
74.731
83.719
94.513
105.7
116.44
126.12
134.37
140.87
145.51
148.49
150.1
150.73
150.64
150.05
149.32
148.29
147.17
146.04
144.87
143.7
142.67
141.6
140.57
139.3
137.89
136.13
134.08
131.73
129.19
126.31
122.99
119.18
114.88
110.24
105.6
101.25
97.249
93.781
90.997
88.799
87.284
86.405
86.063
85.868
85.868
85.868
85.819
85.819
85.721
85.624
85.477
85.282
85.135
84.745
84.256
83.475
82.547
81.472
80.446
79.421
78.541
77.76
77.027
76.294
75.611
74.731
73.852
72.924
71.996
71.117
70.287
69.652
69.114
68.528
67.991
67.356
66.721
66.135
65.695
65.402
65.353
65.402
65.402
65.402
65.353
65.158
64.816
64.425
64.181
63.986
63.937
63.839
63.79
63.742
63.595
63.351
63.058
62.814
62.814
63.302
64.181
65.012
65.549
65.744
66.281
68.479
73.168
80.544
90.069
100.57
110.97
120.35
128.17
133.98
138.13
140.82
142.43
143.16
143.16
142.62
141.79
140.87
139.89
138.77
137.45
136.08
134.76
133.49
132.32
131.05
129.53
127.68
125.43
122.79
119.86
116.69
113.22
109.31
105.01
100.42
96.223
92.608
89.678
87.382
85.673
84.403
83.719
83.377
83.23
83.377
83.67
84.012
84.158
84.158
84.061
83.865
83.621
83.279
82.742
82.107
81.277
80.446
79.567
78.786
78.053
77.223
76.441
75.806
75.171
74.634
74.097
73.657
73.168
72.631
71.996
71.508
70.922
70.287
69.603
68.968
68.431
67.991
67.503
67.063
66.623
66.379
66.135
65.94
65.695
65.353
65.012
64.718
64.67
64.718
64.67
64.572
64.425
64.621
64.865
64.914
64.621
64.035
63.448
63.009
62.911
63.155
63.79
65.402
68.968
75.171
83.816
93.927
104.43
114.69
123.92
131.93
138.33
143.02
146
147.61
148.49
148.88
148.73
148.1
147.26
146.48
145.85
144.92
143.6
142.28
141.16
140.18
139.06
137.59
135.79
133.74
131.44
128.85
126.07
122.75
118.98
114.78
110.29
105.55
101.01
96.809
93.243
90.313
88.115
86.601
85.673
85.184
84.989
84.94
84.989
85.038
85.038
85.135
85.135
84.989
84.793
84.598
84.549
84.354
83.816
82.693
81.228
79.909
78.981
78.199
77.369
76.441
75.464
74.683
73.901
73.168
72.485
71.947
71.361
70.726
70.042
69.407
68.919
68.528
68.235
67.796
67.258
66.526
65.793
65.109
64.718
65.06
65.793
66.379
66.281
65.695
65.06
64.572
64.425
64.572
64.718
64.67
64.377
63.79
63.155
62.618
62.276
62.179
61.934
61.544
61.104
61.348
63.058
67.112
74.097
83.426
93.976
104.62
114.49
122.99
129.73
134.81
138.57
141.5
143.6
144.73
144.82
144.29
143.6
143.06
142.28
141.31
139.94
138.18
136.37
134.76
133.34
131.88
130.12
128.07
125.72
123.14
120.11
116.69
113.12
109.31
105.26
100.86
96.565
92.657
89.629
87.626
86.503
86.063
85.819
85.673
85.673
85.868
85.917
85.721
85.428
85.038
84.696
84.354
84.11
83.719
83.279
82.449
81.032
79.421
78.199
77.467
77.027
76.539
75.806
74.976
74.194
73.608
73.364
73.12
72.68
71.996
71.166
70.482
70.189
70.433
71.312
72.289
72.924
73.12
73.217
73.217
72.631
71.215
69.407
67.503
65.744
64.377
63.351
62.423
61.592
61.251
61.592
62.472
63.155
63.497
63.302
62.911
62.667
62.667
62.618
62.569
62.472
62.618
63.302
65.012
68.479
74.683
83.572
94.416
105.99
116.79
125.97
133.54
139.74
144.14
146.63
147.41
147.26
146.43
145.31
144.14
143.26
142.58
141.89
140.87
139.6
138.38
137.5
136.91
136.23
135.01
133.2
131.05
129.05
127.29
124.99
121.57
117.32
113.22
109.51
105.41
100.86
96.174
91.925
88.408
85.819
84.305
83.67
83.426
83.23
83.182
83.475
84.256
84.989
85.379
85.282
85.038
85.038
85.428
85.477
84.549
83.182
82.547
82.302
81.13
78.786
76.294
74.487
73.315
72.485
71.996
71.605
71.068
70.091
69.114
68.528
68.528
68.626
68.479
68.284
68.04
67.942
67.991
67.844
67.307
66.526
66.477
67.112
67.405
66.623
65.158
63.986
63.448
63.302
63.351
63.448
63.351
63.302
63.448
64.035
65.06
66.184
67.112
67.747
68.04
68.235
68.382
68.528
69.407
71.85
76.783
84.403
93.878
103.79
113.42
122.5
130.61
137.3
142.38
145.85
148
148.97
149.27
149.17
148.97
148.63
148
147.07
145.95
144.68
143.36
142.14
140.82
139.5
138.13
136.62
134.91
132.86
130.41
127.43
123.82
119.67
115.17
110.53
105.94
101.45
97.493
94.318
91.876
90.117
88.847
88.066
87.529
87.187
87.04
87.138
87.236
87.431
87.48
87.48
87.284
86.796
86.112
85.282
84.403
83.475
82.498
81.57
80.593
79.762
78.932
78.248
77.613
76.929
76.197
75.464
74.78
73.999
73.12
72.24
71.605
71.215
70.922
70.677
70.384
69.994
69.749
69.505
69.163
68.821
68.284
67.6
66.868
66.233
65.842
65.695
65.744
65.842
65.988
66.037
65.94
65.842
66.184
67.698
71.166
77.418
85.966
96.076
106.43
116.35
125.43
133.54
140.33
145.36
148.63
150.29
150.88
150.54
149.66
148.44
146.97
145.7
144.48
143.36
142.23
141.01
139.89
138.77
137.54
136.18
134.52
132.51
130.12
127.43
124.36
120.89
116.88
112.63
108.24
103.79
99.544
95.734
92.657
90.313
88.506
87.138
86.161
85.673
85.624
85.673
85.819
85.819
85.624
85.233
84.793
84.305
83.914
83.572
83.035
82.498
81.863
81.13
80.153
79.225
78.444
77.662
77.027
76.441
75.66
74.927
74.194
73.559
72.924
72.24
71.508
70.824
70.238
69.798
69.359
68.724
67.747
66.721
66.135
65.94
65.94
65.744
65.305
64.816
64.377
64.181
63.937
63.546
63.155
63.009
62.862
62.814
62.814
62.716
62.667
62.618
62.618
62.618
62.569
62.472
62.472
62.667
133.88
131.78
129.49
126.85
124.02
120.74
117.18
113.22
109.07
104.67
100.33
96.125
92.364
89.189
86.405
84.11
82.498
82.156
83.035
83.816
83.67
82.937
82.547
82.547
82.498
82.107
81.618
81.423
81.472
81.277
80.544
79.421
78.346
77.564
76.783
76.099
75.562
75.366
75.073
74.341
73.315
72.289
71.361
70.482
70.189
70.433
70.482
69.994
69.163
68.626
68.382
68.235
68.089
67.991
67.796
67.551
67.307
67.112
66.916
66.721
66.526
66.428
66.379
66.281
66.428
66.721
67.258
67.844
68.284
68.186
67.258
65.94
64.718
64.425
65.353
67.307
69.554
72.289
76.685
83.377
91.534
100.23
108.68
116.74
124.41
131.49
137.59
142.38
145.26
146.39
146.43
146.19
145.95
145.75
145.26
144.48
143.75
143.26
142.82
142.23
141.5
140.43
139.16
137.74
136.13
134.37
132.32
129.83
126.7
123.14
119.18
115.13
111.32
107.85
105.11
103.01
101.6
100.72
100.33
100.23
100.37
100.57
100.72
100.81
100.57
99.935
99.251
99.105
99.984
101.6
103.06
102.62
100.18
97.249
95.295
94.367
94.171
94.074
93.634
93.048
92.413
91.29
89.287
87.382
86.259
86.063
86.308
86.747
87.138
87.382
87.48
87.529
87.675
87.822
88.066
88.31
88.506
88.554
88.408
88.115
87.626
86.991
86.161
85.233
84.158
83.035
81.912
80.935
79.86
78.932
77.906
77.027
76.294
75.757
75.66
76.49
78.883
83.182
89.385
97.102
105.5
113.81
121.48
128.26
133.78
138.13
141.16
143.02
143.75
143.85
143.55
143.06
142.28
141.35
140.48
139.55
138.67
137.79
136.91
135.98
134.91
133.69
132.22
130.56
128.56
126.26
123.58
120.45
116.98
113.17
109.07
104.67
100.23
95.979
92.169
89.043
86.552
84.696
83.426
82.595
82.107
81.912
81.863
81.863
81.863
81.814
81.716
81.57
81.179
80.739
80.104
79.469
78.737
78.004
77.174
76.441
75.611
74.878
74.048
73.315
72.533
71.85
71.166
70.433
69.749
68.968
68.235
67.405
66.721
66.184
65.744
65.305
64.718
64.035
63.497
63.155
63.448
64.035
64.914
65.5
65.549
65.109
64.377
63.448
62.472
61.348
60.42
60.371
61.251
62.276
62.618
61.739
60.225
58.808
57.929
57.783
58.369
59.297
60.176
60.664
61.739
65.06
71.361
80.007
89.482
98.86
107.51
115.17
121.82
127.14
131.1
133.78
135.35
136.13
136.18
135.93
135.35
134.66
133.93
133
131.98
130.85
129.53
128.26
126.75
125.04
123.18
121.04
118.59
115.81
112.54
108.97
105.06
101.01
96.907
93.097
89.727
86.943
84.696
83.035
81.912
81.179
80.788
80.69
80.739
81.13
81.667
82.302
82.742
82.742
82.253
81.618
81.423
81.618
81.618
81.13
80.251
79.372
78.541
77.564
76.001
74.097
72.192
70.482
68.968
67.747
66.721
66.281
66.477
67.161
67.844
68.431
68.675
68.626
68.284
67.844
67.356
66.868
66.281
65.695
65.06
64.474
63.986
63.595
63.302
63.107
63.058
63.009
63.009
63.009
63.009
63.009
62.911
62.862
62.814
62.667
62.569
62.276
61.934
61.495
61.251
61.934
64.718
70.482
79.176
89.482
99.789
109.07
116.98
123.82
129.49
134.13
137.59
139.99
141.5
142.23
142.38
141.99
141.31
140.57
139.89
139.11
138.38
137.3
135.98
134.42
132.66
130.85
128.95
126.85
124.6
122.16
119.37
116.1
112.49
108.39
103.99
99.593
95.49
91.632
88.261
85.477
83.572
82.351
81.716
81.57
81.472
81.618
81.863
82.058
81.863
81.277
80.739
80.886
81.57
82.351
82.302
80.788
78.248
75.806
74.292
73.755
73.657
73.803
73.999
74.097
74.194
73.901
73.315
72.387
71.166
69.847
68.675
67.747
67.063
66.623
66.379
66.233
66.037
65.793
65.5
65.109
64.865
64.67
64.474
64.23
63.937
63.595
63.253
62.862
62.618
62.472
62.374
62.227
62.179
62.032
61.934
61.885
61.885
61.885
61.739
61.251
60.567
60.127
60.616
62.814
67.503
74.683
83.67
93.243
102.47
110.83
118.11
124.16
129
132.42
134.81
136.32
137.11
137.45
137.35
136.91
136.23
135.25
134.13
132.86
131.68
130.41
129.09
127.73
126.16
124.31
122.01
119.23
116.05
112.49
108.63
104.62
100.57
96.565
92.755
89.434
86.698
84.696
83.475
82.937
82.84
83.133
83.23
83.133
82.791
82.351
82.009
81.716
81.57
81.57
81.57
81.423
81.228
80.788
80.3
79.665
78.883
78.004
77.125
76.343
75.611
74.731
73.803
72.924
72.192
71.508
70.873
70.238
69.652
69.163
68.87
68.724
68.626
68.235
67.503
66.672
66.135
65.988
66.184
66.379
66.477
66.477
66.281
65.988
65.5
64.816
63.839
63.009
62.569
62.569
62.814
63.058
63.253
63.302
63.107
62.716
62.032
61.495
61.446
62.032
63.986
67.991
74.438
83.182
93.341
103.7
113.42
122.01
129.19
134.86
139.11
141.99
143.85
144.87
145.12
144.82
143.99
143.06
141.99
141.26
141.06
141.26
140.87
138.67
135.05
131.39
128.75
127.43
126.95
126.36
125.24
123.23
120.74
117.67
114
109.41
104.18
98.665
93.488
89.189
85.917
83.816
82.595
82.058
82.058
82.449
83.133
84.012
84.793
85.282
85.428
85.184
84.793
84.158
83.279
82.156
81.13
80.349
79.811
78.981
77.564
75.757
74.048
73.315
73.51
74.048
74.438
74.536
74.438
73.852
72.924
71.752
70.433
68.87
67.258
65.842
64.914
64.425
64.279
64.377
64.425
64.621
64.816
64.914
64.914
64.816
64.621
64.425
64.181
63.839
63.497
63.107
62.667
62.227
61.934
61.592
61.446
61.153
61.006
60.86
60.86
61.251
62.618
65.598
70.873
78.444
87.529
97.2
106.43
114.73
121.82
127.68
132.17
135.49
137.69
138.91
139.45
139.25
138.67
137.79
136.86
135.88
134.91
133.98
133.05
132.07
130.95
129.63
128.12
126.36
124.31
121.87
119.13
115.86
112.29
108.43
104.38
100.23
96.125
92.218
88.847
86.112
84.158
82.937
82.302
82.107
82.253
82.595
83.133
83.719
84.256
84.403
84.256
83.67
82.937
82.156
81.618
81.228
81.032
80.739
80.153
79.323
78.199
77.027
76.197
75.415
74.683
73.755
72.631
71.41
70.482
69.945
69.603
69.407
69.261
68.919
68.675
68.626
68.626
68.479
68.284
67.942
67.405
66.916
66.379
65.793
65.256
64.718
64.279
64.035
64.035
64.279
64.718
64.914
64.718
64.377
63.937
63.693
63.448
63.253
63.107
63.155
63.693
65.158
68.04
72.533
78.932
87.138
96.418
106.04
114.98
122.94
129.73
135.35
139.74
142.87
144.82
145.75
145.85
145.36
144.48
143.75
143.26
142.58
140.87
138.33
135.74
133.93
132.81
131.98
131.05
129.68
127.48
124.85
122.06
119.18
115.81
111.56
106.68
101.55
96.809
92.56
89.092
86.405
84.696
83.719
83.475
83.67
84.11
84.5
84.793
85.233
85.868
86.601
87.138
87.04
86.356
85.135
83.719
82.449
81.228
80.3
79.567
78.737
77.613
76.246
75.122
74.683
74.731
74.78
74.292
73.364
72.192
70.922
69.847
68.87
68.04
67.307
66.868
66.526
66.428
66.477
66.623
66.672
66.623
66.428
66.184
65.793
65.353
65.012
64.572
64.181
63.839
63.693
63.546
63.448
63.155
62.862
62.618
62.569
62.618
62.472
62.227
62.179
62.862
65.109
69.749
77.027
86.356
96.418
106.28
115.32
122.99
129.09
133.49
136.42
138.23
139.35
140.04
140.23
140.23
140.13
139.89
139.5
139.01
138.18
136.91
135.44
133.78
132.17
130.41
128.61
126.6
124.41
122.01
119.42
116.74
114.05
111.12
107.6
103.26
98.225
93.292
89.043
85.917
83.67
82.107
81.179
80.739
80.788
81.277
82.058
82.84
83.572
83.816
83.719
83.475
83.133
82.547
81.863
81.179
80.544
80.055
79.567
78.932
78.199
77.369
76.49
75.611
74.731
73.852
73.12
72.631
72.094
71.361
70.238
68.724
67.258
66.379
66.281
66.819
67.356
67.796
68.284
68.724
69.114
69.359
69.359
69.163
68.87
68.479
68.04
67.405
66.819
66.233
65.793
65.5
65.305
65.109
64.865
64.425
63.937
63.546
63.253
63.058
63.302
64.425
67.161
72.045
79.127
87.822
97.2
106.53
115.32
123.18
129.73
135.01
138.81
141.31
142.82
143.46
143.36
142.87
142.14
141.11
140.04
138.91
137.74
136.47
135.05
133.44
131.68
129.93
128.07
125.92
123.38
120.3
116.88
113.22
109.26
105.06
100.86
96.809
93.341
90.508
88.359
86.796
85.868
85.233
84.94
84.745
84.745
84.94
85.184
85.477
85.721
85.868
85.819
85.575
85.184
84.549
83.719
82.742
81.57
80.349
79.225
78.199
77.223
76.343
75.611
74.878
74.194
73.559
73.071
72.533
71.996
71.41
70.922
70.433
69.847
69.163
68.528
67.991
67.503
67.063
66.672
66.281
65.793
65.256
64.914
65.109
65.598
65.988
66.037
65.793
65.5
65.158
64.816
64.425
63.986
63.595
63.253
62.814
62.423
62.179
62.227
62.814
64.377
67.747
73.413
81.423
91.094
101.45
111.36
120.3
128.07
134.32
139.06
142.43
144.68
145.95
146.39
146.39
145.95
145.16
144.19
143.11
142.04
140.92
139.74
138.47
137.2
135.69
134.08
132.32
130.41
128.26
125.72
122.79
119.42
115.61
111.51
107.12
102.67
98.421
94.611
91.387
88.799
86.991
85.721
84.989
84.598
84.549
84.598
84.793
84.94
84.842
84.745
84.403
84.012
83.426
82.791
82.156
81.472
80.788
80.104
79.323
78.444
77.613
76.783
76.05
75.318
74.536
73.803
73.071
72.387
71.605
70.922
70.287
69.749
69.163
68.724
68.284
67.844
67.503
67.112
66.819
66.428
66.037
65.744
65.402
65.109
64.865
64.621
64.377
64.181
63.937
63.742
63.595
63.448
63.253
63.058
62.862
62.618
62.374
62.13
61.885
61.69
61.544
61.69
62.374
64.181
67.942
74.097
82.547
92.364
102.43
112
120.5
127.63
133.3
137.45
140.23
141.94
142.62
142.67
142.23
141.45
140.38
139.16
137.94
136.62
135.3
133.98
132.66
131.24
129.73
128.07
126.07
123.67
120.89
117.62
113.86
109.8
105.5
101.11
97.004
93.292
90.313
87.919
86.308
85.233
84.549
84.256
84.158
84.305
84.403
84.598
84.696
84.696
84.549
84.354
84.012
83.475
82.84
82.156
81.374
80.544
79.762
78.883
78.053
77.174
76.343
75.562
74.78
74.097
73.413
72.778
72.192
71.605
71.068
70.482
70.042
69.603
69.163
68.821
68.431
68.089
67.747
67.405
67.063
66.721
66.428
66.135
65.793
65.549
65.305
65.109
65.012
64.816
64.621
64.474
64.279
64.181
64.035
63.839
63.693
63.497
63.253
63.009
62.814
62.862
63.497
65.305
69.261
75.66
84.5
94.806
105.36
115.37
124.26
131.73
137.74
142.19
145.16
146.92
147.7
147.8
147.41
146.83
146.04
145.31
144.43
143.55
142.62
141.55
140.48
139.35
138.03
136.62
134.91
133
130.76
128.17
125.24
121.82
118.01
113.81
109.31
104.72
100.33
96.369
92.999
90.313
88.359
86.991
86.161
85.819
85.673
85.673
85.819
85.868
85.917
85.819
85.575
85.184
84.696
84.012
83.279
82.449
81.57
80.69
79.86
79.03
78.199
77.418
76.636
75.855
75.122
74.341
73.608
72.875
72.094
71.508
70.873
70.287
69.749
69.31
68.87
68.431
67.991
67.6
67.161
66.819
66.477
66.233
65.94
65.695
65.353
65.109
64.865
64.621
64.377
64.132
63.839
63.595
63.448
63.155
63.009
62.667
62.374
62.032
61.739
61.495
61.348
61.446
61.983
63.742
67.307
73.364
81.716
91.436
101.45
110.88
119.18
126.26
131.88
136.08
138.91
140.62
141.45
141.55
141.26
140.62
139.74
138.77
137.69
136.57
135.35
134.22
133.05
131.78
130.51
128.95
127.14
125.04
122.55
119.67
116.3
112.44
108.29
103.94
99.691
95.686
92.218
89.434
87.236
85.721
84.745
84.158
84.012
84.11
84.305
84.5
84.598
84.696
84.598
84.5
84.158
83.719
83.23
82.595
81.912
81.228
80.544
79.811
78.981
78.199
77.369
76.539
75.855
75.171
74.487
73.803
73.168
72.533
71.947
71.312
70.677
70.091
69.603
69.163
68.724
68.284
67.942
67.6
67.258
66.965
66.721
66.477
66.281
66.135
65.988
65.744
65.549
65.305
65.06
64.816
64.621
64.425
64.23
64.035
63.839
63.595
63.448
63.155
62.911
62.716
62.862
63.693
66.037
70.629
77.76
86.991
97.346
107.8
117.47
125.97
133
138.42
142.43
145.07
146.53
147.17
147.17
146.73
146
145.07
144.14
143.11
142.14
141.11
140.18
139.16
138.03
136.81
135.35
133.74
131.73
129.44
126.7
123.48
119.81
115.66
111.12
106.48
101.89
97.591
93.976
90.997
88.75
87.138
86.063
85.477
85.282
85.379
85.575
85.819
86.063
86.161
86.259
86.112
85.819
85.282
84.696
83.914
82.986
82.058
81.13
80.251
79.372
78.541
77.809
77.027
76.343
75.611
74.878
74.097
73.364
72.68
72.094
71.557
71.068
70.531
70.091
69.603
69.163
68.821
68.431
68.04
67.747
67.356
67.063
66.672
66.379
66.037
65.744
65.5
65.256
65.06
64.865
64.621
64.377
64.035
63.742
63.448
63.155
62.911
62.667
62.472
62.374
62.618
63.693
66.379
71.41
78.981
88.506
98.909
109.36
119.03
126.99
132.61
136.62
139.99
142.67
144.29
144.73
144.58
144.19
143.6
143.02
142.23
141.45
140.57
139.5
138.42
137.25
135.98
134.61
133
131.2
129
126.51
123.48
120.06
116.1
111.76
107.12
102.47
98.03
94.123
90.801
88.164
86.308
84.989
84.256
83.914
84.012
84.158
84.5
84.745
84.793
84.745
84.549
84.256
83.719
83.182
82.547
81.863
81.032
80.251
79.372
78.492
77.613
76.783
76.05
75.318
74.683
73.999
73.315
72.68
71.996
71.361
70.824
70.238
69.749
69.31
68.87
68.431
67.991
67.551
67.161
66.868
66.623
66.428
66.233
65.988
65.793
65.598
65.5
65.402
65.305
65.109
64.914
64.816
64.621
64.425
64.377
64.23
64.181
63.986
63.839
63.595
63.302
63.107
63.009
63.302
64.474
67.307
72.289
79.762
88.945
98.909
108.82
117.81
125.68
132.07
137.01
140.48
142.67
143.75
143.99
143.7
143.02
141.99
140.82
139.5
138.13
136.76
135.35
133.98
132.56
130.95
129.19
127.19
124.94
122.31
119.33
115.76
111.76
107.31
102.82
98.567
94.855
91.68
89.092
87.138
85.819
84.94
84.549
84.5
84.696
84.989
85.282
85.624
85.673
85.673
85.477
85.184
84.696
84.061
83.377
82.595
81.814
80.935
80.055
79.127
78.297
77.467
76.734
76.001
75.22
74.438
73.755
72.973
72.387
71.752
71.117
70.629
70.091
69.603
69.163
68.724
68.382
67.991
67.6
67.307
67.063
66.721
66.477
66.233
65.988
65.744
65.549
65.353
65.158
65.012
64.865
64.67
64.474
64.377
64.181
63.986
63.79
63.595
63.448
63.155
63.009
62.862
62.862
63.546
65.402
69.407
76.001
84.842
95.099
105.6
115.61
124.55
132.07
137.98
142.38
145.26
146.92
147.75
147.85
147.56
146.92
146.14
145.26
144.24
143.26
142.19
141.11
139.99
138.81
137.45
135.93
134.17
132.17
129.88
127.19
124.06
120.55
116.64
112.24
107.7
103.06
98.665
94.806
91.632
89.189
87.382
86.259
85.575
85.233
85.233
85.379
85.477
85.575
85.624
85.624
85.428
85.135
84.598
83.914
83.182
82.302
81.423
80.544
79.762
78.932
78.199
77.369
76.539
75.806
74.976
74.292
73.608
72.924
72.24
71.508
70.726
70.091
69.554
69.066
68.675
68.284
67.942
67.551
67.258
66.916
66.623
66.379
66.135
65.793
65.549
65.305
65.06
64.718
64.474
64.279
64.035
63.79
63.546
63.302
63.058
62.814
62.569
62.276
62.032
61.788
61.544
61.348
61.299
61.348
61.885
63.253
66.233
71.557
79.225
88.701
98.812
108.68
117.67
125.43
131.78
136.67
140.13
142.23
143.36
143.6
143.26
142.58
141.6
140.57
139.5
138.42
137.3
136.18
134.91
133.69
132.32
130.8
129.05
126.99
124.55
121.57
118.11
114.2
109.85
105.41
101.06
97.053
93.536
90.606
88.359
86.747
85.819
85.233
85.038
85.135
85.233
85.379
85.477
85.575
85.575
85.428
85.184
84.745
84.11
83.377
82.595
81.814
80.984
80.153
79.372
78.541
77.76
76.881
76.05
75.22
74.536
73.852
73.168
72.533
71.947
71.361
70.873
70.384
69.945
69.407
69.066
68.675
88.408
86.698
85.575
84.842
84.5
84.354
84.354
84.354
84.403
84.354
84.305
84.061
83.572
82.791
82.253
82.253
82.498
81.912
80.495
79.372
79.567
80.055
79.665
78.737
77.662
76.441
74.878
73.168
71.605
70.238
68.968
68.04
67.112
66.233
65.305
64.474
63.693
62.667
61.739
61.153
61.153
61.348
61.495
61.592
62.13
62.814
63.253
63.253
63.009
62.814
62.667
62.569
62.374
62.179
61.885
61.592
61.348
61.153
60.909
60.664
60.42
60.176
59.932
59.59
59.443
59.15
58.857
58.418
58.124
57.783
57.734
58.124
59.541
62.911
68.724
76.881
86.161
95.637
104.38
111.95
118.25
123.28
127.14
129.63
131.05
131.54
131.39
130.85
130.22
129.53
128.75
127.83
126.75
125.24
123.38
121.43
119.57
117.76
115.91
113.86
111.56
108.73
105.5
101.94
98.225
94.611
91.192
87.968
85.233
83.133
81.667
80.886
80.495
80.446
80.495
80.495
80.349
80.349
80.739
81.228
81.57
81.423
80.69
79.665
78.59
77.76
77.174
76.783
76.441
75.806
74.927
74.048
73.413
72.875
72.24
71.508
70.677
69.847
69.163
68.479
67.942
67.503
66.965
66.526
66.233
65.988
65.842
65.793
65.744
65.598
65.402
65.158
64.865
64.621
64.377
64.132
63.839
63.693
63.497
63.302
63.107
62.911
62.716
62.569
62.423
62.227
61.934
61.69
61.739
62.374
63.302
64.572
67.063
72.045
79.909
89.727
100.13
110.05
119.13
126.85
133.2
137.69
140.62
142.38
143.16
143.26
142.62
141.55
140.23
138.91
137.59
136.47
135.49
134.76
133.98
132.95
131.63
129.88
127.68
125.04
122.06
118.74
115.13
111.07
106.72
102.38
98.177
94.562
91.387
88.603
86.356
84.5
82.986
81.814
80.984
80.593
80.495
80.495
80.739
81.179
81.716
82.449
82.986
83.279
83.279
82.986
82.449
81.814
80.935
79.811
78.541
77.369
76.294
75.415
74.731
74.048
73.315
72.485
71.654
70.97
70.384
69.749
69.163
68.528
67.991
67.405
66.965
66.623
66.233
65.94
65.598
65.353
65.109
64.718
64.425
64.035
63.742
63.448
63.058
62.667
62.423
62.179
61.983
61.885
61.739
61.69
61.495
61.251
60.811
60.225
59.981
60.322
61.055
61.592
61.69
61.446
61.104
60.811
60.322
59.736
59.248
58.662
58.027
57.685
57.978
59.101
61.592
66.379
73.852
83.377
93.439
102.91
111.41
118.89
124.75
129
131.73
133.2
133.78
133.98
133.98
133.93
133.93
133.93
133.93
133.74
133.2
132.17
131.05
129.73
128.26
126.51
124.5
122.31
119.81
117.03
113.81
110.24
106.43
102.43
98.323
94.318
90.606
87.529
85.184
83.475
82.351
81.667
81.374
81.277
81.374
81.472
81.667
81.863
82.009
82.107
82.107
81.863
81.472
80.935
80.251
79.567
78.883
78.102
77.369
76.636
75.855
75.122
74.438
73.657
73.071
72.387
71.605
70.922
70.384
69.945
69.554
69.114
68.675
68.235
67.844
67.503
67.112
66.672
66.281
66.037
65.842
65.549
65.158
64.816
64.474
64.23
64.035
63.79
63.546
63.302
63.058
62.814
62.472
62.227
61.983
61.739
61.592
61.495
61.348
61.251
61.104
60.909
60.664
60.469
60.322
60.225
60.371
61.104
63.448
68.04
75.318
84.598
94.758
104.62
113.51
121.13
127.24
132.07
135.49
137.79
139.16
139.89
139.99
139.74
139.25
138.47
137.69
136.76
135.69
134.61
133.49
132.32
131.05
129.63
128.07
126.31
124.26
121.91
119.18
116.05
112.54
108.53
104.28
99.935
95.734
91.973
88.799
86.308
84.5
83.23
82.498
82.156
82.156
82.302
82.547
82.693
82.742
82.693
82.498
82.253
81.814
81.277
80.739
80.104
79.469
78.883
78.248
77.564
76.783
75.904
75.073
74.194
73.364
72.533
71.85
71.312
70.824
70.384
69.847
69.359
68.87
68.382
67.844
67.307
66.868
66.428
66.037
65.744
65.402
65.158
64.914
64.67
64.425
64.181
63.839
63.546
63.302
63.058
62.814
62.569
62.276
62.032
61.885
61.592
61.299
61.006
60.616
60.322
60.029
59.785
59.59
59.492
59.492
59.981
61.544
64.914
70.726
78.883
88.359
98.177
107.31
115.42
122.26
127.68
131.73
134.57
136.37
137.5
138.03
138.23
138.18
137.79
137.25
136.57
135.74
134.81
133.88
132.76
131.54
130.22
128.75
127.14
125.24
122.99
120.35
117.37
113.86
110.05
105.85
101.55
97.2
93.097
89.531
86.552
84.256
82.595
81.57
80.935
80.739
80.788
81.032
81.228
81.472
81.57
81.57
81.374
81.032
80.593
80.104
79.567
78.932
78.248
77.467
76.685
75.806
75.073
74.292
73.608
72.924
72.24
71.557
70.873
70.238
69.603
69.066
68.528
67.991
67.503
67.063
66.672
66.281
65.988
65.598
65.305
65.06
64.816
64.621
64.425
64.181
63.986
63.79
63.595
63.448
63.253
63.058
62.814
62.618
62.423
62.374
62.276
62.227
62.179
62.032
61.983
61.885
61.739
61.544
61.348
61.153
61.104
61.69
63.497
67.307
73.657
82.156
91.876
101.55
110.44
118.11
124.36
129.24
132.76
135.1
136.62
137.35
137.5
137.11
136.37
135.35
134.17
132.86
131.49
130.07
128.61
127.04
125.48
123.72
121.82
119.62
117.13
114.3
111.07
107.51
103.7
99.691
95.783
92.12
88.994
86.356
84.403
82.986
82.058
81.57
81.374
81.374
81.472
81.618
81.716
81.716
81.667
81.57
81.277
80.984
80.544
80.007
79.323
78.59
77.906
77.174
76.441
75.66
74.927
74.243
73.51
72.778
72.045
71.312
70.629
69.994
69.505
69.066
68.626
68.186
67.698
67.258
66.819
66.379
65.988
65.598
65.256
64.914
64.621
64.377
64.132
63.937
63.595
63.351
63.107
62.862
62.667
62.472
62.276
62.13
61.934
61.739
61.592
61.446
61.299
61.104
60.909
60.713
60.567
60.371
60.322
60.567
61.69
64.474
69.603
77.223
86.747
96.907
106.82
115.61
123.18
129.39
134.17
137.74
140.13
141.5
142.14
142.19
141.94
141.31
140.57
139.69
138.77
137.74
136.67
135.54
134.42
133.2
131.88
130.36
128.7
126.75
124.55
122.01
119.13
115.81
112.05
107.95
103.6
99.154
95.002
91.241
88.164
85.721
84.012
82.742
82.107
81.814
81.863
82.009
82.156
82.302
82.302
82.156
81.912
81.57
81.179
80.69
80.104
79.469
78.786
78.004
77.223
76.441
75.66
74.878
74.048
73.217
72.436
71.654
70.873
70.189
69.554
68.968
68.479
68.04
67.551
67.063
66.526
66.037
65.598
65.256
64.865
64.621
64.377
64.181
63.937
63.742
63.497
63.253
62.911
62.667
62.472
62.276
62.179
61.983
61.739
61.544
61.446
61.251
61.055
60.811
60.616
60.42
60.225
60.127
59.981
59.981
60.469
62.032
65.549
71.557
79.86
89.531
99.495
108.68
116.79
123.58
128.95
133
135.79
137.59
138.47
138.67
138.33
137.59
136.62
135.54
134.32
133
131.63
130.32
129
127.63
126.12
124.41
122.5
120.3
117.76
114.73
111.32
107.51
103.5
99.349
95.344
91.68
88.603
86.112
84.305
82.986
82.253
81.814
81.716
81.814
82.009
82.156
82.302
82.351
82.253
81.912
81.472
80.984
80.349
79.665
79.03
78.346
77.662
76.929
76.197
75.415
74.683
73.852
73.071
72.24
71.605
70.97
70.433
69.945
69.359
68.87
68.382
67.844
67.356
66.916
66.526
66.233
65.94
65.695
65.353
65.012
64.67
64.377
64.035
63.79
63.693
63.546
63.351
63.155
62.911
62.667
62.423
62.179
61.934
61.739
61.592
61.446
61.299
61.104
60.909
60.713
60.567
60.42
60.713
61.788
64.425
69.407
77.027
86.601
96.907
106.87
115.81
123.58
129.97
135.1
138.86
141.45
142.92
143.6
143.75
143.5
143.02
142.43
141.75
141.01
140.13
139.06
137.79
136.47
135.2
133.78
132.37
130.8
128.95
126.75
124.31
121.57
118.35
114.88
110.92
106.82
102.57
98.47
94.806
91.632
88.994
87.04
85.673
84.842
84.158
83.572
83.23
83.475
84.012
84.158
83.719
82.986
82.302
81.667
81.032
80.349
79.762
79.03
78.297
77.613
76.929
76.246
75.464
74.683
73.755
72.68
71.508
70.384
69.505
68.919
68.528
68.089
67.6
67.112
66.672
66.379
66.037
65.793
65.402
65.012
64.621
64.279
64.035
63.79
63.448
62.911
62.423
62.032
61.788
61.69
61.544
61.446
61.348
61.251
61.153
61.104
61.104
61.104
61.055
60.909
60.86
60.86
60.811
60.713
60.664
60.86
61.983
64.718
69.994
77.76
87.187
97.2
106.72
115.32
122.6
128.56
133.1
136.37
138.47
139.69
140.18
140.13
139.6
138.91
137.98
136.91
135.79
134.61
133.34
132.12
130.8
129.29
127.48
125.38
122.94
120.3
117.37
114.2
110.73
107.26
103.84
100.47
97.2
94.074
91.29
88.945
86.943
85.282
84.061
83.23
82.595
82.156
82.009
81.863
81.814
81.863
81.863
81.814
81.618
81.228
80.788
80.349
79.909
79.469
78.981
78.346
77.662
76.929
76.05
75.22
74.341
73.559
72.729
71.996
71.312
70.629
69.994
69.407
68.919
68.626
68.479
68.919
70.433
73.608
78.932
86.356
95.099
104.28
113.12
121.13
127.87
133.2
136.91
139.3
140.57
141.06
141.06
140.87
140.57
140.18
139.55
138.81
137.89
136.67
135.2
133.34
131.24
128.85
126.41
123.82
121.18
118.35
115.22
111.8
108.04
103.99
99.789
95.734
91.973
88.799
86.259
84.354
83.182
82.547
82.449
82.547
82.84
83.182
83.279
83.279
83.133
82.84
82.742
82.742
82.449
81.57
80.349
79.323
78.59
78.248
78.004
77.564
76.929
76.099
75.22
74.487
73.559
72.436
71.166
69.945
68.919
68.089
67.503
66.965
66.623
66.281
66.037
65.793
65.549
65.305
65.109
64.816
64.474
64.132
63.595
63.107
62.716
62.667
62.667
62.472
61.885
61.299
61.104
61.299
61.446
61.348
61.299
61.446
61.592
61.544
61.104
60.371
59.346
58.418
57.587
57.05
56.659
56.561
56.464
56.561
56.659
56.806
56.903
56.903
56.757
56.415
56.073
55.878
56.22
57.88
61.788
68.479
77.76
88.408
99.495
110.05
119.57
127.63
133.98
138.81
142.04
143.85
144.43
144.14
143.26
142.19
141.06
139.99
139.01
138.18
137.45
136.67
135.98
135.1
134.08
132.56
130.76
128.56
126.12
123.28
120.25
116.79
113.12
109.07
104.82
100.57
96.467
92.804
89.824
87.431
85.819
84.549
83.572
82.498
81.57
80.984
81.179
82.107
83.377
84.256
84.696
84.745
84.696
84.305
83.572
82.449
81.032
79.616
78.248
76.978
76.001
75.22
74.536
73.901
73.364
72.924
72.485
71.85
71.215
70.629
70.189
69.798
69.505
69.163
68.87
68.528
68.235
67.942
67.6
67.258
66.868
66.379
65.793
65.109
64.279
63.546
63.253
63.448
63.839
64.23
64.377
64.279
64.377
64.425
64.377
64.132
63.546
62.862
62.179
61.69
61.348
61.104
60.86
60.469
60.322
60.322
60.909
62.862
66.965
73.755
82.547
92.315
102.04
111.36
119.77
126.8
132.22
136.18
138.81
140.43
141.16
141.35
141.16
140.82
140.43
139.94
139.45
138.77
137.94
137.01
135.93
134.61
133.1
131.39
129.39
127.04
124.6
121.87
118.74
115.22
111.22
107.07
102.82
98.909
95.539
92.755
90.362
88.408
86.991
85.966
85.282
84.94
84.696
84.696
84.842
85.038
85.135
84.94
84.5
84.012
83.475
82.937
82.302
81.618
80.886
80.007
79.127
78.199
77.223
76.294
75.22
74.243
73.364
72.631
71.85
71.166
70.726
70.531
70.531
70.824
70.873
70.677
70.287
70.042
69.798
69.505
69.066
68.528
67.991
67.307
66.623
65.988
65.549
65.256
65.012
64.718
64.572
64.474
64.425
64.377
64.132
63.79
63.546
63.497
63.497
63.351
63.107
62.862
62.716
62.911
63.742
65.842
70.091
76.734
85.282
95.051
105.01
114.3
122.31
128.75
133.74
137.35
139.74
141.16
141.79
141.99
141.99
141.75
141.11
140.38
139.69
139.01
138.33
137.54
136.76
135.88
134.86
133.69
132.37
130.66
128.61
126.12
123.04
119.37
115.08
110.19
105.06
100.23
96.076
92.804
90.215
88.359
86.991
86.063
85.428
85.135
84.94
84.793
84.696
84.549
84.403
84.354
84.11
83.816
83.377
82.84
82.302
81.667
80.935
80.007
78.932
77.662
76.343
75.122
73.852
72.729
71.605
70.726
69.994
69.505
69.114
68.724
68.382
67.942
67.503
67.063
66.623
66.281
66.135
65.94
65.744
65.549
65.256
64.914
64.621
64.23
63.839
63.302
62.814
62.472
62.374
62.423
62.569
62.618
62.374
61.983
61.495
61.006
60.567
60.225
60.029
59.883
59.541
59.15
58.857
58.906
59.59
61.495
65.5
72.045
80.788
90.655
100.42
109.12
116.35
121.91
99.349
95.099
90.997
87.382
84.403
82.351
81.228
80.984
81.423
82.107
82.547
82.791
83.035
83.23
83.23
82.986
82.498
81.912
81.228
80.446
79.762
79.127
78.786
78.688
78.541
78.248
77.564
76.636
75.562
74.487
73.51
72.631
71.85
71.166
70.531
69.945
69.407
68.968
68.675
68.382
68.089
67.747
67.258
66.672
66.135
65.598
65.06
64.474
63.986
63.448
62.862
62.472
62.13
61.934
61.885
61.983
62.13
62.179
62.276
62.423
62.472
62.569
62.569
62.472
62.374
62.13
61.739
61.446
61.348
61.983
63.839
67.698
73.755
81.912
91.485
101.45
110.97
119.67
127.24
133.49
138.18
141.35
143.26
144.14
144.19
143.55
142.38
140.87
139.3
137.94
136.81
136.08
135.44
134.86
134.17
133.25
131.93
130.22
128.12
125.48
122.45
118.98
115.32
111.41
107.41
103.31
99.251
95.441
92.071
89.238
86.991
85.379
84.158
83.475
83.23
83.23
83.377
83.475
83.475
83.377
83.23
83.133
82.84
82.547
82.107
81.472
80.739
79.86
78.981
78.102
77.223
76.343
75.464
74.683
73.803
72.973
72.24
71.508
70.824
70.091
69.554
69.114
68.675
68.382
68.04
67.747
67.356
66.916
66.477
66.037
65.598
65.158
64.865
64.474
64.23
63.986
63.742
63.497
63.253
63.058
62.716
62.423
62.13
61.885
61.69
61.788
62.618
64.865
69.261
76.05
84.745
94.318
103.74
112.39
119.81
125.87
130.61
133.98
136.32
137.59
138.33
138.47
138.33
137.89
137.35
136.67
135.93
135.01
133.93
132.81
131.68
130.41
129.09
127.63
125.87
123.72
121.23
118.3
114.88
110.97
106.72
102.28
97.884
93.732
90.117
87.138
84.842
83.23
82.156
81.618
81.423
81.423
81.618
81.814
81.912
82.009
82.009
81.863
81.57
81.179
80.593
80.007
79.323
78.541
77.809
76.978
76.197
75.415
74.683
73.901
73.217
72.533
71.85
71.215
70.531
69.945
69.359
68.87
68.382
67.991
67.6
67.307
66.965
66.721
66.477
66.233
65.988
65.695
65.353
65.06
64.67
64.377
64.132
63.937
63.742
63.546
63.448
63.351
63.253
63.107
62.862
62.618
62.276
61.934
61.592
61.348
61.153
61.055
61.006
60.909
60.909
60.86
60.713
60.567
60.371
60.176
60.176
60.713
62.569
66.623
73.217
82.107
92.169
102.28
111.66
120.01
126.99
132.42
136.47
139.11
140.67
141.45
141.6
141.31
140.67
139.89
138.86
137.79
136.67
135.44
134.22
133.05
131.93
130.61
129.24
127.48
125.48
123.04
120.25
116.93
113.22
109.12
104.82
100.57
96.467
92.95
89.873
87.431
85.624
84.403
83.719
83.279
83.133
83.182
83.279
83.426
83.475
83.572
83.572
83.377
82.986
82.498
81.912
81.228
80.446
79.616
78.737
77.906
77.027
76.294
75.464
74.78
74.048
73.315
72.631
71.947
71.215
70.629
69.994
69.359
68.87
68.431
68.04
67.747
67.405
67.112
66.819
66.477
66.135
65.793
65.5
65.158
64.914
64.718
64.572
64.279
64.035
63.742
63.448
63.107
62.911
62.814
62.911
63.742
65.842
69.847
76.246
84.696
94.171
103.84
112.88
120.79
127.43
132.66
136.47
139.06
140.57
141.16
141.26
140.92
140.33
139.5
138.57
137.54
136.47
135.49
134.37
133.25
131.98
130.56
129
127.24
125.24
123.04
120.5
117.42
113.81
109.66
105.36
101.01
96.809
92.853
89.482
86.796
84.842
83.67
82.986
82.693
82.693
82.84
83.182
83.426
83.572
83.475
83.23
82.84
82.351
81.667
80.984
80.251
79.469
78.688
77.906
77.125
76.343
75.66
74.927
74.243
73.51
72.68
71.947
71.215
70.629
70.042
69.505
68.919
68.431
67.942
67.405
67.063
66.672
66.281
65.94
65.549
65.158
64.816
64.572
64.377
64.23
63.986
63.79
63.497
63.253
62.911
62.569
62.276
61.983
61.788
61.739
61.69
61.592
61.495
61.251
61.055
60.811
60.616
60.42
60.225
60.127
59.981
59.785
59.687
59.492
59.297
59.15
59.053
59.101
59.736
61.544
65.353
71.752
80.349
90.362
100.47
109.85
118.2
125.04
130.51
134.57
137.2
138.81
139.5
139.69
139.5
138.91
138.18
137.25
136.13
134.86
133.64
132.37
131.05
129.68
128.26
126.6
124.85
122.75
120.16
117.18
113.61
109.66
105.41
101.16
97.102
93.488
90.557
88.261
86.503
85.282
84.403
83.914
83.67
83.621
83.572
83.426
83.279
83.182
82.986
82.84
82.595
82.253
81.667
80.984
80.153
79.372
78.492
77.613
76.685
75.806
74.976
74.292
73.657
73.168
72.68
72.192
71.605
71.117
70.726
70.433
69.994
69.359
68.675
68.04
67.551
67.161
66.623
65.94
65.402
65.158
64.914
64.621
64.425
64.425
64.474
64.377
64.23
64.23
64.23
64.181
63.986
63.839
63.742
63.546
63.351
63.107
62.814
62.472
62.179
61.934
61.592
61.446
61.348
61.788
63.253
66.428
71.996
79.86
89.287
99.3
108.92
117.62
124.99
130.95
135.49
138.77
140.87
142.19
142.82
142.87
142.62
142.04
141.31
140.57
139.79
139.06
138.38
137.59
136.76
135.79
134.66
133.25
131.49
129.39
126.99
124.26
121.18
117.62
113.76
109.61
105.31
101.01
96.907
93.292
90.313
87.919
86.161
84.94
84.11
83.67
83.426
83.377
83.426
83.475
83.475
83.377
83.182
82.791
82.302
81.667
80.935
80.251
79.469
78.688
77.906
77.174
76.441
75.757
74.976
74.292
73.559
72.778
72.045
71.361
70.677
70.042
69.505
68.919
68.382
67.844
67.405
66.965
66.477
66.037
65.695
65.353
65.06
64.816
64.474
64.279
64.132
63.937
63.742
63.546
63.302
63.058
62.814
62.472
62.276
62.13
61.934
61.788
61.592
61.299
61.006
60.664
60.371
60.176
59.981
59.981
60.42
61.885
65.158
70.824
78.59
87.724
97.102
106.04
114.05
120.79
126.12
130.12
133
134.86
135.98
136.57
136.57
136.23
135.64
134.81
133.88
132.81
131.73
130.76
129.73
128.75
127.63
126.36
124.85
123.04
120.79
118.2
115.17
111.8
108.04
103.99
99.789
95.734
92.071
88.994
86.601
84.94
83.719
82.986
82.595
82.498
82.693
82.937
83.182
83.279
83.377
83.182
82.791
82.253
81.618
80.984
80.349
79.762
79.225
78.737
78.102
77.369
76.539
75.757
74.976
74.292
73.608
72.924
72.289
71.654
71.068
70.384
69.798
69.31
68.87
68.479
68.04
67.6
67.112
66.721
66.428
66.135
65.842
65.598
65.305
65.012
64.621
64.377
64.132
63.839
63.693
63.497
63.253
63.058
62.814
62.618
62.423
62.227
62.032
61.788
61.592
61.348
61.251
61.153
61.544
62.716
65.549
70.677
78.248
87.48
97.297
106.87
115.47
122.79
128.8
133.34
136.62
138.77
140.04
140.72
140.87
140.72
140.48
140.04
139.45
138.77
137.89
137.01
136.08
135.01
133.78
132.42
131
129.39
127.48
125.38
122.84
119.91
116.54
112.73
108.63
104.28
100.03
95.979
92.413
89.531
87.382
85.673
84.5
83.719
83.377
83.23
83.182
83.279
83.426
83.621
83.67
83.67
83.475
83.182
82.742
82.107
81.277
80.446
79.469
78.444
77.418
76.441
75.562
74.78
74.048
73.315
72.533
71.85
71.215
70.726
70.238
69.603
68.87
68.04
67.503
67.112
66.721
66.379
65.94
65.695
65.549
65.402
65.109
64.816
64.425
63.986
63.546
63.058
62.618
62.374
62.179
62.13
61.983
61.788
61.495
61.104
60.713
60.371
60.127
59.932
59.883
59.785
59.883
60.225
61.299
63.839
68.528
75.562
84.403
94.074
103.5
112.05
119.42
125.43
130.07
133.49
135.88
137.25
137.94
138.03
137.74
137.2
136.42
135.64
134.76
133.88
133.05
132.17
131.29
130.22
129.05
127.53
125.82
123.72
121.38
118.59
115.42
111.85
107.99
103.84
99.74
95.734
92.169
89.043
86.503
84.5
83.133
82.253
81.814
81.667
81.716
81.814
81.863
81.912
82.009
82.009
81.912
81.716
81.374
80.886
80.3
79.762
79.176
78.59
77.906
77.174
76.441
75.757
74.976
74.292
73.559
72.875
72.24
71.654
71.166
70.677
70.238
69.749
69.163
68.626
67.942
67.307
66.868
66.526
66.281
65.988
65.549
65.158
64.914
64.816
64.67
64.572
64.377
64.23
63.986
63.79
63.546
63.351
63.107
62.911
62.814
62.618
62.472
62.276
62.13
61.885
61.592
61.446
61.495
62.179
64.132
68.089
74.438
82.84
92.511
102.18
111.22
119.18
125.82
130.95
134.66
137.2
138.77
139.55
139.89
139.69
139.11
138.23
137.3
136.42
135.54
134.76
133.88
132.86
131.78
130.51
129.05
127.43
125.58
123.28
120.74
117.67
114.1
110.09
105.8
101.35
97.004
93.097
89.971
87.529
85.721
84.403
83.67
83.377
83.23
83.377
83.475
83.67
83.67
83.67
83.475
83.23
82.791
82.351
81.814
81.179
80.446
79.567
78.59
77.858
77.174
76.441
75.464
74.487
73.608
73.071
72.631
72.094
71.508
70.873
70.287
69.749
69.261
68.675
68.186
67.747
67.307
66.916
66.477
66.184
65.793
65.402
65.012
64.572
64.181
63.79
63.497
63.155
62.862
62.618
62.472
62.472
62.423
62.276
62.179
62.032
61.885
61.592
61.348
61.006
60.664
60.371
60.225
60.469
61.495
63.986
68.675
75.806
84.793
94.416
103.79
112.19
119.42
125.43
130.12
133.54
135.93
137.35
138.13
138.33
138.18
137.74
137.11
136.42
135.79
135.1
134.37
133.54
132.56
131.39
129.97
128.41
126.6
124.6
122.31
119.57
116.44
112.88
108.97
104.82
100.47
96.369
92.56
89.238
86.601
84.696
83.279
82.498
82.107
82.009
82.058
82.156
82.302
82.351
82.302
82.156
82.009
81.618
81.228
80.69
80.007
79.176
78.444
77.613
76.734
75.855
75.122
74.438
73.852
73.217
72.729
72.24
71.752
71.215
70.726
70.238
69.798
69.359
68.919
68.528
68.089
67.747
67.307
66.868
66.477
66.184
65.94
65.695
65.402
65.158
64.914
64.67
64.425
64.132
63.839
63.693
63.497
63.302
63.155
63.107
63.009
62.911
62.814
62.618
62.472
62.276
62.13
61.983
61.983
62.423
63.937
67.356
73.168
81.228
90.655
100.42
109.61
117.62
124.26
129.53
133.54
136.32
138.13
139.06
139.35
139.25
138.77
137.98
137.11
136.13
135.1
134.08
132.95
131.73
130.56
129.24
127.83
126.26
124.36
122.11
119.42
116.3
112.78
108.92
104.82
100.62
96.565
92.999
89.922
87.48
85.624
84.305
83.475
83.035
82.937
82.937
82.937
82.986
82.986
82.937
82.791
82.595
82.302
81.912
81.423
80.886
80.153
79.421
78.59
77.809
77.027
76.343
75.611
74.878
74.048
73.217
72.485
71.801
71.215
70.677
70.091
69.505
68.919
68.431
67.991
67.551
67.112
66.721
66.428
66.233
65.988
65.695
65.353
64.914
64.474
64.035
63.693
63.302
63.009
62.716
62.472
62.276
62.179
62.13
62.13
62.032
61.983
61.788
61.592
61.348
61.104
60.86
60.811
61.104
62.227
65.012
69.994
77.418
86.747
96.858
106.82
115.76
123.23
129
133.25
136.13
137.89
138.86
139.3
139.5
139.25
138.81
138.18
137.54
136.91
136.32
135.64
134.81
133.88
132.66
131.39
129.93
128.17
126.26
123.92
121.23
118.11
114.54
110.63
106.43
102.04
97.786
93.927
90.557
87.871
85.819
84.305
83.377
82.742
82.498
82.351
82.302
82.302
82.351
82.351
82.351
82.253
81.863
81.228
80.446
79.616
78.883
78.199
77.564
76.978
76.343
75.757
74.976
74.194
73.315
72.485
71.752
71.068
70.384
69.798
69.31
68.821
68.235
67.747
67.258
66.721
66.233
65.842
65.5
65.158
64.865
64.572
64.23
63.986
63.693
63.448
63.107
62.862
62.667
62.472
62.276
62.13
61.885
61.69
61.446
61.251
61.153
61.153
61.104
61.055
60.909
60.713
60.371
59.932
59.541
59.443
59.736
61.055
63.986
69.261
76.734
85.868
95.441
104.62
112.78
119.81
125.43
129.73
132.81
134.76
135.79
136.18
136.08
135.64
134.91
133.98
132.95
131.73
130.56
129.39
128.12
126.8
125.29
123.67
121.91
120.01
117.67
114.98
111.76
108.04
104.04
99.935
95.979
92.413
89.385
86.943
85.038
83.719
82.84
82.302
82.058
81.912
82.009
82.058
82.107
82.156
82.058
81.863
81.618
81.179
80.739
80.104
79.421
78.737
78.053
77.32
76.539
75.855
75.122
74.341
73.608
72.875
72.094
71.41
70.824
70.189
69.554
69.066
68.528
68.089
67.698
67.307
66.916
66.526
66.135
65.744
65.402
65.06
64.816
64.572
64.279
64.132
63.937
63.742
63.546
63.351
63.107
62.862
62.618
62.374
62.227
62.13
61.983
61.885
61.69
61.495
61.299
61.104
60.86
60.616
60.469
60.469
61.055
62.716
66.428
72.533
80.886
90.606
100.57
109.95
118.25
125.24
130.85
135.1
138.13
139.99
141.06
141.35
141.26
140.72
140.13
139.35
138.57
137.79
137.06
136.23
135.35
134.42
133.34
132.17
130.76
129.05
127.14
124.8
122.11
119.13
115.66
112
107.95
103.74
99.495
95.539
91.973
89.092
86.796
85.135
83.914
83.23
82.84
82.693
82.595
82.595
82.693
82.693
82.547
82.302
82.009
81.57
81.032
80.495
79.86
79.127
78.297
77.564
76.783
76.001
75.171
74.292
73.51
72.729
71.996
71.312
70.629
69.945
69.359
68.821
68.235
67.747
67.258
66.721
66.379
65.988
65.598
65.305
64.914
64.621
64.23
63.937
63.693
63.448
63.155
62.911
62.667
62.423
62.179
61.983
61.788
61.592
61.348
61.104
60.909
60.664
60.469
60.322
60.127
59.883
59.59
59.346
59.248
59.297
59.785
61.299
64.572
70.189
78.004
87.138
96.467
105.41
113.32
120.01
125.29
129.24
132.07
133.78
134.81
135.2
135.2
134.86
134.32
133.69
132.95
132.12
131.29
130.41
129.49
128.51
127.39
126.07
124.55
122.75
120.69
118.2
115.22
112
108.39
104.48
100.47
96.565
92.853
89.678
86.991
84.842
83.279
82.302
81.667
81.423
81.374
81.423
81.57
81.716
81.912
81.912
81.863
81.57
81.179
80.739
80.3
79.762
79.127
78.346
77.613
76.929
76.197
75.366
74.634
73.852
73.168
72.533
71.947
71.312
70.726
70.189
69.603
69.066
68.479
68.04
67.698
67.307
66.965
66.672
66.379
66.037
65.793
65.549
65.305
65.012
64.718
64.865
65.598
67.747
71.801
78.199
86.405
95.686
104.92
113.56
121.04
127.29
132.17
135.74
138.03
139.45
139.99
139.99
139.55
138.86
138.03
137.11
136.13
135.1
134.13
133.1
132.12
131
129.73
128.17
126.36
124.16
121.62
118.69
115.32
111.61
107.6
103.45
99.251
95.295
91.876
88.994
86.747
85.038
83.865
83.133
82.742
82.595
82.595
82.742
82.84
82.937
82.84
82.791
82.547
82.253
81.716
81.179
80.495
79.811
78.981
78.199
77.369
76.539
75.757
74.976
74.243
73.51
72.729
72.045
71.41
70.824
70.287
69.798
69.31
68.821
68.284
67.844
67.356
66.916
66.477
66.135
65.793
65.5
65.256
65.012
64.718
64.474
64.181
63.839
63.546
63.155
62.862
62.618
62.423
62.179
61.934
61.739
61.495
61.153
60.909
60.664
60.42
60.176
59.932
59.736
59.541
59.443
59.297
59.15
59.004
58.808
58.564
58.369
58.173
58.027
58.32
59.346
62.13
67.356
75.22
84.94
95.246
105.11
114
121.62
127.83
132.61
136.13
138.42
139.89
140.48
140.57
140.33
139.74
139.11
138.42
137.74
137.01
136.18
135.25
134.13
132.86
131.49
129.97
128.17
126.12
123.67
120.79
117.47
113.76
109.66
105.36
101.01
96.76
92.853
89.531
86.845
84.842
83.475
82.547
82.009
81.716
81.716
81.863
82.058
82.253
82.302
82.253
82.009
81.667
81.228
80.739
80.153
79.616
78.981
78.346
77.76
77.027
76.343
75.66
74.878
74.048
73.168
72.289
71.41
70.677
69.994
69.505
69.114
68.821
68.479
68.186
67.844
67.503
67.258
66.916
66.672
66.428
66.233
66.037
65.842
65.744
65.598
65.353
65.109
64.816
64.572
64.377
64.181
63.937
63.693
63.497
63.351
63.253
63.155
63.058
62.862
62.667
62.423
62.227
61.983
61.739
61.495
61.251
61.153
61.495
62.618
65.305
70.189
77.369
86.259
95.734
104.92
113.32
120.55
126.51
131.2
134.57
136.81
138.03
138.57
138.42
137.89
137.06
136.13
135.01
133.88
132.66
131.44
130.22
128.95
127.53
126.07
124.41
122.5
120.25
117.67
114.64
111.17
107.41
103.31
99.154
95.246
91.729
88.799
86.503
84.745
83.572
82.84
82.498
82.351
82.498
82.595
82.791
82.84
82.84
82.742
82.498
82.107
81.618
81.032
80.446
79.811
79.176
78.492
77.76
76.978
76.246
75.415
74.683
73.901
73.168
72.436
71.752
71.166
70.629
70.042
69.554
69.066
68.626
68.089
67.747
67.307
66.916
66.623
66.233
65.94
65.549
65.305
65.06
64.865
64.67
64.425
64.23
63.986
63.79
63.595
63.448
63.155
63.009
62.814
62.618
62.423
62.276
62.13
61.983
61.788
61.592
61.446
61.251
61.104
61.299
62.276
64.67
69.261
76.099
84.989
94.758
104.38
113.32
121.04
127.63
132.76
136.57
139.11
140.67
141.45
141.55
141.16
140.57
139.74
138.81
137.79
136.76
135.69
134.61
133.49
132.37
131.1
129.68
127.97
126.07
123.82
121.18
118.2
114.78
111.07
106.97
102.72
98.567
94.758
91.387
88.603
86.503
84.94
83.816
83.182
82.791
82.595
82.498
82.498
82.498
82.449
82.253
82.009
81.618
81.228
80.739
80.153
79.567
78.883
78.199
77.564
76.881
76.099
75.318
74.438
73.608
73.12
72.778
72.289
71.508
70.629
69.798
69.163
68.626
68.04
67.551
67.161
66.868
66.526
66.184
65.842
65.598
65.305
65.06
64.718
64.425
64.181
63.839
63.595
63.302
63.107
62.862
62.667
62.472
62.374
62.227
62.13
62.032
61.934
61.739
61.592
61.495
61.299
61.055
60.86
60.713
60.713
61.153
62.472
65.549
70.824
78.346
87.431
96.858
105.85
114
120.99
126.75
131.2
134.42
136.57
137.69
138.13
137.94
137.3
136.37
135.2
133.93
132.66
131.29
129.97
128.7
127.29
125.82
124.16
122.31
120.16
117.62
114.73
111.51
107.85
103.94
99.935
95.979
92.511
89.482
87.04
85.184
83.865
82.986
82.449
82.156
82.058
82.107
82.156
82.253
82.253
82.156
82.058
81.863
81.472
81.13
80.593
80.007
79.372
78.688
77.906
77.174
76.343
75.562
74.78
74.048
73.364
72.729
72.094
71.557
70.922
70.384
69.798
69.31
68.87
68.431
67.991
67.551
67.112
66.721
66.428
66.184
65.842
65.549
65.158
64.865
64.621
64.377
64.132
63.839
63.693
63.497
63.351
63.253
63.058
62.911
62.814
62.618
62.472
62.227
62.032
61.788
61.544
61.348
61.153
61.104
61.299
62.13
64.377
68.724
75.562
84.403
94.318
104.23
113.42
121.57
128.31
133.74
137.74
140.48
142.19
143.02
143.26
143.06
142.58
141.89
141.06
140.13
139.16
138.18
137.11
136.08
134.86
133.64
132.22
130.66
128.95
126.99
124.7
122.06
119.03
115.61
111.8
107.6
103.31
99.056
95.197
91.876
89.189
87.138
85.624
84.598
84.061
83.816
83.67
83.621
83.621
83.67
83.621
83.475
83.23
82.84
82.351
81.716
81.13
80.349
79.616
78.883
78.102
77.369
76.636
75.855
75.122
74.341
73.608
72.924
72.24
71.557
70.922
70.433
69.847
69.359
68.87
68.382
67.942
67.405
66.916
66.428
65.988
65.549
65.158
64.865
64.621
64.377
64.181
64.035
63.937
63.79
63.595
63.351
63.058
62.814
62.472
62.227
61.983
61.739
61.544
61.299
61.104
60.86
60.664
60.469
60.371
60.42
61.006
62.716
66.428
72.485
80.593
89.873
99.251
108.04
115.86
122.5
127.83
131.78
134.61
136.37
137.3
137.69
137.5
137.06
136.37
135.54
134.61
133.64
132.51
131.39
130.17
128.95
127.53
126.12
124.41
122.5
120.16
117.57
114.54
111.07
107.26
103.16
99.007
95.002
91.387
88.31
85.868
84.061
82.742
81.863
81.374
81.179
81.179
81.179
81.228
81.277
81.277
81.228
81.13
80.886
80.593
80.3
80.007
79.567
79.03
78.444
77.76
76.978
62.227
65.06
70.238
77.858
86.991
96.369
105.06
112.68
119.18
124.6
128.95
132.22
134.66
136.57
138.03
139.11
139.6
139.5
139.01
138.13
136.81
135.1
133.25
131.68
130.61
129.83
129.05
128.07
126.56
124.5
122.06
119.18
115.76
111.8
107.6
103.45
99.349
95.734
92.56
89.971
87.968
86.405
85.233
84.305
83.621
83.182
82.937
82.791
82.742
82.742
82.595
82.351
81.863
81.228
80.593
80.007
79.421
78.786
78.199
77.418
76.685
75.904
75.171
74.341
73.51
72.68
71.947
71.215
70.531
69.945
69.261
68.528
67.991
67.503
67.258
67.307
67.942
69.749
73.168
78.541
85.575
93.439
101.35
108.82
115.42
120.94
125.29
128.51
130.76
132.17
132.95
133.2
133.1
132.76
132.17
131.44
130.51
129.49
128.36
127.14
125.63
124.02
122.11
119.91
117.47
114.64
111.32
107.6
103.6
99.447
95.246
91.387
87.968
85.233
83.23
81.863
81.032
80.788
80.593
80.007
79.469
80.153
82.058
83.621
84.11
84.158
83.914
83.23
82.058
80.593
79.176
77.858
76.881
76.05
75.171
74.292
73.51
72.973
72.436
71.801
71.068
70.482
69.945
69.407
68.968
68.675
68.284
67.844
67.405
67.063
66.672
66.233
65.842
65.402
65.06
64.718
64.474
64.23
63.937
63.497
63.058
62.716
62.472
62.374
62.227
62.032
61.885
61.69
61.495
61.251
60.811
60.469
60.371
60.371
60.42
60.469
60.42
60.42
60.42
60.42
60.371
60.371
60.322
60.225
60.029
59.883
59.59
59.297
59.004
58.662
58.418
58.173
58.124
58.418
59.59
62.618
68.528
77.369
88.066
98.909
108.97
117.86
125.38
131.44
136.13
139.55
141.89
143.06
143.31
142.92
142.58
142.28
142.19
142.14
141.99
141.6
140.87
140.04
139.11
137.98
136.57
134.66
132.51
129.97
127.39
124.41
121.18
117.62
113.66
109.56
105.36
101.25
97.297
93.732
90.606
87.968
86.063
84.989
84.5
84.403
84.598
84.94
85.233
85.428
85.428
85.184
84.745
84.061
83.23
82.302
81.374
80.544
79.86
79.176
78.444
77.223
75.562
73.901
73.559
74.438
74.878
73.999
72.436
71.312
70.629
69.847
69.114
68.675
68.479
68.431
68.382
68.186
67.844
67.6
67.503
67.258
66.916
66.526
66.233
65.842
65.549
65.305
65.012
64.67
64.279
63.986
63.693
63.448
63.253
63.058
62.862
62.667
62.472
62.276
62.13
61.885
61.544
61.299
61.104
60.909
60.811
60.86
61.592
63.742
68.235
75.464
84.745
94.758
104.38
113.12
120.6
126.75
131.49
134.91
137.3
138.67
139.5
139.89
139.94
139.74
139.45
139.01
138.42
137.79
137.06
136.23
135.3
134.32
133.2
131.78
130.22
128.56
126.36
123.18
118.89
114.64
111.61
108.87
104.72
99.886
95.637
92.364
89.824
87.871
86.308
85.184
84.354
83.719
83.23
82.791
82.498
82.351
82.302
82.302
82.253
82.009
81.57
80.886
80.055
79.323
78.59
77.809
76.734
75.464
74.194
72.973
71.996
71.312
70.97
70.97
70.824
70.287
69.798
69.31
68.675
68.04
67.503
66.965
66.477
66.135
65.793
65.549
65.402
65.256
65.06
64.865
64.718
64.67
64.572
64.377
64.23
64.035
63.839
63.693
63.497
63.302
63.107
63.009
62.862
62.814
62.716
62.716
62.667
62.618
62.472
62.374
62.227
62.13
62.032
62.276
63.497
66.379
71.654
79.372
88.603
98.225
107.31
115.37
122.26
127.83
132.12
135.1
137.06
138.18
138.67
138.77
138.42
137.94
137.3
136.62
135.79
134.91
133.93
132.86
131.73
130.56
129.19
127.53
125.43
123.04
120.35
117.18
113.51
109.41
105.26
101.16
97.542
94.513
91.925
89.922
88.506
87.382
86.552
85.966
85.673
85.428
85.379
85.379
85.282
85.184
84.94
84.598
84.158
83.67
83.182
82.742
82.351
82.009
81.667
81.374
81.032
80.984
81.423
82.595
84.696
87.626
91.192
95.051
98.909
102.43
105.36
107.41
108.68
109.07
108.63
107.51
105.75
103.55
101.01
97.981
94.806
91.387
87.822
84.305
80.886
77.809
75.171
73.071
71.557
70.482
69.945
69.798
70.042
70.531
71.312
72.045
72.68
73.071
73.12
73.071
73.071
73.12
73.168
73.12
72.973
72.729
72.436
72.045
71.605
71.117
70.531
69.847
69.163
68.528
67.942
67.356
66.868
66.428
66.037
65.695
65.305
64.914
64.621
64.23
63.839
63.497
63.107
62.716
62.374
62.032
61.788
61.495
61.153
60.86
60.567
60.176
59.785
59.443
59.004
58.662
58.32
58.027
57.734
57.49
57.294
57.099
56.903
56.806
56.659
56.561
56.366
56.171
55.878
55.633
55.34
55.194
54.998
54.803
54.608
54.412
54.217
54.07
53.875
53.729
53.631
53.484
53.338
53.191
52.996
52.849
52.654
52.556
52.361
52.214
52.117
52.068
51.97
51.97
51.921
51.872
51.775
51.677
51.628
51.482
51.384
51.237
51.042
50.944
50.798
50.651
50.651
50.602
50.602
50.602
50.505
50.407
50.309
50.212
50.163
50.114
50.163
50.505
51.677
55.243
62.618
73.657
86.308
98.323
108.87
117.86
125.29
131.05
135.2
137.74
139.06
139.5
139.55
139.45
139.06
138.47
137.74
137.01
136.08
134.91
133.69
132.32
130.8
129.24
127.53
125.68
123.43
120.79
117.62
114
109.95
105.55
101.16
97.004
93.243
90.069
87.529
85.673
84.354
83.377
82.693
82.253
82.058
81.912
81.912
82.009
82.058
82.009
81.912
81.667
81.374
80.788
80.153
79.469
78.883
78.248
77.613
76.978
76.294
75.562
74.78
74.048
73.364
72.729
72.192
71.605
71.068
70.433
69.749
69.066
68.382
67.698
67.063
66.526
66.184
65.842
65.598
65.353
65.109
64.914
64.718
64.572
64.279
64.132
63.986
63.839
63.742
63.497
63.058
62.472
62.032
61.739
61.544
61.348
61.153
61.006
60.86
60.86
60.909
60.811
60.567
60.176
59.932
59.883
60.127
60.664
62.227
65.842
72.289
81.228
91.045
100.47
109.07
116.49
122.79
127.83
131.44
133.34
134.22
134.91
135.98
136.62
136.37
135.64
134.86
133.98
133.1
132.17
131.24
130.12
128.95
127.48
125.87
124.06
122.16
120.16
117.91
115.22
112.1
108.63
104.87
100.86
96.809
92.804
89.189
86.161
83.865
82.107
80.935
80.3
79.909
79.811
79.86
79.909
79.909
79.665
79.323
78.932
78.688
78.297
77.809
77.223
76.636
75.904
75.318
74.878
74.536
74.048
73.51
72.778
72.045
71.166
70.384
69.554
68.87
68.235
67.6
67.063
66.428
65.793
65.305
64.865
64.474
64.181
63.79
63.351
63.009
62.814
62.667
62.569
62.423
62.13
61.788
61.348
60.86
60.469
60.225
59.981
59.736
59.443
59.297
59.297
59.053
58.759
58.564
58.662
58.808
58.759
58.564
58.418
58.222
57.978
58.222
59.785
63.595
69.798
77.906
87.04
96.223
104.58
111.76
117.81
122.84
126.7
128.7
129.29
129.53
129.83
129.83
129.63
129.53
129.63
129.53
129.19
128.31
127.14
125.68
124.11
122.7
121.13
118.98
116.1
112.68
109.17
105.8
102.28
98.47
94.66
91.192
88.164
85.819
83.816
82.107
80.739
79.665
78.883
78.297
77.906
77.76
77.467
77.32
77.223
77.32
77.418
77.369
77.174
76.978
76.734
76.343
76.05
75.611
75.073
74.292
73.755
73.364
73.071
72.436
71.312
69.652
67.796
66.281
65.744
66.135
67.112
68.089
68.919
69.359
69.31
68.724
67.698
66.477
65.402
64.572
63.839
63.302
62.716
62.13
61.495
60.86
60.322
59.687
59.15
131.2
134.52
136.67
137.74
137.79
137.3
136.57
135.93
135.54
135.44
135.3
135.01
134.32
133.34
132.22
130.95
129.53
128.12
126.51
124.5
122.06
119.13
115.61
111.66
107.7
103.74
99.789
95.881
92.218
89.092
86.601
84.5
82.791
81.716
81.228
81.032
80.935
80.935
80.935
80.788
80.495
80.055
79.469
78.786
78.102
77.418
76.734
76.05
75.366
74.683
74.194
73.755
73.315
72.68
71.801
70.824
69.994
69.407
69.407
69.749
70.091
70.091
69.554
68.528
67.356
66.281
65.549
65.109
64.865
64.572
64.035
63.351
62.618
61.788
61.055
60.616
60.371
60.322
60.225
60.225
60.176
133.78
133.1
132.12
75.366
74.634
73.852
73.12
72.436
71.752
71.117
70.482
69.945
69.359
68.968
68.528
68.186
67.796
67.503
67.258
66.965
66.721
66.428
66.184
65.94
65.744
65.549
65.402
65.305
65.109
65.012
64.816
64.621
64.425
64.181
64.035
64.132
64.67
66.379
69.945
76.05
84.403
94.22
104.38
113.81
122.11
129.05
134.52
138.42
141.11
142.67
143.46
143.55
143.16
142.43
141.5
140.38
139.11
137.89
136.57
135.25
133.98
132.61
131.1
129.49
127.63
125.43
122.79
119.67
116
111.95
107.51
102.91
98.567
94.66
91.387
88.75
86.796
85.477
84.745
84.305
84.158
84.305
84.5
84.793
85.135
85.379
85.477
85.575
85.428
85.135
84.598
83.865
83.035
82.302
81.57
80.935
80.251
79.567
78.737
77.906
77.125
76.294
75.464
74.634
73.755
72.778
71.85
70.922
69.945
68.968
68.186
67.405
66.721
66.037
65.5
65.06
64.865
64.816
64.816
64.718
64.816
64.865
64.914
64.816
64.621
64.425
64.279
64.279
64.377
64.425
64.621
65.012
65.5
66.184
66.721
67.063
67.063
66.721
66.379
66.135
65.988
65.988
66.184
66.428
66.721
66.965
67.063
67.112
67.747
69.847
74.292
80.984
89.238
98.421
107.85
117.18
125.87
133.3
139.01
142.82
145.07
146.39
147.07
147.41
147.56
147.51
147.31
146.83
146
145.02
143.85
142.58
141.06
139.5
137.89
136.13
134.32
132.37
130.12
127.24
123.82
119.91
115.76
111.32
106.82
102.23
97.884
93.878
90.557
88.115
86.552
85.721
85.282
85.184
85.184
85.282
85.379
85.379
85.233
85.038
84.793
84.403
83.914
83.377
82.742
82.058
81.277
80.495
79.616
78.786
78.004
77.125
76.294
75.464
74.683
73.901
73.217
72.485
71.752
71.068
70.384
69.798
69.31
68.821
68.284
67.844
67.503
67.063
66.672
66.281
65.94
65.549
65.305
65.109
64.914
64.718
64.474
64.23
63.937
63.693
63.448
63.253
63.107
63.009
62.814
62.667
62.472
62.276
62.13
61.934
61.739
61.544
61.348
61.348
61.788
63.351
66.965
73.217
82.009
92.218
102.72
112.68
121.38
128.61
134.37
138.57
141.35
143.06
143.8
143.85
143.36
142.62
141.6
140.43
139.25
137.98
136.81
135.74
134.86
133.98
132.95
131.29
129.09
126.51
123.58
120.45
116.98
113.17
108.92
104.48
100.03
95.881
92.364
89.531
87.382
85.721
84.598
83.816
83.182
82.791
82.547
82.351
82.156
81.912
81.814
82.107
82.84
83.426
83.279
82.742
82.058
81.228
80.349
79.421
78.492
77.613
76.783
76.001
75.318
74.634
73.901
73.217
72.631
71.996
71.41
70.922
70.384
69.945
69.505
69.066
68.675
68.235
67.844
67.503
67.161
67.063
67.258
67.991
69.359
71.166
72.094
70.824
67.698
64.718
63.107
62.276
61.544
61.006
60.713
60.616
60.616
60.811
61.006
60.909
60.713
61.055
61.934
62.667
62.716
62.667
63.986
67.698
74.194
83.23
93.878
104.82
115.22
124.5
132.17
138.33
142.67
145.7
147.36
148.19
148.29
147.95
147.31
146.53
145.8
145.07
144.19
143.26
142.23
141.11
140.04
138.81
137.45
135.74
133.78
131.63
129.24
126.95
124.75
122.06
117.81
111.56
104.72
99.056
94.904
91.778
89.385
87.48
86.308
85.624
85.379
85.379
85.379
85.379
85.477
85.721
85.917
85.819
85.477
84.989
84.403
83.816
83.23
82.547
81.863
81.032
80.3
79.469
78.541
77.467
76.49
75.611
74.78
74.048
73.315
72.631
71.996
71.361
70.824
70.189
69.505
68.919
68.382
67.844
67.405
67.063
66.721
66.428
66.135
65.842
65.598
65.353
65.012
64.67
64.377
64.035
63.742
63.546
63.351
63.155
63.058
62.814
62.618
62.374
62.179
61.983
61.788
61.592
61.348
61.153
61.104
61.544
63.058
66.526
72.68
81.374
91.436
101.69
111.22
119.77
126.85
132.51
136.76
139.55
141.31
142.23
142.58
142.38
141.94
141.26
140.38
139.45
138.38
137.3
136.13
134.86
133.64
132.51
131.44
129.88
127.48
124.8
122.06
118.89
114.88
110.39
105.75
101.3
97.2
93.439
90.069
87.138
84.745
83.133
82.107
81.814
81.863
82.058
82.156
82.351
82.547
82.742
82.742
82.693
82.449
82.058
81.618
80.984
80.251
79.421
78.59
77.809
77.027
76.246
75.464
74.731
74.048
73.364
72.729
72.045
71.361
70.677
70.238
70.042
70.238
70.433
69.798
68.235
66.965
66.819
66.965
66.868
66.526
66.477
66.526
66.477
66.281
65.842
65.305
64.67
64.132
63.839
63.839
63.986
63.986
63.79
63.546
63.351
63.253
63.107
62.911
62.716
62.618
62.472
62.227
62.032
62.032
62.862
65.158
69.847
77.174
86.601
97.053
107.36
116.74
124.8
131.29
136.32
139.94
142.28
143.7
144.29
144.19
143.6
142.72
141.7
140.48
139.25
137.98
136.67
135.44
134.13
133
132.07
130.66
128.31
125.14
122.11
119.47
116.49
112.63
108.24
103.74
99.349
95.441
91.973
88.994
86.552
84.793
83.816
83.475
83.67
83.914
84.061
84.256
84.403
84.549
84.549
84.354
84.061
83.719
83.279
82.791
82.156
81.472
80.788
80.153
79.616
79.03
78.541
78.248
78.492
79.469
81.618
84.793
88.994
93.781
98.86
103.74
107.99
111.41
113.86
115.32
115.66
115.08
113.51
111.22
108.39
105.01
101.35
97.493
93.536
89.629
85.721
82.107
78.688
75.66
73.168
71.215
69.847
69.163
68.919
69.163
69.749
70.531
71.41
72.387
73.168
73.999
74.683
75.171
75.318
74.976
74.487
74.048
73.803
73.413
72.729
71.947
71.166
70.433
69.652
68.968
68.382
67.747
67.112
66.526
66.037
65.5
65.012
64.425
63.937
63.497
63.155
62.862
62.569
62.227
61.983
61.69
61.299
61.006
60.616
60.322
59.981
59.785
59.541
59.346
59.248
59.053
58.857
58.759
58.466
58.222
58.027
57.88
57.685
57.49
57.294
57.196
57.099
57.001
56.855
56.659
56.415
56.22
56.073
55.926
55.731
55.633
55.438
55.292
55.194
54.998
54.803
54.657
54.559
54.412
54.217
54.119
53.924
53.729
53.631
53.484
53.289
53.191
53.045
52.947
52.752
52.605
52.507
52.361
52.312
52.214
52.166
52.068
51.97
51.872
51.726
51.628
51.482
51.384
51.189
51.042
50.944
50.847
50.749
50.749
50.651
50.554
50.505
50.309
50.212
50.212
50.749
52.654
57.49
66.281
78.492
91.778
104.38
115.37
124.6
131.88
137.2
140.87
143.11
144.29
144.73
144.58
144.04
143.16
142.19
141.06
139.89
138.62
137.3
135.93
134.37
132.76
131.05
129.09
126.95
124.36
121.43
118.06
114.3
110.24
105.94
101.5
97.249
93.292
89.873
87.187
85.038
83.621
82.595
82.058
81.863
81.863
82.058
82.302
82.498
82.693
82.791
82.742
82.547
82.253
81.716
81.13
80.446
79.665
78.981
78.248
77.564
76.783
76.05
75.318
74.536
73.901
73.315
72.68
71.996
71.312
70.629
70.042
69.749
69.554
69.359
69.114
68.724
68.431
68.04
67.747
67.307
66.721
66.135
65.695
65.549
65.5
65.109
64.621
64.279
64.132
63.937
63.742
63.546
63.448
63.302
63.107
62.814
62.472
62.179
62.032
62.032
62.032
61.739
61.348
61.104
61.006
61.055
61.934
64.474
69.554
77.32
86.991
97.444
107.55
116.54
124.31
130.51
135.2
138.42
140.48
141.5
141.75
141.55
141.11
140.48
139.89
139.25
138.62
137.98
137.2
136.13
134.91
133.54
131.88
129.97
127.83
125.43
122.7
119.77
116.54
113.12
109.36
105.41
101.16
97.004
93.097
89.678
86.796
84.5
82.742
81.618
80.935
80.593
80.544
80.593
80.69
80.788
80.886
80.935
80.886
80.593
80.3
79.86
79.323
78.59
77.906
77.174
76.49
75.757
74.878
73.999
73.168
72.533
72.045
71.557
70.873
70.384
69.847
69.114
68.284
67.698
67.307
66.721
65.988
65.353
64.914
64.474
64.035
63.595
63.302
63.253
63.497
63.693
63.497
63.107
62.862
62.618
62.227
61.69
61.055
60.322
59.736
59.443
59.248
59.101
59.101
59.15
59.053
58.808
58.466
58.222
58.173
58.662
60.42
64.279
70.97
80.007
90.069
99.935
108.92
116.69
123.04
127.92
131.44
133.78
135.2
67.405
73.559
82.302
92.608
103.35
113.51
122.45
129.88
135.88
140.38
143.26
144.19
143.94
143.46
143.06
142.67
142.19
141.6
140.87
139.99
139.06
137.94
136.62
135.01
133.2
131.24
129.05
126.6
123.92
120.94
117.57
113.9
109.95
105.7
101.11
96.76
93.195
90.606
88.554
86.943
85.868
85.282
85.038
85.038
85.233
85.428
85.575
85.721
85.819
85.673
85.379
84.842
84.256
83.572
82.791
81.912
81.13
80.446
79.811
79.323
78.688
77.858
76.929
75.904
74.927
73.901
72.973
72.192
71.654
71.41
71.215
70.922
70.677
70.531
70.287
69.749
69.163
68.626
68.089
67.6
67.258
66.965
66.672
66.428
66.135
65.94
65.842
65.793
65.695
65.549
65.5
65.402
65.305
65.158
64.865
64.621
64.67
64.718
64.474
64.035
63.693
63.351
63.058
62.862
63.009
63.937
66.428
71.361
79.03
88.75
99.3
109.75
119.23
127.24
133.25
137.35
140.18
142.04
143.11
143.5
143.36
143.06
142.67
142.19
141.6
140.92
140.13
139.11
137.94
136.62
135.35
134.08
132.42
130.41
128.17
125.68
122.84
119.77
116.3
112.63
108.53
104.18
99.789
95.734
92.12
88.994
86.503
84.793
83.816
83.572
83.572
83.426
83.23
83.133
82.84
82.547
82.253
82.107
82.253
82.498
82.449
82.009
81.228
80.446
79.469
78.492
77.613
76.881
76.197
75.464
74.878
74.243
73.657
73.071
72.436
71.752
71.215
70.824
70.433
69.945
69.505
69.066
68.479
67.991
67.6
67.356
67.063
66.672
66.281
66.037
65.793
65.549
65.305
65.256
65.305
65.5
65.5
65.305
65.109
65.256
65.353
65.402
65.109
64.572
63.937
63.595
63.497
63.302
63.253
63.448
63.595
63.937
65.256
68.235
73.217
80.104
89.043
99.544
110.39
120.06
127.92
133.88
138.03
140.92
142.72
143.85
144.24
143.99
143.36
142.48
141.31
139.79
138.33
136.91
135.79
134.52
133.05
131.63
129.93
127.87
125.43
122.79
120.01
116.64
112.73
108.53
104.38
100.18
95.93
92.169
89.287
87.284
85.721
84.5
83.67
83.035
82.498
82.498
83.133
83.621
83.426
83.279
83.719
83.914
83.426
82.547
81.814
81.277
80.739
80.153
79.616
78.932
78.248
77.418
76.636
75.855
75.073
74.243
73.51
72.778
72.094
71.654
71.654
71.752
71.312
70.433
69.505
69.066
68.821
68.479
68.089
67.796
67.6
67.258
66.672
66.037
65.549
65.158
64.865
64.621
64.474
64.279
64.035
63.742
63.546
63.351
63.155
62.911
62.862
62.911
63.058
63.155
63.107
63.058
63.058
63.155
64.035
66.477
71.508
79.127
88.945
99.593
110.05
119.57
127.68
134.22
139.25
142.72
145.07
146.39
146.92
146.92
146.53
146.04
145.56
144.82
143.8
142.67
141.55
140.57
139.55
138.62
137.5
136.18
134.37
132.12
129.63
126.8
123.67
120.06
116.05
111.61
106.82
101.94
97.444
93.683
90.85
88.799
87.236
85.966
85.184
84.94
85.038
85.282
85.624
85.917
86.161
86.308
86.259
85.966
85.575
84.94
84.158
83.426
82.595
81.814
81.032
80.3
79.567
78.737
78.004
77.174
76.343
75.66
74.976
74.292
73.608
72.924
72.24
71.605
70.97
70.433
69.994
69.798
69.652
69.407
68.821
68.089
67.747
67.6
67.698
67.747
67.6
67.258
66.672
66.135
65.598
65.158
64.718
64.279
63.937
63.497
62.862
62.13
61.446
60.811
60.371
59.981
59.736
59.59
59.883
60.86
63.107
67.307
73.999
82.937
93.048
103.26
112.68
120.94
127.87
133.44
137.69
140.67
142.43
143.06
143.02
142.58
141.79
140.87
139.74
138.57
137.45
136.42
135.54
134.61
133.54
132.17
130.56
128.61
126.31
123.67
120.74
117.37
113.56
109.51
105.06
100.62
96.369
92.608
89.482
86.845
84.842
83.572
82.791
82.547
82.498
82.693
82.937
83.23
83.426
83.475
83.426
83.23
82.937
82.498
82.009
81.472
80.886
80.251
79.469
78.688
77.906
77.125
76.294
75.562
74.878
74.292
73.657
73.071
72.387
71.654
70.97
70.384
69.945
69.603
69.359
69.114
68.821
68.528
68.382
68.186
67.942
67.6
67.112
66.672
66.281
65.988
65.842
65.744
65.5
65.256
65.06
64.914
64.718
64.425
64.181
63.986
63.79
63.546
63.302
63.058
62.911
62.862
62.911
63.155
63.937
66.037
70.482
77.662
86.943
97.102
107.31
116.69
124.8
131.49
136.62
140.33
142.58
143.6
143.85
143.7
143.02
141.99
140.92
139.79
138.67
137.5
136.23
135.01
133.69
132.22
130.61
128.8
126.85
124.8
122.35
119.42
116
112.1
107.95
103.5
99.105
95.099
91.632
88.847
86.991
85.819
85.135
84.696
84.5
84.403
84.5
84.598
84.793
84.989
84.989
84.842
84.549
84.11
83.572
82.791
82.009
81.228
80.544
79.86
78.932
77.858
76.881
76.05
75.318
74.634
73.999
73.364
72.68
71.996
71.312
70.677
69.994
69.31
68.724
68.382
68.04
67.942
67.747
67.503
67.307
67.063
66.868
66.721
66.477
66.281
66.135
65.94
65.744
65.549
65.353
65.158
65.012
64.865
64.67
64.474
64.279
64.377
65.012
66.916
71.117
77.906
87.138
97.591
108.29
118.2
126.8
133.98
139.5
143.5
146.19
148.05
149.37
150.1
150.39
150.1
149.76
149.17
148.49
147.61
146.53
145.26
143.8
142.19
140.48
138.77
136.86
134.61
132.07
129
125.38
121.18
116.54
111.76
106.97
102.43
98.323
94.806
92.071
89.873
88.261
87.04
86.308
85.917
85.819
85.966
86.308
86.552
86.601
86.552
86.356
85.966
85.477
84.94
84.305
83.67
82.986
82.253
81.472
80.739
80.007
79.176
78.444
77.564
76.685
75.904
75.318
74.78
74.438
74.243
74.292
74.634
75.073
75.562
76.001
76.49
77.027
77.564
78.004
78.297
78.444
78.346
78.248
77.906
77.613
77.223
76.783
76.246
75.611
74.878
73.999
73.071
72.045
71.117
70.189
69.261
68.382
67.503
66.672
65.842
65.06
64.23
63.351
62.569
61.934
61.348
61.006
61.055
62.032
64.67
69.603
77.223
86.845
97.249
107.31
116.44
124.31
130.76
135.54
138.86
140.92
141.94
142.14
141.89
141.26
140.57
139.89
139.16
138.42
137.69
136.81
135.79
134.81
133.69
132.32
130.66
128.75
126.36
123.62
120.35
116.74
112.78
108.53
104.14
99.691
95.49
91.876
88.799
86.503
84.793
83.621
82.84
82.595
82.693
82.937
83.279
83.67
83.865
83.914
83.719
83.426
82.986
82.449
81.912
81.277
80.69
79.909
79.03
78.248
77.369
76.636
76.001
75.415
74.78
74.194
73.608
73.12
72.485
71.85
71.215
70.677
70.238
69.798
69.407
69.114
68.87
68.528
68.235
67.942
67.6
67.356
67.063
66.819
66.526
66.281
66.037
65.793
65.549
65.305
65.06
64.865
64.718
64.621
64.474
64.377
64.181
64.035
63.839
63.693
63.497
63.351
63.302
63.595
64.816
67.747
73.12
80.935
90.557
100.86
110.73
119.57
126.99
132.95
137.35
140.48
142.38
143.26
143.46
143.02
142.19
141.11
139.94
138.77
137.5
136.23
135.01
133.74
132.42
131.05
129.53
127.73
125.63
123.14
120.3
117.03
113.42
109.41
105.16
100.86
96.809
93.097
90.069
87.675
86.063
84.989
84.354
84.11
84.061
84.11
84.305
84.549
84.745
84.745
84.549
84.158
83.719
83.182
82.547
81.863
81.13
80.349
79.616
78.737
77.858
77.027
76.294
75.611
74.878
74.048
73.217
72.436
71.654
70.873
70.091
69.359
68.724
68.089
67.6
67.112
66.721
66.379
66.037
65.793
65.549
65.305
65.06
64.865
64.67
64.474
64.279
64.181
64.035
63.79
63.546
63.253
63.009
62.716
62.472
62.179
61.983
61.885
61.739
61.544
61.348
61.153
61.104
61.446
62.911
66.623
72.973
81.912
92.169
102.67
112.49
121.04
128.17
133.69
137.69
140.43
142.19
143.16
143.5
143.36
142.92
142.23
141.5
140.57
139.6
138.62
137.59
136.62
135.54
134.37
133
131.49
129.63
127.39
124.7
121.48
117.86
113.86
109.56
105.06
100.57
96.369
92.657
89.678
87.431
85.868
84.793
84.256
84.012
84.061
84.305
84.696
84.989
85.233
85.282
85.233
84.989
84.598
84.11
83.572
82.791
129.39
127.92
126.31
124.36
122.01
119.23
116.05
112.68
108.92
104.87
100.72
96.76
93.243
90.166
87.626
85.673
84.403
83.67
83.377
83.377
83.475
83.816
84.158
84.5
84.598
84.549
84.305
83.914
83.475
82.937
82.156
81.374
80.544
79.762
78.883
78.053
77.223
76.539
76.05
75.66
75.171
74.292
73.168
71.996
71.068
70.287
69.749
69.359
69.114
68.821
68.284
67.747
67.356
67.112
66.916
66.623
66.037
65.402
64.865
64.377
63.937
63.546
63.302
63.302
63.302
63.302
63.155
63.058
62.911
62.814
62.569
62.374
62.227
62.13
61.934
61.788
61.69
61.446
61.153
61.006
60.86
60.909
61.446
63.107
66.721
72.875
81.228
90.997
101.11
110.83
119.47
126.95
132.86
137.25
140.18
141.79
142.58
142.62
142.23
141.7
140.92
140.13
139.35
138.57
137.79
137.06
136.18
135.1
133.88
132.42
130.76
128.75
126.51
124.02
121.18
118.01
114.49
110.68
106.72
102.82
98.909
95.246
91.925
89.092
86.796
85.135
83.865
83.182
82.84
82.937
83.133
83.426
83.719
83.914
83.865
83.572
83.133
82.547
81.863
81.13
80.349
79.567
78.59
77.613
76.685
75.806
74.976
74.243
73.608
73.12
72.631
72.24
71.801
71.312
70.726
70.091
69.407
68.724
68.089
67.6
67.063
66.526
65.988
65.5
65.06
64.621
64.181
63.839
63.742
63.693
63.595
63.497
63.351
63.253
63.155
63.009
62.862
62.667
62.472
62.227
61.934
61.592
61.348
61.104
60.86
60.616
60.42
60.225
59.981
59.785
59.59
59.687
60.029
61.446
64.621
70.189
77.906
87.138
96.662
105.94
114.25
121.38
127.14
131.39
134.32
136.13
137.06
137.35
137.11
136.47
135.64
134.52
133.3
132.07
130.8
129.53
128.36
127.14
125.87
124.6
123.18
121.43
119.37
116.88
113.9
110.63
106.97
103.26
99.495
95.734
92.218
89.238
86.845
85.135
84.012
83.23
82.742
82.498
82.351
82.449
82.595
82.791
82.84
82.791
82.693
82.449
82.058
81.618
81.032
80.349
79.665
78.932
78.199
77.418
76.685
75.904
75.122
74.341
73.657
72.973
72.436
71.801
71.215
70.677
70.042
69.554
68.968
68.479
68.04
67.6
67.258
66.965
66.721
66.477
66.184
65.94
65.744
65.5
65.256
65.012
64.816
64.572
64.23
63.986
63.742
63.497
63.253
63.058
62.862
62.716
62.618
62.472
62.276
62.13
61.934
61.739
61.544
61.348
61.153
61.104
61.299
62.179
64.621
69.359
76.636
85.868
96.125
106.28
115.76
124.02
130.8
135.98
139.74
142.14
143.46
143.85
143.7
143.16
142.38
141.5
140.62
139.89
139.01
138.03
137.11
136.18
135.2
134.17
133
131.63
129.97
127.97
125.68
122.84
119.67
116.05
112.1
107.95
103.6
99.3
95.295
91.778
88.799
86.601
85.135
84.305
84.012
84.061
84.305
84.696
84.94
84.989
84.842
84.696
84.305
83.914
83.426
82.84
82.253
81.57
80.935
80.3
79.616
78.932
78.199
77.418
76.685
75.855
75.073
74.243
73.413
72.729
72.094
71.508
70.922
70.384
69.798
69.359
68.968
68.675
68.382
68.04
67.698
67.405
67.112
66.868
66.526
66.233
65.988
65.695
65.305
64.914
64.572
64.181
63.839
63.595
63.448
63.302
63.107
62.911
62.667
62.423
62.179
61.934
61.739
61.495
61.348
61.299
61.69
63.058
66.184
71.752
79.616
88.994
98.812
108.29
116.88
124.11
129.88
134.22
137.25
139.11
140.13
140.48
140.48
140.18
139.6
138.86
138.03
137.11
136.08
135.01
133.88
132.61
131.29
129.93
128.41
126.85
124.99
122.79
120.11
117.03
113.51
109.61
105.5
101.11
96.907
93.097
89.922
87.284
85.282
83.865
82.937
82.498
82.302
82.253
82.302
82.351
82.449
82.351
82.302
82.058
81.716
81.277
80.788
80.251
79.665
79.127
78.492
77.858
77.174
76.441
75.611
74.878
74.048
73.217
72.485
71.85
71.312
70.824
70.238
69.652
69.163
68.675
68.089
67.698
67.161
66.672
66.184
65.744
65.598
65.793
65.94
65.94
65.695
65.353
65.06
64.816
64.621
64.425
64.23
64.035
63.839
63.79
63.79
63.742
63.595
63.497
63.302
63.058
62.862
62.716
62.618
62.472
62.276
62.179
62.179
62.472
63.546
66.184
71.166
78.688
87.919
97.786
107.36
116.1
123.67
129.83
134.37
137.45
139.25
140.04
140.13
139.6
138.81
137.79
136.62
135.44
134.13
132.86
131.63
130.32
128.95
127.43
125.82
123.92
121.72
119.23
116.3
112.98
109.41
105.6
101.74
97.932
94.318
91.192
88.554
86.552
85.038
84.061
83.426
83.133
83.133
83.23
83.426
83.572
83.67
83.719
83.67
83.426
83.035
82.547
82.009
81.277
80.544
79.811
79.03
78.346
77.613
76.929
76.246
75.562
74.927
74.292
73.608
72.973
72.289
71.605
70.922
70.287
69.652
69.066
68.528
68.089
67.747
67.405
67.112
66.868
66.526
66.281
66.135
65.842
65.695
65.5
65.305
65.06
64.816
64.572
64.279
64.132
63.937
63.839
63.742
63.595
63.497
63.302
63.107
62.911
62.716
62.472
62.227
62.13
62.032
62.13
62.472
63.79
66.672
71.947
79.567
88.945
99.007
108.92
118.11
125.97
132.37
137.2
140.57
142.67
143.8
144.14
143.85
143.31
142.58
141.7
140.87
140.04
139.3
138.57
137.79
137.01
135.98
134.76
133.2
131.44
129.39
126.95
124.16
121.18
117.81
114.2
110.24
106.19
102.04
98.03
94.416
91.387
88.847
86.943
85.477
84.598
84.11
83.914
83.914
84.061
84.256
84.305
84.256
84.061
83.67
83.133
82.302
81.228
80.104
79.176
78.59
78.346
77.809
76.978
76.197
75.806
75.806
75.611
75.122
74.78
74.927
75.22
75.464
75.22
74.194
72.436
70.629
69.066
67.6
66.281
65.695
65.744
65.06
62.911
61.006
61.348
63.937
66.672
67.307
65.549
63.595
63.009
63.155
63.155
63.058
63.302
64.279
66.721
71.361
78.248
86.796
96.125
105.26
113.61
120.89
126.7
131.05
134.13
135.98
137.06
137.45
137.3
136.81
136.13
135.35
134.42
133.44
132.32
131.1
129.97
128.61
126.99
125.24
123.28
121.13
118.59
115.76
112.54
108.97
105.06
100.86
96.76
92.853
89.385
86.503
84.158
82.547
81.423
80.788
80.544
80.69
80.935
81.228
81.472
81.57
81.57
81.472
81.374
81.13
80.886
80.495
80.055
79.567
78.981
78.297
77.613
76.929
76.246
75.464
74.731
73.901
73.168
72.485
71.801
71.166
70.629
70.042
69.359
68.675
68.089
67.698
67.356
66.916
66.379
65.94
65.549
65.256
65.012
64.816
64.621
64.425
64.181
63.937
63.693
63.351
63.009
62.716
62.618
62.569
62.423
62.276
62.227
62.227
62.032
61.69
61.299
61.153
61.251
61.251
60.86
60.371
59.981
59.981
60.029
60.127
60.127
60.127
59.981
59.785
59.687
59.736
60.567
63.009
68.04
75.855
85.721
96.467
106.97
116.44
124.41
130.95
136.08
139.94
142.58
144.19
144.92
145.16
144.87
144.14
143.16
142.28
141.45
140.43
139.94
139.79
139.45
138.23
136.37
134.32
132.12
129.49
126.75
124.31
121.72
118.69
115.13
111.32
107.26
103.06
99.007
95.246
91.973
89.189
86.747
84.989
84.158
83.914
83.816
83.816
84.11
84.5
84.745
84.696
84.5
84.305
84.061
83.621
83.035
82.302
81.57
80.788
80.055
79.225
78.492
77.662
76.929
76.099
75.464
74.927
74.292
73.559
72.875
72.289
71.85
71.557
71.117
70.677
70.091
69.554
69.066
68.87
69.163
69.505
68.528
65.94
63.302
62.667
63.986
65.109
64.718
63.742
63.253
63.253
63.351
63.302
63.155
63.058
63.009
62.716
62.423
62.13
61.885
61.544
61.299
61.006
60.616
60.371
60.322
60.371
60.909
62.862
67.063
73.852
82.547
92.169
101.74
110.88
118.98
125.72
130.85
134.57
137.01
138.42
139.06
139.16
139.11
138.81
138.33
137.54
136.62
135.69
135.01
134.22
133.05
131.68
130.56
129.73
128.36
126.26
123.58
120.6
117.57
114.1
110.39
106.43
102.28
98.177
94.367
91.094
88.408
86.405
84.842
83.719
83.133
83.182
83.719
84.256
84.403
84.5
84.598
84.696
84.598
84.256
83.621
82.791
81.912
68.089
67.747
67.405
67.161
66.916
66.672
66.428
66.184
65.842
65.598
65.305
65.06
64.865
64.67
64.474
64.279
64.181
63.986
63.79
63.595
63.497
63.351
63.253
63.155
63.058
62.862
62.667
62.423
62.276
62.423
63.155
65.305
69.505
76.099
84.793
94.758
105.01
114.73
123.28
130.36
135.88
139.79
142.38
143.75
144.19
143.99
143.31
142.43
141.35
140.18
139.06
137.89
136.67
135.54
134.32
133.05
131.63
130.07
128.31
126.31
123.87
121.13
118.01
114.49
110.73
106.72
102.62
98.567
94.758
91.485
88.945
86.943
85.477
84.5
83.914
83.67
83.621
83.67
83.816
83.914
84.012
83.914
83.719
83.475
83.035
82.547
81.912
81.277
80.544
79.811
79.03
78.297
77.467
76.734
75.904
75.171
74.438
73.657
72.973
72.289
71.654
71.068
70.433
69.945
69.407
68.968
68.528
68.186
67.747
67.356
66.965
66.721
66.428
66.184
65.94
65.598
65.353
65.109
64.865
64.621
64.377
64.132
63.79
63.546
63.351
63.351
63.693
65.012
67.942
72.973
80.104
88.799
98.323
107.8
116.3
123.38
128.95
133.05
135.74
137.3
137.94
137.79
137.2
136.18
135.01
133.69
132.37
131.05
129.73
128.41
127.19
125.97
124.8
123.43
121.72
119.62
117.03
113.9
110.05
105.6
101.01
96.76
92.999
89.824
87.236
85.233
83.719
82.791
82.302
82.156
82.253
82.547
82.937
83.23
83.572
83.67
83.67
83.475
83.182
82.742
82.253
81.618
80.935
80.251
79.469
78.737
77.906
77.125
76.294
75.562
74.731
74.048
73.315
72.68
72.045
71.41
70.873
70.384
69.847
69.505
69.114
68.821
68.431
68.04
67.698
67.307
66.965
66.672
66.379
66.135
65.842
65.695
65.402
65.158
64.914
64.718
64.474
64.279
64.132
63.937
63.693
63.497
63.302
63.155
63.009
62.814
62.667
62.569
62.374
62.227
62.13
61.983
61.885
61.69
61.495
61.299
61.104
61.153
61.739
63.595
67.551
74.097
83.035
93.536
104.48
114.98
124.16
131.88
137.94
142.38
145.41
147.31
148.1
148.24
147.85
147.17
146.29
145.31
144.24
143.26
142.19
141.11
140.04
139.01
137.74
136.42
134.91
133.1
131
128.41
125.43
122.06
118.3
114.3
110
105.6
101.3
97.297
93.781
90.948
88.75
87.138
86.112
85.575
85.282
85.379
85.477
85.673
85.868
85.917
85.917
85.721
85.477
85.038
84.549
83.914
83.182
82.449
81.618
80.788
80.055
79.225
78.444
77.613
76.881
76.05
75.22
74.438
73.657
72.973
72.289
71.752
71.166
70.629
70.091
69.652
69.261
68.821
68.479
68.089
67.796
67.503
67.112
66.819
66.526
66.233
65.988
65.744
65.5
65.305
65.06
64.865
64.621
64.377
64.132
63.937
63.693
63.448
63.155
62.911
62.667
62.569
62.472
62.716
63.79
66.379
71.068
78.004
86.747
96.565
106.63
115.86
123.87
130.41
135.44
139.01
141.31
142.62
143.06
142.87
142.23
141.31
140.23
139.11
137.98
136.86
135.74
134.57
133.44
132.22
131
129.53
127.92
125.97
123.58
120.55
116.98
113.17
109.12
104.92
100.72
96.76
93.195
90.117
87.675
85.868
84.598
83.865
83.572
83.572
83.67
84.012
84.305
84.5
84.696
84.696
84.549
84.256
83.865
83.279
82.693
82.058
81.277
80.495
79.665
78.883
78.053
77.32
76.539
75.757
75.073
74.341
73.657
73.071
72.436
71.801
71.215
70.726
70.238
69.749
69.31
68.919
68.626
68.284
67.991
67.698
67.405
67.161
66.916
66.672
66.428
66.184
65.94
65.744
65.549
65.353
65.256
65.06
64.865
64.67
64.474
64.279
64.132
63.839
63.693
63.448
63.253
63.155
63.595
65.158
68.626
74.487
82.498
92.071
102.28
112.29
121.18
128.56
134.52
138.81
141.7
143.31
143.85
143.7
142.92
141.89
140.62
139.35
138.13
136.81
135.64
134.42
133.25
132.07
130.85
129.49
127.97
126.12
123.58
120.25
116.49
112.49
108.43
104.18
99.984
95.979
92.511
89.629
87.382
85.673
84.5
83.719
83.377
83.279
83.426
83.572
83.719
83.816
83.816
83.67
83.377
82.986
82.498
81.912
81.277
80.593
79.909
79.225
78.492
77.662
76.929
76.197
75.415
74.683
73.901
73.168
72.533
71.85
71.215
70.677
70.091
69.554
69.066
68.528
68.089
67.747
67.356
66.965
66.721
66.477
66.233
66.037
65.793
65.549
65.353
65.158
65.012
64.816
64.621
64.474
64.425
64.279
64.181
63.986
63.79
63.595
63.448
63.253
63.058
62.814
62.618
62.472
62.374
62.472
63.253
65.256
69.163
75.464
83.719
93.292
103.35
112.93
121.23
128.07
133.3
137.01
139.35
140.57
140.72
140.23
139.25
137.89
136.32
134.61
133
131.44
129.88
128.41
127.04
125.58
123.87
121.82
119.23
116.2
112.73
109.07
105.11
101.11
97.2
93.536
90.362
87.871
85.917
84.549
83.67
83.23
83.035
83.133
83.279
83.621
83.865
84.012
84.11
84.061
83.816
83.572
83.133
82.595
82.058
81.423
80.739
80.007
79.225
78.492
77.76
76.929
76.197
75.415
74.683
73.901
73.217
72.631
71.996
71.361
70.824
70.287
69.798
69.359
68.919
68.528
68.186
67.796
67.356
66.965
66.672
66.281
65.988
65.695
65.402
65.158
65.012
64.816
64.572
64.377
64.181
63.986
63.79
63.595
63.497
63.302
63.058
62.862
62.667
62.472
62.276
62.13
61.934
61.934
62.276
63.742
66.916
72.485
80.251
89.727
100.37
110.97
120.55
128.41
134.61
139.3
142.48
144.38
145.26
145.36
145.02
144.29
143.36
142.43
141.45
140.48
139.55
138.62
137.54
136.47
135.35
134.13
132.81
131.39
129.88
128.17
126.31
124.06
121.38
118.01
114
109.61
105.16
100.91
97.2
93.976
91.387
89.385
87.919
86.991
86.503
86.308
86.356
86.405
86.503
86.503
86.503
86.356
86.112
85.819
85.428
84.94
84.354
83.719
83.133
82.498
81.863
81.277
80.788
80.446
80.349
80.886
82.107
84.158
86.845
89.922
93.097
96.125
98.665
100.81
102.38
103.45
103.94
103.84
103.01
101.45
99.105
96.369
93.439
90.41
87.529
84.549
81.472
78.541
75.806
73.413
71.508
69.994
68.919
68.284
68.089
68.284
68.675
69.261
69.945
70.629
71.215
71.85
72.387
72.729
72.973
73.12
73.12
73.071
72.778
72.533
72.192
71.654
71.166
70.677
70.091
69.603
69.114
68.528
68.04
67.551
67.063
66.526
66.135
65.695
65.256
64.865
64.474
64.132
63.742
63.497
63.155
62.911
62.716
62.472
62.276
62.032
61.885
61.592
61.446
61.251
61.006
60.811
60.616
60.42
60.225
60.029
59.883
59.687
59.541
59.443
59.248
59.101
58.906
58.759
58.613
58.369
58.173
58.027
57.88
57.734
57.538
57.441
57.245
57.099
57.001
56.806
56.659
56.464
56.366
56.22
56.073
55.926
55.78
55.731
55.633
55.487
55.34
55.243
55.096
54.998
54.901
54.852
54.754
54.657
54.608
54.51
54.412
54.363
54.217
54.168
54.07
53.973
53.924
53.875
53.729
53.68
53.631
53.533
53.484
53.435
53.533
54.51
57.099
62.276
70.189
80.007
90.997
102.57
113.86
123.92
132.17
138.33
142.58
145.26
146.68
147.17
147.07
146.39
145.41
144.24
143.02
141.7
140.38
138.91
137.5
135.98
134.37
132.66
130.8
128.8
126.51
123.87
120.94
117.62
113.81
109.66
105.41
101.16
97.2
93.634
90.557
88.115
86.259
84.989
84.158
83.816
83.67
83.719
83.914
84.11
84.305
84.354
84.354
84.158
83.914
83.572
83.133
82.547
81.912
81.228
80.544
79.811
79.03
78.297
77.564
76.783
76.05
75.366
74.634
73.901
73.315
72.631
72.045
71.508
70.922
70.433
69.945
69.505
68.968
68.528
68.089
67.698
67.307
66.916
66.623
66.281
66.037
65.793
65.549
65.305
65.109
64.865
64.621
64.377
64.181
63.937
63.742
63.497
63.302
63.058
62.862
62.618
62.374
62.13
61.934
61.788
62.13
63.351
66.379
71.557
78.688
86.796
95.441
104.18
112.68
120.45
126.95
131.93
135.49
137.69
138.81
139.16
138.91
138.23
137.3
136.23
135.05
133.93
132.76
131.54
130.32
129.05
127.68
126.16
124.55
122.75
120.69
118.3
115.61
112.49
109.07
105.31
101.35
97.493
93.732
90.41
87.626
85.379
83.67
82.547
81.814
81.472
81.374
81.472
81.667
81.863
82.009
82.107
82.107
82.009
81.716
81.374
80.935
80.446
79.86
79.176
78.492
77.76
77.027
76.294
75.562
74.878
74.097
73.413
72.729
72.094
71.508
70.922
70.287
69.749
69.261
68.675
68.186
67.747
67.307
66.916
66.623
66.281
65.988
65.744
65.5
65.305
65.109
64.865
64.67
64.474
64.23
64.035
63.839
63.693
63.497
63.351
63.155
63.009
62.716
62.569
62.374
62.179
62.13
62.423
63.546
66.379
71.41
78.444
86.698
95.539
104.67
113.56
121.62
128.36
133.54
137.25
139.55
140.67
140.92
140.62
139.79
138.81
137.59
136.42
135.1
133.88
132.51
131.2
129.83
128.36
126.8
125.14
123.18
120.99
118.5
115.61
112.29
108.68
104.82
100.81
96.858
93.195
89.922
87.236
85.038
83.475
82.498
81.912
81.667
81.667
81.863
82.107
82.302
82.498
82.547
82.547
82.351
82.107
81.716
81.228
80.69
80.007
79.323
78.541
77.809
76.978
76.197
75.415
74.683
73.901
73.168
72.485
71.752
71.117
70.482
69.847
69.31
68.724
68.186
67.747
67.307
66.868
66.526
66.184
65.94
65.598
65.353
65.109
64.865
64.621
64.377
64.132
63.839
63.595
63.351
63.107
62.911
62.667
62.472
62.276
62.032
61.788
61.544
61.251
61.055
60.86
60.86
61.348
63.009
66.428
71.996
79.323
87.431
95.93
104.43
112.63
119.86
125.82
130.36
133.49
135.44
136.42
136.62
136.32
135.54
134.57
133.34
132.12
130.8
129.53
128.26
126.85
125.38
123.82
122.01
120.06
117.81
115.22
112.29
108.97
105.31
101.45
97.493
93.683
90.215
87.284
84.94
83.133
81.716
80.886
80.446
80.251
80.251
80.446
80.69
80.886
80.984
81.032
80.984
80.788
80.495
80.104
79.665
79.176
78.59
78.004
77.32
76.636
75.855
75.122
74.438
73.755
73.071
72.387
71.752
71.117
70.531
69.994
69.505
68.968
68.528
68.089
67.747
67.405
67.112
66.819
66.526
66.379
66.135
65.94
65.695
65.5
65.353
65.158
65.06
64.865
64.718
64.621
64.474
64.279
64.181
64.035
63.839
63.693
63.497
63.253
62.911
62.667
62.472
62.423
62.618
63.595
66.037
70.482
76.978
84.793
93.341
102.18
110.88
118.79
125.58
130.8
134.66
137.2
138.47
138.81
138.47
137.59
136.37
135.01
133.49
131.93
130.36
128.8
127.24
125.68
124.11
122.45
120.55
118.5
116.05
113.22
110
106.48
102.67
98.812
95.099
91.729
88.847
86.552
84.842
83.67
82.937
82.595
82.547
82.693
82.84
83.133
83.279
83.426
83.426
83.279
83.035
82.693
82.253
81.667
81.032
80.446
79.762
79.03
78.297
77.564
76.783
76.05
75.318
74.536
73.852
73.12
72.436
71.752
71.117
70.531
70.042
69.603
69.163
68.724
68.382
67.991
67.6
67.258
66.916
66.672
66.428
66.184
65.94
65.744
65.5
65.305
65.109
64.914
64.718
64.572
64.425
64.23
64.035
63.839
63.742
63.546
63.448
63.253
63.009
62.862
63.058
63.937
66.233
70.629
77.125
85.135
124.11
121.62
118.74
115.42
111.66
107.7
103.6
99.593
95.881
92.56
89.873
87.675
86.063
84.94
84.256
83.914
83.816
83.816
83.816
83.865
83.865
83.719
83.572
83.279
82.84
82.449
81.863
81.228
80.593
79.909
79.176
78.492
77.76
76.978
76.246
75.464
74.731
73.999
73.315
72.631
71.947
71.215
70.677
70.091
69.603
69.114
68.626
68.235
67.844
67.503
67.112
66.819
66.477
66.184
65.94
65.695
65.402
65.158
64.914
64.67
64.474
64.279
64.035
63.839
63.693
63.497
63.253
63.058
62.814
62.569
62.276
62.13
61.934
61.885
62.13
63.058
65.5
69.994
76.441
84.354
93.048
102.13
111.12
119.37
126.31
131.73
135.69
138.23
139.6
140.04
139.89
139.11
137.98
136.67
135.25
133.74
132.22
130.76
129.39
127.92
126.51
124.94
123.18
121.23
118.98
116.3
113.22
109.75
105.99
102.13
98.225
94.66
91.534
88.994
86.991
85.477
84.5
83.914
83.67
83.621
83.67
83.816
84.012
84.061
84.11
84.061
83.865
83.572
83.133
82.547
81.912
81.228
80.544
79.811
79.03
78.297
77.564
76.783
76.05
75.366
74.634
73.901
73.217
72.631
71.996
71.41
70.922
70.433
69.945
69.505
69.066
68.675
68.382
68.04
67.747
67.405
67.112
66.868
66.672
66.428
66.233
66.037
65.842
65.695
65.5
65.305
65.06
64.865
64.621
64.425
64.279
64.132
63.937
63.742
63.546
63.351
63.302
63.448
64.181
66.281
70.433
76.783
84.842
93.976
103.7
113.37
122.45
130.17
136.42
141.01
144.14
145.95
146.68
146.73
146.19
145.31
144.19
143.06
141.94
140.82
139.79
138.77
137.74
136.62
135.49
134.13
132.61
130.85
128.8
126.41
123.72
120.69
117.23
113.51
109.36
105.26
101.16
97.346
94.074
91.29
89.189
87.626
86.552
85.917
85.624
85.575
85.673
85.721
85.868
85.868
85.819
85.624
85.379
84.94
84.403
83.816
83.133
82.351
81.57
80.739
79.909
79.127
78.297
77.418
76.685
75.904
75.171
74.487
73.755
73.12
72.485
71.85
71.312
70.824
70.287
69.798
69.407
68.968
68.626
68.235
67.942
67.551
67.258
66.868
66.526
66.233
65.988
65.695
65.402
65.256
65.06
64.816
64.621
64.425
64.181
63.937
63.693
63.497
63.253
63.009
62.814
62.862
63.302
64.865
68.235
73.755
81.032
89.482
98.567
107.75
116.49
124.26
130.56
135.35
138.67
140.67
141.7
141.94
141.6
140.92
140.04
139.06
137.94
136.86
135.74
134.61
133.49
132.22
130.85
129.44
127.73
125.87
123.62
121.04
118.11
114.78
111.12
107.16
103.06
99.007
95.246
91.925
89.092
86.943
85.282
84.256
83.621
83.377
83.377
83.475
83.67
83.816
83.914
83.914
83.865
83.621
83.23
82.791
82.302
81.667
81.032
80.349
79.616
78.932
78.297
77.613
76.881
76.197
75.464
74.78
74.194
73.559
72.924
72.289
71.752
71.215
70.824
70.433
70.042
69.652
69.359
69.114
68.821
68.528
68.284
67.991
67.796
67.551
67.356
67.112
66.868
66.672
66.428
66.233
66.037
65.842
65.695
65.549
65.353
65.109
64.914
64.718
64.572
64.279
64.132
64.181
64.67
66.428
69.994
75.66
83.133
91.68
100.86
110.09
118.94
126.6
132.95
137.69
140.92
142.92
143.8
143.8
143.26
142.23
141.06
139.69
138.23
136.86
135.49
134.13
132.76
131.29
129.83
128.17
126.41
124.36
122.01
119.23
116.05
112.49
108.63
104.58
100.57
96.809
93.439
90.655
88.506
86.943
85.868
85.233
84.94
84.842
84.94
85.135
85.233
85.282
85.282
85.184
84.94
84.598
84.158
83.621
83.035
82.351
81.618
80.886
80.055
79.225
78.492
77.662
76.929
76.099
75.366
74.634
73.901
73.217
72.631
72.045
71.508
70.97
70.482
70.042
69.652
69.31
68.919
68.528
68.235
67.991
67.747
67.405
67.258
66.965
66.819
66.623
66.428
66.233
66.037
65.842
65.744
65.549
65.402
65.256
65.109
64.865
64.67
64.425
64.23
64.132
64.181
64.718
66.477
70.042
75.904
83.621
92.56
102.18
112
121.38
129.63
136.37
141.35
144.82
146.83
147.75
147.85
147.36
146.53
145.51
144.38
143.26
142.19
141.06
140.04
139.01
137.94
136.81
135.54
134.08
132.37
130.36
128.07
125.29
122.16
118.74
114.88
110.73
106.53
102.38
98.47
95.002
92.12
89.824
88.164
87.138
86.503
86.161
86.161
86.259
86.405
86.552
86.552
86.503
86.308
85.966
85.575
84.989
84.354
83.67
82.986
82.253
81.423
80.593
79.811
78.981
78.248
77.467
76.734
76.05
75.366
74.683
74.048
73.413
72.778
72.24
71.752
71.215
70.726
70.384
69.994
69.554
69.163
68.87
68.479
68.235
67.942
67.6
67.356
67.063
66.819
66.526
66.281
66.037
65.842
65.598
65.353
65.109
64.914
64.67
64.425
64.181
63.986
63.79
63.79
64.279
65.94
69.407
75.122
82.693
91.485
100.86
110.44
119.47
127.43
133.93
138.81
142.23
144.38
145.36
145.56
145.16
144.38
143.36
142.19
141.01
139.79
138.67
137.59
136.47
135.35
134.13
132.76
131.05
129.19
126.99
124.41
121.43
118.06
114.3
110.24
105.99
101.89
97.932
94.367
91.436
88.994
87.236
85.966
85.233
84.842
84.793
84.793
84.94
85.038
85.135
85.135
84.94
84.696
84.354
83.914
83.426
82.791
82.156
81.423
80.739
80.007
79.225
78.492
77.76
76.978
76.246
75.464
74.78
74.097
73.51
72.924
72.289
71.801
71.312
70.873
70.433
70.042
69.652
69.31
68.919
68.675
68.382
68.089
67.844
67.6
67.356
67.112
66.868
66.623
66.428
66.184
65.988
65.793
65.598
65.402
65.256
65.06
64.865
64.67
64.425
64.23
64.035
63.937
64.181
65.06
67.405
71.85
78.346
86.405
95.441
104.92
114.25
122.84
130.22
136.08
140.23
143.06
144.58
145.07
144.82
144.14
143.16
141.99
140.72
139.5
138.23
136.91
135.69
134.32
132.86
131.39
129.63
127.68
125.43
122.79
119.81
116.35
112.54
108.53
104.48
100.47
96.809
93.634
90.948
88.847
87.382
86.356
85.868
85.624
85.624
85.673
85.868
85.966
86.063
85.966
85.868
85.575
85.184
84.696
84.11
83.475
82.791
82.058
81.228
80.446
79.616
78.737
77.906
77.125
76.343
75.611
74.878
74.097
73.364
72.729
72.094
71.557
70.97
70.482
70.042
69.603
69.261
68.87
68.528
68.186
67.844
67.6
67.356
67.063
66.819
66.526
66.281
66.037
65.842
65.598
65.353
65.109
64.865
64.621
64.377
64.181
63.937
63.742
63.497
63.253
63.009
62.911
63.155
64.23
66.819
71.508
78.199
86.405
95.441
104.87
114.05
122.45
129.49
135.05
139.11
141.79
143.36
143.99
143.99
143.5
142.67
141.75
140.72
139.74
138.67
137.59
136.57
135.35
134.13
132.66
131
129.05
126.85
124.26
121.28
117.91
114.25
110.19
105.94
101.74
97.737
94.171
91.094
88.701
86.796
85.575
84.793
84.5
84.403
84.549
84.745
84.842
84.989
84.989
84.94
84.745
84.403
84.012
83.475
82.791
82.107
81.374
80.593
79.86
79.127
78.346
77.564
76.783
76.05
75.318
74.536
73.852
73.217
72.631
72.045
71.557
71.068
70.629
70.189
69.798
69.407
69.114
68.87
68.626
68.382
68.089
67.844
67.698
67.503
67.307
67.112
66.916
66.819
66.672
66.526
66.379
66.184
66.037
65.842
65.695
65.5
65.256
65.06
64.816
64.572
64.377
64.279
64.621
65.94
68.821
73.803
80.739
89.092
98.323
107.8
116.98
125.24
132.07
137.35
141.06
143.36
144.43
144.63
144.19
143.26
141.99
140.62
139.16
137.74
136.23
134.81
133.34
131.93
130.41
128.8
126.99
124.94
122.55
119.77
116.54
112.93
108.97
104.92
100.91
97.102
93.732
90.997
88.799
87.236
86.112
85.575
85.282
85.379
85.575
85.721
85.917
86.063
85.966
85.868
85.575
85.184
84.598
84.061
83.377
82.693
81.863
81.13
80.3
79.469
78.59
77.809
77.027
76.246
75.464
74.731
74.048
73.364
72.729
72.094
71.557
70.97
70.482
69.994
69.554
69.114
68.724
68.382
68.04
67.747
67.503
67.258
66.965
66.819
66.623
66.428
66.233
66.037
65.94
65.744
65.549
65.402
65.256
65.109
64.914
64.816
64.621
64.474
64.279
64.132
63.986
64.181
65.06
67.356
71.752
78.248
86.503
95.881
105.8
115.61
124.7
132.42
138.57
143.06
146
147.75
148.49
148.49
148
147.26
146.24
145.16
144.14
143.06
141.99
140.92
139.79
138.67
137.45
135.98
134.42
132.61
130.51
127.97
125.14
121.87
118.25
114.25
110.05
105.8
101.69
97.932
94.611
91.876
89.727
88.261
87.284
86.796
86.601
86.698
86.796
86.943
87.04
87.04
86.943
86.698
86.308
85.868
85.233
84.549
83.816
82.986
82.156
81.277
80.495
79.665
78.883
78.102
77.369
76.636
75.855
75.171
74.536
73.852
73.217
72.68
72.192
71.654
71.215
70.824
70.384
69.945
69.554
69.114
68.724
68.431
68.04
67.747
67.405
67.161
66.868
66.623
66.379
66.233
66.233
66.672
68.186
71.312
76.49
83.572
91.973
101.11
110.49
119.37
127.29
133.74
138.62
141.94
143.99
144.87
145.02
144.58
143.75
142.72
141.6
140.43
139.25
137.98
136.76
135.49
134.17
132.76
131.24
129.49
127.48
125.14
122.45
119.23
115.66
111.8
107.55
103.16
98.909
94.904
91.485
88.701
86.552
85.038
84.11
83.719
83.67
83.865
84.158
84.5
84.696
84.793
84.793
84.598
84.305
83.865
83.279
82.693
82.009
81.228
80.446
79.665
78.883
78.053
77.223
76.49
75.66
74.878
74.097
73.364
72.68
72.045
71.508
70.97
70.433
69.994
69.505
69.114
68.724
68.431
68.089
67.796
67.405
67.161
66.868
66.672
66.428
66.184
65.988
65.793
65.598
65.5
65.353
65.158
65.012
64.816
64.621
64.425
64.279
64.132
63.986
63.79
63.595
63.497
63.351
63.253
63.155
63.058
62.862
62.667
62.423
62.276
62.276
62.667
63.986
67.112
72.485
80.007
88.994
98.812
108.82
118.35
126.85
133.88
139.16
142.87
145.02
146
146.14
145.56
144.58
143.36
141.94
140.48
139.01
137.5
136.08
134.61
133.1
131.54
129.83
127.83
125.58
122.99
120.01
116.54
112.78
108.73
104.58
100.47
96.76
93.488
90.801
88.75
87.236
86.259
85.819
85.624
85.721
85.917
86.112
86.308
86.356
86.356
86.161
85.868
85.428
84.94
84.305
83.621
82.84
82.058
81.228
80.349
79.567
78.688
77.858
77.027
76.246
75.415
74.683
73.999
73.364
72.729
72.094
71.557
71.068
70.531
70.042
69.603
69.261
68.821
68.431
68.04
67.747
67.503
67.161
66.916
66.623
66.379
66.037
65.793
65.598
65.402
65.256
65.06
64.914
64.718
64.621
64.425
64.279
64.181
63.986
63.839
63.693
63.497
63.351
63.351
63.839
65.402
68.724
74.292
81.814
90.655
100.33
110.19
119.47
127.73
134.57
139.79
143.55
145.85
147.17
147.61
147.36
146.73
145.95
144.92
143.85
142.87
141.79
140.72
139.69
138.62
137.45
136.08
134.57
132.76
130.76
128.36
125.68
122.55
119.03
115.17
110.97
106.68
102.43
98.47
95.051
92.169
89.922
88.31
87.236
86.601
86.356
86.356
86.503
86.698
86.796
86.796
86.747
86.503
86.161
85.721
85.233
84.598
83.914
83.182
82.351
81.57
80.739
79.909
79.127
78.297
77.564
76.734
76.001
75.22
74.487
73.755
73.071
72.436
71.801
71.215
70.677
70.189
69.652
69.261
68.87
68.479
68.089
67.796
67.503
67.307
67.063
66.868
66.623
66.281
66.037
65.793
65.549
65.305
65.06
64.816
64.572
64.279
64.035
63.79
63.497
63.253
63.009
62.814
62.716
63.009
64.035
66.721
71.508
78.297
86.601
95.881
105.36
114.69
123.04
130.12
135.69
139.69
142.28
143.75
144.29
144.29
143.8
143.06
142.14
141.11
139.99
138.86
137.79
136.76
135.69
134.52
133.2
131.68
129.93
127.87
125.48
122.7
119.42
115.81
111.8
107.6
103.35
99.154
95.295
91.973
89.238
87.187
85.721
84.793
84.354
84.256
84.354
84.549
84.696
84.842
84.94
84.842
84.598
84.305
83.865
83.377
82.791
82.156
81.472
80.788
80.055
79.323
78.541
77.809
77.027
76.343
75.66
74.976
74.292
73.657
73.071
72.485
71.996
71.508
70.97
70.629
70.189
69.798
69.505
69.163
68.87
68.626
68.382
68.089
67.844
67.6
67.356
67.112
66.868
66.672
66.428
66.233
65.988
65.842
65.695
65.5
65.305
65.109
64.865
64.67
64.425
64.23
64.035
64.035
64.572
66.184
69.603
75.171
82.742
91.534
101.06
110.53
119.42
127.24
133.74
138.67
142.14
144.19
145.12
145.16
144.63
143.7
142.48
141.16
139.79
138.42
137.11
135.79
134.57
133.25
131.78
130.32
128.61
126.6
124.36
121.62
118.54
115.08
111.22
107.16
103.11
99.154
95.637
92.56
90.069
88.164
86.845
85.966
85.575
85.428
85.477
85.673
85.868
85.966
86.063
85.966
85.819
85.575
85.135
84.696
84.061
83.377
82.693
81.912
81.179
80.349
79.567
78.688
77.858
76.978
76.197
75.366
74.634
73.852
73.168
72.631
72.094
71.801
71.85
72.729
74.927
78.981
84.842
92.315
100.72
109.61
118.35
126.36
133.2
138.47
142.28
144.63
145.7
145.85
145.31
144.29
143.06
141.6
140.13
138.57
137.01
135.44
133.88
132.17
130.36
128.36
126.12
123.48
120.5
117.13
113.37
109.31
105.06
100.86
96.858
93.243
90.166
87.871
86.112
85.135
84.549
84.5
84.598
84.94
85.282
85.575
85.721
85.673
85.477
85.135
84.696
84.11
83.426
82.693
81.863
81.032
80.251
79.421
78.541
77.76
76.929
76.099
75.366
74.536
73.852
73.168
72.485
71.801
71.166
70.677
70.189
69.652
69.261
68.87
68.431
68.04
67.698
67.356
67.063
66.819
66.526
66.281
66.037
65.793
65.549
65.305
65.06
64.865
64.67
64.425
64.23
64.035
63.839
63.742
63.546
63.351
63.253
63.058
62.862
62.667
62.569
62.374
62.179
61.983
61.885
61.739
61.544
61.446
61.251
61.104
61.006
60.811
60.664
60.567
60.616
61.104
62.862
66.672
73.217
82.058
92.413
103.35
114.25
124.31
132.95
139.94
145.07
148.53
150.54
151.42
151.51
150.93
149.95
148.83
147.56
146.24
144.92
143.7
142.38
141.11
139.79
138.42
136.86
135.05
133
130.51
127.53
124.26
120.45
116.35
112
107.51
103.16
99.251
95.783
92.95
90.752
89.189
88.115
87.529
87.284
87.284
87.431
87.529
87.626
87.626
87.431
87.187
86.796
86.356
85.819
85.135
84.403
83.67
82.791
82.009
81.13
80.3
79.469
78.688
77.906
77.125
76.343
75.611
74.927
74.292
73.608
73.071
72.485
71.996
71.557
71.068
70.629
70.189
69.798
69.407
69.114
68.724
68.431
68.089
67.844
67.6
67.405
67.161
66.965
66.721
66.526
66.281
66.135
65.842
65.695
65.5
65.305
65.109
64.914
64.718
64.474
64.23
63.937
63.693
63.546
63.742
64.865
67.6
72.485
79.567
88.164
97.688
107.41
116.79
125.19
132.22
137.69
141.55
144.04
145.41
145.85
145.6
145.02
144.14
143.06
141.99
140.92
139.89
138.86
137.79
136.67
135.44
134.08
132.51
130.66
128.51
125.92
122.99
119.62
115.81
111.76
107.51
103.16
99.105
95.344
92.169
89.678
87.724
86.356
85.477
85.038
84.94
84.989
85.038
85.184
85.233
85.233
85.038
84.793
84.403
84.012
83.475
82.84
82.156
81.423
80.593
79.811
78.981
78.248
77.418
76.636
75.806
75.073
74.341
73.657
72.973
72.289
71.654
71.117
70.531
70.042
69.554
69.114
68.724
68.382
68.04
67.698
67.405
67.112
66.868
66.526
66.281
66.037
65.793
65.598
65.353
65.158
64.914
64.67
64.474
64.279
64.132
63.937
63.742
63.546
63.351
63.107
62.862
62.618
62.423
62.374
62.569
63.253
65.158
69.066
75.171
83.133
92.218
101.79
111.22
120.01
127.53
133.54
137.94
140.82
142.38
142.92
142.72
142.04
141.06
139.89
138.47
137.11
135.69
134.22
132.76
131.24
129.68
128.07
126.16
124.06
121.57
118.69
115.42
111.8
107.95
103.84
99.886
96.223
93.048
90.362
88.31
86.845
85.917
85.379
85.184
85.184
85.233
85.379
85.575
85.673
85.673
85.575
85.282
84.842
84.354
83.719
83.182
82.547
81.912
81.179
80.3
79.421
78.59
77.809
76.978
76.197
75.464
74.878
74.292
73.755
73.168
72.68
72.192
71.654
71.166
70.726
70.238
69.749
69.31
68.968
68.675
68.431
68.186
67.844
67.6
67.307
67.063
66.819
66.623
66.379
66.184
65.94
65.744
65.5
65.158
64.865
64.621
64.279
64.181
64.035
63.937
63.839
63.742
63.693
63.693
63.986
65.012
67.551
72.192
78.981
87.529
97.297
107.51
117.32
125.92
133.1
138.62
142.48
144.92
146.39
147.07
147.26
146.97
146.53
145.95
145.16
144.29
143.36
142.38
141.35
140.33
139.11
137.89
136.42
134.76
132.81
130.61
128.07
125.04
121.62
117.86
113.81
109.61
105.36
101.35
97.688
94.562
92.071
90.117
88.75
87.871
87.431
87.187
87.04
87.04
87.187
87.431
87.626
87.626
87.382
86.845
86.063
84.696
82.791
81.277
81.13
81.814
81.814
80.788
79.567
78.59
77.858
77.32
76.685
76.05
75.366
74.731
74.097
73.51
72.875
72.289
71.801
71.361
70.922
70.629
70.238
69.847
69.505
69.114
68.724
68.431
68.04
67.747
67.405
67.161
66.916
66.721
66.623
66.428
66.233
66.135
65.94
65.695
65.402
65.256
65.012
64.816
64.718
64.865
65.5
67.356
71.068
76.881
84.5
93.439
103.06
112.63
121.57
129.39
135.69
140.43
143.7
145.6
146.48
146.63
146.19
145.41
144.43
143.46
142.43
141.35
140.33
139.11
137.94
136.67
135.3
133.69
131.88
129.83
127.43
124.75
121.72
118.3
114.54
110.49
106.24
101.99
97.981
94.416
91.485
89.287
87.724
86.601
85.966
85.819
85.966
86.356
86.698
86.796
86.943
86.943
86.943
86.796
86.601
86.161
85.477
84.696
83.719
82.791
81.912
81.179
80.446
79.665
78.737
77.76
76.734
75.757
74.78
73.901
73.12
72.192
71.312
70.433
69.749
69.066
68.528
68.04
67.551
67.112
66.721
66.428
66.281
66.184
65.988
65.842
65.695
65.549
65.5
65.598
65.744
65.695
65.549
65.402
65.402
65.353
65.256
64.914
64.621
64.377
64.181
64.035
63.986
63.839
63.986
64.621
66.477
70.189
75.855
83.377
92.071
101.35
110.68
119.37
126.8
132.81
137.35
140.48
142.38
143.31
143.5
143.06
142.23
141.11
139.79
138.38
136.91
135.54
134.13
132.66
131.24
129.53
127.73
125.63
123.18
120.35
117.13
113.56
109.61
105.55
101.5
97.591
94.22
91.485
89.238
87.529
86.405
85.721
85.428
85.379
85.428
85.673
85.868
85.966
85.966
85.868
85.575
85.135
84.549
84.012
83.279
82.595
81.863
81.13
80.349
79.616
78.883
78.102
77.369
76.685
75.904
75.22
74.536
73.803
73.071
72.387
71.85
71.557
71.41
71.361
71.068
70.482
69.847
69.31
68.87
68.528
68.235
68.04
67.796
67.551
67.307
67.112
66.868
66.623
66.281
65.988
65.744
65.402
65.158
64.865
64.572
64.279
63.986
63.693
63.302
63.009
62.667
62.423
62.569
63.497
65.842
70.287
76.783
85.038
94.367
104.23
113.9
122.7
130.12
135.93
140.23
143.06
144.73
145.56
145.7
145.31
144.82
144.19
143.46
142.62
141.7
140.67
139.74
138.81
137.89
136.81
135.64
134.17
132.32
129.93
127.19
124.02
120.5
116.69
112.73
108.68
104.58
100.42
96.418
92.657
89.434
86.747
84.842
83.719
83.279
83.377
83.719
84.11
84.5
84.793
84.989
85.135
84.989
84.696
84.158
83.621
82.937
82.302
81.57
80.788
80.007
79.225
78.541
77.858
77.223
76.539
75.904
75.318
74.634
73.901
73.12
72.436
71.85
71.361
70.873
70.384
69.847
69.505
69.261
68.968
68.724
68.431
68.04
67.6
67.258
66.819
66.379
66.037
65.842
65.744
65.598
65.5
65.256
65.012
64.865
64.718
64.621
64.474
64.23
64.035
63.839
63.693
63.497
63.351
63.595
64.816
67.551
72.387
79.225
87.626
96.907
106.53
115.81
124.06
130.66
135.74
139.3
141.6
142.82
143.11
142.87
142.19
141.16
140.04
138.86
137.54
136.18
134.66
133.25
131.73
130.22
128.61
126.6
124.26
121.43
118.11
114.54
110.63
106.53
102.38
98.372
94.758
91.534
89.043
87.187
85.966
85.282
85.038
85.038
85.184
85.379
85.575
85.673
85.673
85.575
85.379
85.038
84.696
84.11
83.377
82.547
81.814
81.032
80.3
79.567
78.786
78.004
77.223
76.49
75.757
75.073
74.341
73.657
73.12
72.68
72.192
71.605
70.97
70.531
70.238
70.189
70.189
70.042
69.798
69.505
69.261
69.066
68.87
68.675
68.431
68.04
67.747
67.405
67.063
66.672
66.379
66.184
65.94
65.695
65.353
65.06
64.816
64.474
64.132
63.693
63.253
63.009
62.862
63.253
64.718
68.089
73.755
81.374
90.41
100.33
110.39
119.86
128.26
135.01
140.18
143.94
146.29
147.61
148.1
148.05
147.61
146.97
146.24
145.41
144.58
143.7
142.67
141.55
140.38
139.11
137.74
136.18
134.42
132.51
130.32
127.83
124.85
121.43
117.57
113.32
108.87
104.43
100.33
96.614
93.634
91.094
89.238
87.871
87.138
86.698
86.552
86.552
86.698
86.747
86.747
86.601
86.308
85.868
85.233
141.6
140.57
139.5
138.38
137.2
135.93
134.57
133.05
131.39
129.39
127.14
124.55
121.62
118.35
114.73
110.83
106.68
102.43
98.323
94.562
91.436
88.847
86.943
85.477
84.696
84.256
84.158
84.305
84.549
84.793
84.989
85.038
84.989
84.793
84.5
84.061
83.572
82.986
82.302
81.618
80.935
80.153
79.421
78.688
77.906
77.174
76.441
75.757
75.073
74.438
73.803
73.217
72.68
72.192
71.654
71.215
70.824
70.433
70.042
69.749
69.407
69.163
68.919
68.675
68.479
68.382
68.186
67.991
67.796
67.6
67.405
67.258
67.112
66.916
66.819
66.623
66.379
66.184
65.94
65.695
65.5
65.256
65.012
64.816
64.718
65.06
66.379
69.359
74.438
81.57
90.117
99.495
109.12
118.3
126.41
133.1
138.23
141.79
144.14
145.26
145.56
145.12
144.29
143.16
141.89
140.43
139.01
137.5
135.98
134.52
133
131.44
129.83
127.97
125.97
123.67
120.99
118.01
114.54
110.88
106.92
102.91
99.105
95.637
92.608
90.069
88.115
86.747
85.868
85.379
85.184
85.282
85.477
85.673
85.819
85.917
85.868
85.721
85.428
84.989
84.5
83.914
83.279
82.595
81.863
81.032
80.251
79.421
78.59
77.809
77.027
76.294
75.611
74.878
74.194
73.51
72.924
72.387
71.85
71.361
70.873
70.433
70.042
69.652
69.31
68.919
68.626
68.284
68.04
67.796
67.503
67.258
66.965
66.721
66.526
66.281
66.135
65.94
65.793
65.598
65.402
65.256
65.06
64.914
64.718
64.474
64.23
64.035
63.986
64.377
65.695
68.675
73.901
81.374
90.313
100.13
110.09
119.62
128.12
135.1
140.57
144.43
146.92
148.19
148.53
148.29
147.61
146.68
145.6
144.48
143.31
142.14
140.87
139.55
138.23
136.86
135.35
133.78
132.07
130.12
127.87
125.29
122.31
118.98
115.22
111.17
106.92
102.72
98.763
95.099
91.973
89.482
87.626
86.308
85.477
85.038
84.94
84.94
85.038
85.135
85.184
85.135
84.989
84.745
84.354
83.865
83.377
82.742
82.058
81.374
80.69
80.007
79.225
78.444
77.662
76.881
76.099
75.366
74.634
73.901
73.168
72.533
71.85
71.312
70.726
70.189
69.652
69.261
68.821
68.382
68.04
67.698
67.405
67.161
66.916
66.672
66.379
66.135
65.793
65.549
65.305
65.06
64.865
64.621
64.425
64.181
63.986
63.742
63.497
63.253
63.009
62.716
62.423
62.227
62.13
62.227
63.107
65.305
69.603
76.099
84.354
93.536
103.16
112.49
121.04
128.31
134.13
138.38
141.26
142.72
143.31
143.11
142.43
141.35
140.13
138.77
137.45
136.13
134.86
133.64
132.37
131
129.63
128.07
126.31
124.31
121.91
119.18
116.05
112.49
108.68
104.62
100.62
96.809
93.292
90.362
88.066
86.259
84.989
84.256
83.865
83.816
83.914
84.158
84.403
84.598
84.696
84.598
84.403
84.158
83.719
83.23
82.693
82.009
81.277
80.544
79.811
78.981
78.248
77.418
76.685
75.904
75.22
74.487
73.852
73.168
72.631
71.996
71.508
70.97
70.482
70.042
69.652
69.31
68.968
68.675
68.382
68.04
67.796
67.551
67.307
67.063
66.868
66.721
66.526
66.379
66.135
65.842
65.549
65.353
65.353
65.793
67.307
70.531
76.001
83.426
92.364
101.99
111.8
120.99
129.19
135.93
141.06
144.63
146.87
147.95
148.1
147.75
146.92
146
144.87
143.8
142.72
141.6
140.57
139.35
138.13
136.76
135.2
133.44
131.54
129.39
126.85
