1.2219
1.2219
1.2229
1.2121
1.1945
1.1867
1.1838
1.1828
1.1818
1.1818
1.1789
1.173
1.1691
1.1672
1.1662
1.1662
1.1662
1.1662
1.1662
1.1662
1.1662
1.1662
1.1662
1.1662
1.1672
1.1701
1.173
1.175
1.1769
1.1789
1.1789
1.175
1.1691
1.1632
1.1574
1.1515
1.1486
1.1505
1.1535
1.1584
1.1642
1.173
1.1818
1.1935
1.2063
1.217
1.2268
1.2336
1.2336
1.2287
1.2219
1.219
1.2278
1.2512
1.2962
1.3763
1.4946
1.651
1.8387
2.0469
2.263
2.4761
2.6764
2.8543
3.0078
3.1202
3.2043
3.2845
3.3568
3.4164
3.4633
3.4995
3.5239
3.5386
3.5435
3.5406
3.5308
3.5161
3.4927
3.4604
3.4223
3.3734
3.3138
3.2405
3.1525
3.0547
2.9501
2.8387
2.7234
2.609
2.5064
2.4115
2.3109
2.2092
2.1114
2.0215
1.9404
1.8719
1.8172
1.7732
1.74
1.7136
1.694
1.6784
1.6667
1.6579
1.65
1.6403
1.6295
1.6149
1.5943
1.567
1.5347
1.5005
1.4643
1.433
1.4037
1.3734
1.346
1.3216
1.2991
1.2776
1.2542
1.2297
1.2053
1.1838
1.1652
1.1496
1.1398
1.1349
1.13
1.1232
1.1153
1.1046
1.0909
1.0762
1.0567
1.0391
1.0264
1.0147
1.0088
1.0059
1.0029
1.0029
1.0059
1.0137
1.0313
1.0626
1.1134
1.1906
1.2972
1.4291
1.5797
1.7185
1.8485
1.9912
2.1281
2.2542
2.3666
2.4624
2.5406
2.6012
2.6452
2.6735
2.6862
2.6833
2.6696
2.65
2.6227
2.5894
2.5484
2.5015
2.4506
2.3959
2.3363
2.2688
2.1945
2.1134
2.0362
1.956
1.8641
1.7693
1.6755
1.5855
1.5054
1.436
1.3793
1.3372
1.3109
1.2962
1.2903
1.2913
1.2972
1.303
1.306
1.3069
1.3079
1.306
1.2991
1.2903
1.2805
1.2708
1.263
1.2561
1.2473
1.2395
1.2326
1.2258
1.217
1.2072
1.1945
1.1789
1.1632
1.1466
1.129
1.1144
1.0987
1.0753
1.0459
1.0156
0.98338
0.94819
0.91202
0.87781
0.84653
0.81623
0.78788
0.76735
0.74976
0.73021
0.71261
0.69599
0.68231
0.67449
0.67058
0.66862
0.66764
0.66862
0.67155
0.67546
0.68231
0.6911
0.69892
0.70479
0.71065
0.71359
0.71261
0.70968
0.70479
0.6999
0.69306
0.68524
0.67937
0.67644
0.67449
0.67546
0.68817
0.72043
0.78201
0.93353
1.1349
1.3069
1.4731
1.6373
1.8152
1.9599
2.0635
2.173
2.2766
2.3656
2.4389
2.4985
2.5445
2.5787
2.6031
2.6188
2.6285
2.6295
2.6246
2.6207
2.6149
2.6061
2.5934
2.5758
2.5523
2.523
2.4878
2.4467
2.3988
2.3441
2.2913
2.2366
2.176
2.1114
2.0459
1.9824
1.9218
1.8641
1.8133
1.7703
1.7331
1.7038
1.6833
1.6667
1.652
1.6403
1.6285
1.6178
1.607
1.5943
1.5816
1.5699
1.5582
1.5474
1.5347
1.522
1.5083
1.4927
1.4761
1.4594
1.4418
1.4242
1.4076
1.392
1.3763
1.3627
1.35
1.3412
1.3353
1.3304
1.3265
1.3226
1.3187
1.3157
1.3157
1.3177
1.3206
1.3236
1.3284
1.3353
1.3421
1.346
1.348
1.349
1.35
1.35
1.35
1.349
1.347
1.3441
1.3412
1.3372
1.3353
1.3363
1.3372
1.3353
1.3324
1.3294
1.3275
1.3284
1.3372
1.3587
1.3978
1.4594
1.5445
1.6325
1.7283
1.8446
1.9697
2.0929
2.2072
2.3099
2.3969
2.4673
2.522
2.5611
2.5865
2.5973
2.5992
2.5992
2.5953
2.5865
2.5748
2.5601
2.5415
2.52
2.4946
2.4643
2.4301
2.392
2.3529
2.3118
2.2512
2.1926
2.1466
2.089
2.0254
1.9599
1.8944
1.8319
1.7722
1.7195
1.6794
1.6491
1.6207
1.5982
1.5836
1.5748
1.5689
1.567
1.5679
1.5699
1.5718
1.5728
1.5738
1.5728
1.5709
1.566
1.5582
1.5474
1.5347
1.522
1.5093
1.4956
1.4829
1.4721
1.4624
1.4565
1.4516
1.4448
1.4379
1.4311
1.4213
1.4086
1.392
1.3724
1.349
1.3245
1.3001
1.2786
1.259
1.2375
1.2141
1.1896
1.1672
1.1457
1.1271
1.1124
1.1007
1.0899
1.0792
1.0694
1.0645
1.0606
1.0557
1.0508
1.0469
1.045
1.0459
1.0479
1.0508
1.0538
1.0577
1.0626
1.0714
1.088
1.1163
1.1623
1.2297
1.3187
1.4272
1.5513
1.6833
1.8182
1.9472
2.0645
2.1652
2.2385
2.2923
2.3392
2.3763
2.4027
2.4194
2.4282
2.4282
2.4233
2.4135
2.3988
2.3822
2.3646
2.3431
2.3187
2.2913
2.26
2.2248
2.1857
2.1427
2.0948
2.043
1.9883
1.9316
1.8759
1.8289
1.7879
1.7468
1.7097
1.6774
1.6491
1.6256
1.608
1.5934
1.5826
1.5748
1.5679
1.563
1.5797
1.6051
1.6119
1.609
1.6002
1.5816
1.5621
1.5484
1.5318
1.5142
1.4966
1.478
1.4633
1.4506
1.435
1.4194
1.4057
1.3949
1.3871
1.3793
1.3705
1.3636
1.3558
1.347
1.3431
1.3412
1.3372
1.3333
1.3284
1.3255
1.3226
1.3187
1.3148
1.3109
1.306
1.3011
1.2962
1.2942
1.2933
1.2903
1.2864
1.2825
1.2786
1.2737
1.2688
1.2659
1.263
1.259
1.2551
1.2522
1.2483
1.2444
1.2463
1.2649
1.305
1.3734
1.4751
1.6051
1.7576
1.9257
2.0997
2.2698
2.4076
2.5191
2.6266
2.7204
2.7967
2.8543
2.8964
2.9267
2.9462
2.958
2.9619
2.9609
2.9521
2.9384
2.9238
2.9071
2.8876
2.8612
2.8299
2.7947
2.7537
2.7058
2.651
2.5904
2.523
2.4575
2.391
2.3148
2.2336
2.1505
2.0684
1.9892
1.915
1.8495
1.7928
1.7439
1.7038
1.6764
1.6569
1.6413
1.6285
1.6188
1.61
1.6002
1.5914
1.5797
1.567
1.5543
1.5406
1.5259
1.5122
1.4995
1.4848
1.4682
1.4506
1.4311
1.4115
1.392
1.3744
1.3587
1.3441
1.3294
1.3187
1.3099
1.3001
1.2903
1.2796
1.2688
1.259
1.2502
1.2434
1.2395
1.2375
1.2346
1.2336
1.2346
1.2346
1.2346
1.2346
1.2346
1.2336
1.2307
1.2258
1.2199
1.2151
1.2102
1.2053
1.2043
1.2043
1.2014
1.1955
1.1887
1.1838
1.1828
1.1906
1.2141
1.26
1.3372
1.4457
1.5591
1.6794
1.827
1.9863
2.1427
2.2874
2.4154
2.522
2.607
2.6725
2.7204
2.7537
2.7752
2.784
2.783
2.7791
2.7713
2.7595
2.7429
2.7214
2.694
2.6637
2.6276
2.5865
2.5415
2.4966
2.4487
2.392
2.3284
2.2571
2.1789
2.0958
2.0088
1.9228
1.8397
1.7615
1.6911
1.6305
1.5846
1.5513
1.5239
1.5024
1.4858
1.4751
1.4702
1.4673
1.4653
1.4604
1.4555
1.4506
1.4467
1.4418
1.435
1.4272
1.4184
1.4066
1.393
1.3793
1.3656
1.3529
1.3412
1.3284
1.3148
1.305
1.2962
1.2864
1.2757
1.2659
1.2561
1.2483
1.2444
1.2424
1.2414
1.2405
1.2405
1.2414
1.2414
1.2405
1.2405
1.2405
1.2405
1.2405
1.2405
1.2405
1.2405
1.2405
1.2405
1.2405
1.2414
1.2434
1.2444
1.2434
1.2414
1.2405
1.2405
1.1955
1.129
1.0987
1.0948
1.1183
1.1916
1.2737
1.3558
1.4839
1.6432
1.8221
2.0078
2.1887
2.3558
2.5034
2.6285
2.7312
2.8123
2.8661
2.8993
2.9247
2.9404
2.9453
2.9423
2.9335
2.9189
2.9013
2.8807
2.8573
2.8299
2.7986
2.7615
2.7165
2.6657
2.607
2.5406
2.4663
2.3842
2.2952
2.2023
2.1075
2.0137
1.9238
1.8475
1.783
1.7195
1.6637
1.6158
1.5787
1.5513
1.5308
1.5161
1.5064
1.4995
1.4936
1.4878
1.48
1.4682
1.4516
1.4311
1.4086
1.3851
1.3597
1.3363
1.3128
1.2903
1.2688
1.2493
1.2356
1.2248
1.2121
1.1965
1.1779
1.1603
1.1437
1.1281
1.1124
1.0968
1.0821
1.0694
1.0616
1.0567
1.0489
1.0411
1.0342
1.0283
1.0225
1.0166
1.0108
1.0059
1.001
0.99609
0.99022
0.98729
0.98631
0.98045
0.97361
0.96774
0.96383
0.95992
0.95601
0.95112
0.94526
0.93646
0.92864
0.92571
0.92864
0.94037
0.97165
1.0313
1.1212
1.2424
1.393
1.566
1.7498
1.9316
2.1017
2.2356
2.3431
2.4487
2.5396
2.6139
2.6716
2.7116
2.737
2.7488
2.7478
2.737
2.7175
2.6921
2.6628
2.6285
2.5885
2.5318
2.479
2.437
2.3851
2.3255
2.2581
2.1838
2.1026
2.0166
1.9394
1.8671
1.7898
1.6989
1.6197
1.566
1.5152
1.4702
1.433
1.4076
1.392
1.3851
1.3842
1.3871
1.391
1.3939
1.3939
1.392
1.3891
1.3851
1.3812
1.3763
1.3617
1.346
1.3324
1.3187
1.304
1.2786
1.2532
1.2366
1.2141
1.1857
1.1593
1.1398
1.1202
1.0978
1.0802
1.0704
1.0635
1.0557
1.0489
1.043
1.0362
1.0303
1.0235
1.0176
1.0117
1.0059
1.001
0.99804
0.99804
0.99511
0.9912
0.98729
0.98143
0.97263
0.96481
0.95797
0.9521
0.94721
0.9433
0.94135
0.94135
0.94135
0.94037
0.94233
0.95308
0.9824
1.0371
1.1222
1.2405
1.39
1.567
1.7576
1.9267
2.0811
2.2454
2.4008
2.5376
2.6549
2.7498
2.8231
2.8778
2.914
2.9345
2.9433
2.9433
2.9316
2.912
2.8915
2.8671
2.8407
2.8133
2.781
2.7419
2.696
2.6432
2.5836
2.5152
2.4457
2.3754
2.2952
2.2072
2.1153
2.0244
1.9374
1.8553
1.7801
1.7136
1.6579
1.6119
1.5748
1.5484
1.5484
1.5601
1.5591
1.5533
1.5455
1.5347
1.521
1.5073
1.4927
1.478
1.4624
1.4497
1.437
1.4203
1.4018
1.3832
1.3636
1.3431
1.3245
1.306
1.2864
1.2678
1.2512
1.2356
1.2239
1.2141
1.2014
1.1877
1.173
1.1593
1.1486
1.1427
1.1398
1.1359
1.131
1.1271
1.1251
1.1261
1.1241
1.1202
1.1183
1.1173
1.1173
1.1173
1.1173
1.1173
1.1173
1.1173
1.1144
1.1124
1.1114
1.1075
1.1046
1.1036
1.1114
1.1349
1.1838
1.2639
1.3783
1.5239
1.6921
1.8495
1.999
2.1642
2.3265
2.4731
2.5982
2.7009
2.783
2.8456
2.8886
2.9159
2.9306
2.9326
2.9267
2.9169
2.9032
2.8876
2.8719
2.8543
2.8328
2.8065
2.7742
2.738
2.696
2.6452
2.5914
2.5347
2.4653
2.3871
2.3011
2.2102
2.1163
2.0244
1.9355
1.8504
1.7722
1.7038
1.653
1.6119
1.5748
1.5435
1.5181
1.4976
1.4809
1.4682
1.4565
1.4457
1.435
1.4242
1.4125
1.4018
1.39
1.3744
1.3568
1.3363
1.3148
1.2952
1.2766
1.2571
1.2375
1.217
1.1965
1.1818
1.1691
1.1554
1.1417
1.129
1.1163
1.1026
1.089
1.0762
1.0635
1.0518
1.0411
1.0303
1.0235
1.0196
1.0127
1.0039
0.99707
0.99316
0.99022
0.98729
0.98631
0.98436
0.9824
0.98143
0.98338
0.98631
0.98827
0.98729
0.98631
0.98534
0.98338
0.9824
0.98436
0.99316
1.0196
1.0694
1.1466
1.2375
1.346
1.4897
1.6549
1.8289
2
2.1632
2.3089
2.4311
2.5298
2.609
2.6686
2.7028
2.7204
2.7322
2.7351
2.7292
2.7155
2.6979
2.6745
2.6481
2.6168
2.5826
2.5455
2.5024
2.4594
2.4145
2.3587
2.2942
2.2229
2.1466
2.0655
1.9804
1.8964
1.8143
1.7351
1.6647
1.61
1.567
1.5259
1.4946
1.4721
1.4585
1.4516
1.4497
1.4497
1.4497
1.4497
1.4467
1.4409
1.435
1.4301
1.4213
1.4076
1.391
1.3724
1.3529
1.3333
1.3148
1.2972
1.2815
1.2649
1.2512
1.2385
1.219
1.1994
1.1808
1.1632
1.1486
1.1349
1.1222
1.1075
1.0929
1.0792
1.0674
1.0596
1.0547
1.0479
1.0391
1.0293
1.0196
1.0098
1.001
0.99511
0.99218
0.9912
0.99022
0.99218
0.99609
0.99804
0.99902
1
1.001
1.0029
1.0039
1.0098
1.0176
1.0254
1.0411
1.0753
1.1241
1.1945
1.3021
1.4428
1.6119
1.8016
1.998
2.1887
2.3646
2.5191
2.6491
2.7556
2.8309
2.8837
2.9286
2.9609
2.9834
2.998
3.002
2.999
2.9902
2.9756
2.956
2.9335
2.9071
2.8759
2.8397
2.7986
2.7517
2.6979
2.6364
2.567
2.4907
2.4086
2.3206
2.2287
2.1359
2.0567
1.9873
1.915
1.8475
1.7879
1.7361
1.6931
1.6608
1.6354
1.6149
1.5973
1.5806
1.567
1.5552
1.5415
1.5259
1.5103
1.4976
1.4829
1.4673
1.4497
1.4311
1.4115
1.391
1.3705
1.3539
1.3402
1.3265
1.3118
1.2962
1.2805
1.2649
1.2502
1.2346
1.2219
1.2102
1.1975
1.1887
1.1828
1.1769
1.1701
1.1632
1.1564
1.1496
1.1427
1.1388
1.1369
1.1359
1.1349
1.1349
1.1369
1.1408
1.1437
1.1466
1.1486
1.1496
1.1496
1.1496
1.1496
1.1496
1.1496
1.1525
1.1613
1.1808
1.2209
1.2884
1.3891
1.523
1.6833
1.8622
2.0479
2.2287
2.3939
2.5367
2.6559
2.74
2.7986
2.8485
2.8847
2.9091
2.9247
2.9306
2.9296
2.9228
2.912
2.8974
2.8788
2.8534
2.8231
2.7908
2.7586
2.7214
2.6774
2.6256
2.567
2.4985
2.4223
2.3382
2.2502
2.1593
2.0762
1.9971
1.913
1.8289
1.7498
1.6804
1.6197
1.5689
1.5288
1.5015
1.4829
1.4682
1.4585
1.4506
1.4418
1.4321
1.4223
1.4106
1.3969
1.3812
1.3646
1.349
1.3333
1.3177
1.3021
1.2903
1.2805
1.2678
1.2542
1.2395
1.2239
1.2082
1.1935
1.1789
1.1652
1.1515
1.1378
1.13
1.1241
1.1163
1.1075
1.0987
1.0938
1.0909
1.0899
1.086
1.0802
1.0753
1.0704
1.0645
1.0635
1.0626
1.0596
1.0557
1.0518
1.0499
1.0489
1.0479
1.045
1.0411
1.0362
1.0283
1.0235
1.0196
1.0156
1.0147
1.0235
1.0508
1.1026
1.1838
1.2962
1.4379
1.6012
1.7761
1.9541
2.1036
2.2297
2.3558
2.4692
2.563
2.6364
2.6911
2.7292
2.7517
2.7615
2.7634
2.7576
2.7449
2.7243
2.6979
2.6696
2.6383
2.6041
2.565
2.5191
2.4673
2.4076
2.3402
2.2669
2.1877
2.1134
2.0411
1.9619
1.8798
1.7996
1.7263
1.6608
1.6031
1.5562
1.522
1.4995
1.4868
1.4819
1.4809
1.48
1.479
1.479
1.479
1.479
1.479
1.479
1.479
1.4761
1.4692
1.4633
1.4585
1.4506
1.4418
1.4321
1.4223
1.4096
1.393
1.3754
1.3587
1.3431
1.3294
1.3206
1.3157
1.3138
1.3099
1.305
1.3001
1.2952
1.2903
1.2825
1.2727
1.262
1.2502
1.2385
1.2297
1.2239
1.219
1.218
1.2278
1.2571
1.3128
1.3969
1.5122
1.6569
1.8221
1.9961
2.1681
2.3079
2.4213
2.5327
2.6276
2.7038
2.7634
2.8084
2.8416
2.8631
2.8759
2.8807
2.8788
2.869
2.8524
2.8328
2.8104
2.7849
2.7566
2.7243
2.6852
2.6393
2.5885
2.5298
2.4633
2.39
2.3196
2.2473
2.1632
2.0762
1.9892
1.9042
1.825
1.7517
1.6882
1.6354
1.5904
1.5543
1.5279
1.5093
1.4956
1.4858
1.478
1.4702
1.4614
1.4516
1.4418
1.4321
1.4194
1.4027
1.3842
1.3685
1.3539
1.3353
1.3157
1.2972
1.2786
1.262
1.2454
1.2307
1.2199
1.2111
1.2043
1.2014
1.1994
1.1945
1.1877
1.1799
1.172
1.1642
1.1584
1.1515
1.1437
1.1378
1.131
1.1251
1.1241
1.1261
1.1271
1.1281
1.1281
1.1281
1.13
1.1329
1.1369
1.1408
1.1447
1.1496
1.1535
1.1564
1.1584
1.1593
1.1603
1.1623
1.1632
1.1652
1.1662
1.1642
1.1623
1.1613
1.1603
1.1603
1.1574
1.1505
1.1417
1.1349
1.1369
1.1535
1.1906
1.2571
1.3558
1.4878
1.6471
1.7986
1.9472
2.1153
2.2825
2.434
2.564
2.6716
2.7566
2.8211
2.8661
2.8935
2.9071
2.9101
2.9032
2.8876
2.868
2.8446
2.8162
2.784
2.7488
2.7107
2.6676
2.6207
2.5679
2.5073
2.4487
2.3881
2.3148
2.2346
2.1496
2.0616
1.9746
1.8886
1.8065
1.7322
1.6667
1.6119
1.5679
1.5376
1.5171
1.5005
1.4897
1.4839
1.4809
1.48
1.479
1.4761
1.4692
1.4614
1.4506
1.4399
1.4282
1.4125
1.3939
1.3744
1.3539
1.3353
1.3196
1.305
1.2923
1.2835
1.2766
1.2698
1.2639
1.259
1.2532
1.2454
1.2356
1.2258
1.2151
1.2043
1.1955
1.1887
1.1828
1.1779
1.175
1.174
1.1701
1.1662
1.1632
1.1613
1.1603
1.1603
1.1603
1.1603
1.1603
1.1603
1.1613
1.1613
1.1603
1.1603
1.1603
1.1603
1.1603
1.1603
1.1603
1.132
1.0909
1.0782
1.0948
1.1329
1.1975
1.303
1.4448
1.6188
1.8123
2.0117
2.2043
2.3803
2.5357
2.6657
2.7713
2.8436
2.8935
2.9365
2.9658
2.9834
2.9892
2.9883
2.9834
2.9736
2.9609
2.9443
2.9228
2.8964
2.8651
2.8289
2.7898
2.7449
2.6911
2.6285
2.5572
2.4751
2.3861
2.2903
2.1896
2.088
2
1.9228
1.8446
1.7713
1.7058
1.651
1.6051
1.566
1.5337
1.5083
1.4868
1.4692
1.4545
1.4428
1.433
1.4223
1.4106
1.3998
1.3881
1.3734
1.3548
1.3343
1.3128
1.2903
1.2678
1.2493
1.2346
1.219
1.2023
1.1857
1.1691
1.1544
1.1417
1.13
1.1193
1.1085
1.0958
1.0811
1.0694
1.0606
1.0508
1.0411
1.0332
1.0283
1.0244
1.0196
1.0156
1.0137
1.0098
1.0049
1.0059
1.0088
1.0078
1.0039
0.99902
0.9912
0.98436
0.97849
0.97263
0.9697
0.96676
0.96188
0.95601
0.95308
0.95406
0.95894
0.97556
1.0108
1.0723
1.1672
1.2972
1.4575
1.6403
1.8348
2.0254
2.1828
2.3128
2.4399
2.5523
2.6442
2.7155
2.7654
2.7967
2.8133
2.8201
2.8192
2.8123
2.7986
2.7791
2.7546
2.7263
2.6931
2.653
2.609
2.5601
2.5054
2.4457
2.3803
2.3069
2.2278
2.1544
2.0802
1.9941
1.9062
1.8211
1.741
1.6716
1.6139
1.567
1.5288
1.4995
1.48
1.4682
1.4643
1.4633
1.4633
1.4614
1.4575
1.4526
1.4457
1.436
1.4223
1.4086
1.393
1.3734
1.3568
1.3412
1.3216
1.3021
1.2825
1.263
1.2454
1.2297
1.2131
1.1965
1.1799
1.1632
1.1457
1.1329
1.1222
1.1085
1.0929
1.0762
1.0616
1.0479
1.0371
1.0274
1.0166
1.0068
0.99804
0.99218
0.9912
0.98729
0.9824
0.98045
0.97947
0.97849
0.97849
0.97849
0.97849
0.97849
0.97947
0.98436
0.99218
0.99902
1.0029
1.0049
1.0088
1.0205
1.0479
1.0997
1.1828
1.3001
1.4526
1.6334
1.8055
1.9746
2.1642
2.3529
2.5279
2.6794
2.8065
2.9081
2.9844
3.0401
3.0782
3.1017
3.1085
3.1046
3.0987
3.0899
3.0782
3.0626
3.042
3.0176
2.9883
2.9521
2.9081
2.8563
2.7967
2.7341
2.6686
2.5914
2.5044
2.4125
2.3148
2.2141
2.1173
2.0244
1.9384
1.8612
1.7937
1.7419
1.7019
1.6657
1.6354
1.6119
1.5924
1.5748
1.5582
1.5435
1.5298
1.5152
1.4995
1.4829
1.4663
1.4487
1.4282
1.4076
1.3871
1.3666
1.3451
1.3245
1.303
1.2835
1.2659
1.2483
1.2326
1.2199
1.2053
1.1916
1.1808
1.175
1.175
1.1808
1.1916
1.2053
1.2239
1.2483
1.2786
1.3118
1.349
1.3939
1.4438
1.4966
1.5464
1.5914
1.6354
1.6774
1.7214
1.7664
1.8133
1.8534
1.8886
1.9247
1.955
1.9726
1.9707
1.9472
1.9071
1.8553
1.8035
1.7644
1.7488
1.7644
1.8016
1.8592
1.9453
2.0469
2.1515
2.2454
2.3196
2.3705
2.3988
2.4086
2.4047
2.391
2.3705
2.3421
2.3011
2.2434
2.1701
2.0841
1.9902
1.8974
1.8133
1.741
1.6784
1.6227
1.5689
1.52
1.4702
1.4076
1.3333
1.2493
1.1564
1.0587
0.95992
0.86217
0.76637
0.67644
0.59824
0.54057
0.49951
0.4653
0.43988
0.42522
0.42033
0.42424
0.43206
0.44184
0.45161
0.46237
0.47116
0.47801
0.48778
0.49951
0.50831
0.51515
0.52102
0.52786
0.53763
0.55034
0.565
0.57869
0.58944
0.59726
0.60704
0.61681
0.62463
0.63245
0.64125
0.65298
0.67058
0.69404
0.72141
0.74976
0.77713
0.80156
0.82209
0.8436
0.86413
0.88465
0.90616
0.92669
0.94819
0.96872
0.98925
1.0108
1.0313
1.0528
1.0714
1.085
1.0958
1.1046
1.1114
1.1173
1.1241
1.1329
1.1408
1.1476
1.1535
1.1584
1.1603
1.1623
1.1691
1.1838
1.2131
1.2659
1.346
1.4536
1.5865
1.74
1.9042
2.0674
2.2209
2.3587
2.4633
2.5406
2.61
2.6667
2.7058
2.7283
2.738
2.738
2.7283
2.7126
2.6921
2.6667
2.6383
2.6051
2.5689
2.5318
2.4907
2.4457
2.3939
2.3343
2.2669
2.1926
2.1134
2.0303
1.9462
1.8729
1.8074
1.738
1.6706
1.61
1.5562
1.5112
1.4751
1.4506
1.436
1.4282
1.4272
1.4291
1.433
1.435
1.433
1.4291
1.4233
1.4154
1.4066
1.3969
1.3881
1.3812
1.3754
1.3695
1.3656
1.3607
1.3529
1.3412
1.3245
1.3079
1.2903
1.2747
1.262
1.2483
1.2356
1.2209
1.2102
1.2004
1.1877
1.174
1.1593
1.1427
1.1251
1.1095
1.0968
1.086
1.0802
1.0772
1.0753
1.0772
1.0811
1.0831
1.0811
1.0762
1.0704
1.0665
1.0616
1.0567
1.1789
1.3656
1.4624
1.5161
1.5474
1.566
1.5767
1.5885
1.607
1.6403
1.696
1.783
1.9071
2.0704
2.2727
2.5093
2.7312
2.9492
3.2033
3.4663
3.6989
3.8504
3.9267
3.9648
3.9834
3.9932
3.999
4
4.001
4.002
4.002
4.002
4.002
4.002
3.9961
3.9717
3.8993
3.8328
3.7576
3.6823
3.607
3.5259
3.4399
3.3529
3.262
3.1691
3.0762
2.9863
2.9022
2.828
2.7664
2.7185
2.6813
2.6491
2.6207
2.5953
2.5718
2.5474
2.521
2.4927
2.4614
2.4272
2.391
2.3519
2.3157
2.2825
2.2454
2.2053
2.1632
2.1202
2.0762
2.0332
1.9941
1.9589
1.9257
1.8954
1.8729
1.8524
1.828
1.7986
1.7664
1.7312
1.6911
1.6461
1.5963
1.5396
1.479
1.4154
1.3519
1.303
1.263
1.2239
1.1926
1.1711
1.1603
1.1574
1.1593
1.1632
1.1662
1.1711
1.1799
1.1916
1.2063
1.2385
1.262
1.2845
1.3089
1.3138
1.3118
1.3079
1.3089
1.3206
1.3451
1.3871
1.4565
1.5543
1.6745
1.8074
1.9443
2.0753
2.1926
2.2864
2.3539
2.3959
2.4184
2.4291
2.437
2.4438
2.4516
2.4624
2.4731
2.4809
2.48
2.4663
2.4389
2.3998
2.3509
2.303
2.2561
2.2053
2.1564
2.1095
2.0635
2.0147
1.9599
1.8993
1.8338
1.7674
1.7019
1.6481
1.6061
1.566
1.5337
1.5122
1.5005
1.4966
1.4976
1.5015
1.5083
1.5161
1.5269
1.5406
1.5591
1.5816
1.6051
1.6266
1.6422
1.6452
1.6334
1.6061
1.564
1.5083
1.4438
1.3763
1.3226
1.2786
1.2356
1.2014
1.1799
1.1701
1.1681
1.174
1.1857
1.2014
1.2209
1.2405
1.261
1.2835
1.306
1.3314
1.3597
1.3891
1.4184
1.4467
1.4721
1.4907
1.5044
1.5161
1.5288
1.5445
1.5611
1.5787
1.5982
1.6149
1.6217
1.6129
1.5865
1.5406
1.479
1.4076
1.3324
1.2717
1.2268
1.1906
1.176
1.1935
1.2483
1.3392
1.4643
1.6168
1.7879
1.9677
2.1486
2.3216
2.4633
2.5797
2.6891
2.7781
2.8426
2.8827
2.9022
2.9052
2.8974
2.8827
2.8631
2.8387
2.8084
2.7693
2.7146
2.6432
2.5562
2.4585
2.3558
2.2571
2.1691
2.0938
2.0332
1.9844
1.9433
1.9101
1.8817
1.8543
1.7263
1.5513
1.4624
1.4184
1.3978
1.391
1.39
1.391
1.39
1.3871
1.3822
1.3754
1.3685
1.3636
1.3587
1.3539
1.347
1.3363
1.3177
1.2913
1.2581
1.2209
1.1896
1.1632
1.1388
1.1212
1.1124
1.1114
1.1183
1.131
1.1466
1.1623
1.176
1.1887
1.2004
1.2111
1.2229
1.2375
1.2512
1.2639
1.2727
1.2737
1.2688
1.2571
1.2414
1.2258
1.2131
1.2053
1.2023
1.1994
1.1965
1.1916
1.1848
1.175
1.1632
1.1525
1.1447
1.1408
1.1437
1.1525
1.1652
1.1818
1.2014
1.2219
1.2424
1.262
1.2825
1.305
1.3314
1.3656
1.4086
1.4614
1.5122
1.564
1.6256
1.6891
1.7498
1.8006
1.8377
1.8592
1.8671
1.8651
1.8573
1.8504
1.8456
1.8446
1.8485
1.8563
1.8631
1.8661
1.8631
1.8534
1.8397
1.8221
1.7996
1.7732
1.74
1.7048
1.6667
1.6168
1.5591
1.4956
1.4262
1.3558
1.2893
1.2307
1.1838
1.1525
1.1369
1.1359
1.1457
1.1642
1.1857
1.2063
1.2199
1.2258
1.2229
1.2131
1.2014
1.1896
1.1818
1.1779
1.1779
1.1789
1.1789
1.175
1.1672
1.1525
1.131
1.1036
1.0714
1.0371
1.002
0.96872
0.94428
0.92669
0.91007
0.89541
0.88465
0.87683
0.87292
0.87292
0.87781
0.88856
0.90518
0.92571
0.94721
0.96774
0.98534
0.99804
1.0049
1.0068
1.0078
1.0078
1.0068
1.0049
1
0.98925
0.97067
0.9521
0.93157
0.90127
0.8651
0.826
0.78788
0.75367
0.72532
0.70772
0.70088
0.70772
0.73118
0.76735
0.81623
0.88661
0.97752
1.085
1.2072
1.3382
1.4741
1.607
1.7312
1.8416
1.9335
2.002
2.0459
2.0704
2.0831
2.0841
2.0753
2.0567
2.0313
2
1.9629
1.9208
1.8768
1.8328
1.7957
1.7625
1.7283
1.697
1.6686
1.6442
1.6256
1.6139
1.609
1.6119
1.6207
1.6315
1.6422
1.6481
1.6471
1.6393
1.6217
1.5963
1.566
1.5337
1.5005
1.4682
1.4379
1.4106
1.3871
1.3685
1.3539
1.3392
1.3245
1.3128
1.3079
1.3128
1.3275
1.3519
1.3822
1.4145
1.4438
1.4663
1.4809
1.4848
1.479
1.4624
1.435
1.3998
1.3568
1.3079
1.2571
1.2072
1.1623
1.1232
1.0948
1.0743
1.0547
1.0391
1.0293
1.0274
1.0371
1.0606
1.0968
1.1408
1.3255
1.5816
1.7302
1.8152
1.8631
1.8876
1.8925
1.8817
1.8602
1.8338
1.8074
1.784
1.7634
1.7468
1.7341
1.7253
1.7185
1.7107
1.7097
1.7243
1.7625
1.8309
1.9326
2.0626
2.2111
2.3685
2.52
2.6569
2.7595
2.8338
2.8944
2.9365
2.9619
2.9726
2.9726
2.9668
2.956
2.9433
2.9286
2.911
2.8905
2.87
2.8524
2.8377
2.826
2.8172
2.8113
2.8055
2.7967
2.783
2.7615
2.7273
2.6784
2.6266
2.5679
2.4956
2.4154
2.3324
2.2571
2.1935
2.1417
2.1017
2.0743
2.0587
2.0489
2.042
2.0381
2.0352
2.0332
2.0352
2.042
2.0528
2.0674
2.0841
2.1007
2.1134
2.1163
2.1095
2.0978
2.0802
2.0547
2.0264
1.9971
1.9697
1.9462
1.9277
1.913
1.9003
1.8886
1.8749
1.8622
1.8504
1.8368
1.825
1.8182
1.8143
1.8133
1.8162
1.824
1.8338
1.8456
1.8573
1.869
1.8798
1.8915
1.9003
1.9062
1.9081
1.9052
1.8974
1.8866
1.8768
1.8739
1.8847
1.913
1.9541
2.0108
2.0948
2.2014
2.3216
2.4457
2.5689
2.6862
2.7928
2.8837
2.9599
3.0196
3.0567
3.0782
3.0938
3.1036
3.1085
3.1095
3.1065
3.0997
3.0899
3.0753
3.0557
3.0323
3.0059
2.9795
2.955
2.9316
2.9081
2.8856
2.8622
2.8358
2.8035
2.7664
2.7263
2.6852
2.6442
2.6061
2.5709
2.5337
2.5005
2.4721
2.4506
2.437
2.4291
2.4272
2.4282
2.4282
2.4262
2.4194
2.4086
2.393
2.3715
2.3441
2.3128
2.2786
2.2414
2.2014
2.1603
2.1193
2.0792
2.0401
2.0078
1.9804
1.9531
1.9306
1.914
1.9032
1.9003
1.9042
1.914
1.5679
1.5738
1.5787
1.5826
1.5865
1.5953
1.6149
1.651
1.6979
1.7625
1.8583
1.9795
2.1202
2.2717
2.4272
2.5787
2.7195
2.8436
2.9492
3.0342
3.0929
3.13
3.1593
3.1808
3.1955
3.2053
3.2102
3.2111
3.2082
3.2014
3.1887
3.1711
3.1476
3.1183
3.085
3.0489
3.0068
2.9599
2.9081
2.8504
2.7879
2.7204
2.6491
2.5758
2.5024
2.4389
2.3793
2.3167
2.2561
2.2004
2.1515
2.1095
2.0743
2.045
2.0215
2.0029
1.9883
1.9765
1.9677
1.9609
1.9531
1.9453
1.9355
1.9238
1.9091
1.8915
1.8729
1.8534
1.8328
1.8123
1.7957
1.781
1.7654
1.7488
1.7331
1.7165
1.6979
1.6774
1.6569
1.6373
1.6207
1.6061
1.5924
1.5826
1.5748
1.565
1.5543
1.5425
1.5318
1.522
1.5132
1.5044
1.4956
1.4897
1.4888
1.4946
1.5093
1.5376
1.5777
1.6285
1.6862
1.7429
1.7908
1.828
1.8553
1.8749
1.8886
1.8993
1.911
1.9296
1.9609
2.0068
2.0694
2.1486
2.2424
2.3431
2.4428
2.5337
2.6109
2.6735
2.7155
2.7449
2.7713
2.7977
2.825
2.8524
2.8798
2.9042
2.9247
2.9404
2.9501
2.8974
2.8074
2.7527
2.7165
2.6882
2.6598
2.6276
2.5904
2.5494
2.5044
2.4575
2.4106
2.3636
2.3177
2.2766
2.2375
2.1975
2.1584
2.1202
2.0841
2.0528
2.0283
2.0147
2.0117
2.0205
2.0401
2.0626
2.086
2.1105
2.1261
2.1261
2.1114
2.086
2.0547
2.0244
1.998
1.9736
1.9482
1.9198
1.8915
1.8631
1.8289
1.7967
1.7693
1.7498
1.7351
1.7263
1.7204
1.7146
1.7077
1.7019
1.697
1.694
1.6931
1.694
1.6989
1.7058
1.7126
1.7165
1.7185
1.7195
1.7204
1.7185
1.7136
1.7077
1.7019
1.6921
1.6784
1.6637
1.6461
1.6276
1.6051
1.5787
1.5513
1.5239
1.5005
1.4868
1.4858
1.5015
1.5376
1.5992
1.6852
1.7918
1.912
2.0391
2.1662
2.2845
2.391
2.4829
2.5494
2.5963
2.6373
2.6696
2.6921
2.7058
2.7116
2.7116
2.7058
2.697
2.6862
2.6735
2.6559
2.6354
2.6139
2.5904
2.564
2.5337
2.4976
2.4545
2.4066
2.3529
2.2933
2.2278
2.1574
2.0929
2.0303
1.9609
1.8886
1.8192
1.7576
1.7038
1.6608
1.6266
1.6002
1.5816
1.5699
1.563
1.5582
1.5513
1.5435
1.5357
1.5249
1.5142
1.5044
1.4946
1.4819
1.4673
1.4516
1.435
1.4213
1.4096
1.3949
1.3803
1.3666
1.3529
1.3392
1.3226
1.306
1.2923
1.2854
1.2923
1.3118
1.3421
1.3822
1.4262
1.4633
1.4839
1.4848
1.4673
1.4379
1.4066
1.3832
1.3705
1.3656
1.3656
1.3666
1.3646
1.3558
1.3372
1.3109
1.2796
1.2463
1.2131
1.1789
1.1466
1.1153
1.0909
1.0704
1.0459
1.0235
1.0078
1.0039
1.0156
1.0479
1.1036
1.1838
1.2854
1.4057
1.5406
1.6637
1.7801
1.9062
2.0264
2.1329
2.2209
2.2913
2.3431
2.3773
2.3969
2.4047
2.4027
2.3949
2.3812
2.3636
2.3441
2.3226
2.2991
2.2737
2.2444
2.2121
2.176
2.1339
2.086
2.0401
1.9922
1.9355
1.8719
1.8065
1.741
1.6794
1.6217
1.5689
1.5239
1.4878
1.4633
1.4526
1.4545
1.4712
1.5034
1.5494
1.6022
1.652
1.6891
1.7067
1.6999
1.6716
1.6295
1.5816
1.5415
1.5122
1.4878
1.4721
1.4624
1.4526
1.4389
1.4174
1.3842
1.3402
1.2923
1.2444
1.2014
1.1701
1.1505
1.1359
1.129
1.129
1.1408
1.1593
1.173
1.1848
1.1935
1.1975
1.1994
1.2033
1.2072
1.2082
1.2072
1.2072
1.2072
1.2082
1.2102
1.2121
1.2151
1.219
1.2248
1.2336
1.2473
1.2649
1.2884
1.3187
1.3548
1.3939
1.433
1.4751
1.523
1.5836
1.6657
1.7742
1.8886
2.0176
2.1887
2.3832
2.5836
2.7752
2.9423
3.0733
3.1662
3.2219
3.2473
3.2532
3.2502
3.2395
3.2268
3.2209
3.219
3.217
3.2121
3.2023
3.1838
3.1554
3.1134
3.0567
2.9873
2.914
2.8368
2.7488
2.6549
2.5572
2.4604
2.3627
2.2639
2.1642
2.0626
1.9609
1.8641
1.7742
1.7009
1.6403
1.5836
1.5308
1.4819
1.436
1.3939
1.3558
1.3236
1.3011
1.2884
1.2825
1.2805
1.2757
1.2571
1.2229
1.1769
1.1212
1.0655
1.0196
0.98827
0.97458
0.97361
0.9824
0.99707
1.0156
1.0332
1.0499
1.0645
1.0753
1.0831
1.089
1.0919
1.0909
1.0899
1.0899
1.0929
1.0987
1.1095
1.1212
1.132
1.1427
1.1525
1.1613
1.1672
1.1701
1.1701
1.1662
1.1623
1.1603
1.1613
1.1652
1.174
1.1916
1.2229
1.2669
1.3187
1.3734
1.4233
1.4663
1.5073
1.5552
1.6061
1.6716
1.7732
1.9101
2.0762
2.262
2.4506
2.6276
2.782
2.9101
3.0088
3.0792
3.1222
3.1388
3.1359
3.1222
3.0968
3.0616
3.0176
2.9677
2.912
2.8504
2.7859
2.7175
2.6461
2.5816
2.5191
2.4516
2.3793
2.3011
2.2121
2.1065
1.9804
1.8348
1.6745
1.5103
1.3539
1.218
1.1212
1.0616
1.0274
1.0196
1.0371
1.0694
1.1065
1.1408
1.1672
1.1848
1.1935
1.1975
1.2023
1.2082
1.2151
1.2239
1.2385
1.259
1.2854
1.3177
1.3539
1.392
1.4272
1.4575
1.48
1.4956
1.5064
1.5093
1.5083
1.5073
1.5103
1.522
1.5435
1.5797
1.6276
1.6813
1.7302
1.7664
1.7918
1.8074
1.8074
1.7947
1.7732
1.7468
1.7165
1.6813
1.6432
1.6022
1.5552
1.5122
1.4712
1.4233
1.3724
1.3236
1.2796
1.2405
1.2072
1.1799
1.1574
1.1427
1.1369
1.1427
1.1613
1.1965
1.2571
1.3451
1.4614
1.6051
1.7693
1.9433
2.1193
2.2884
2.4438
2.5816
2.6852
2.7634
2.8358
2.8964
2.9433
2.9844
3.0274
3.0753
3.1329
3.1984
3.2659
3.3255
3.2639
3.1232
3.0293
2.9433
2.8475
2.7351
2.61
2.479
2.349
2.2268
2.1173
2.0215
1.9394
1.8759
1.825
1.7752
1.7224
1.6686
1.6139
1.5601
1.5093
1.4624
1.4252
1.3998
1.3861
1.3822
1.3842
1.3891
1.3959
1.4027
1.4115
1.4233
1.4399
1.4653
1.4966
1.5308
1.5621
1.5826
1.5914
1.5855
1.5611
1.52
1.4663
1.4047
1.3431
1.2864
1.2356
1.1926
1.1593
1.1339
1.1144
1.1026
1.0948
1.0831
1.0694
1.0557
1.044
1.0352
1.0303
1.0303
1.0323
1.0352
1.0401
1.0469
1.0547
1.0606
1.0655
1.0704
1.0733
1.0762
1.0792
1.0831
1.087
1.0909
1.0948
1.0987
1.1046
1.1134
1.1271
1.1515
1.1935
1.2561
1.3441
1.4545
1.5797
1.7116
1.8436
1.9687
2.0684
2.1496
2.2297
2.3011
2.3587
2.4027
2.434
2.4575
2.4721
2.479
2.4809
2.477
2.4673
2.4536
2.4379
2.4223
2.4057
2.3891
2.3685
2.3421
2.3099
2.2717
2.2258
2.173
2.1134
2.0577
2.0029
1.9413
1.8788
1.8201
1.7674
1.7224
1.6872
1.6637
1.652
1.651
1.6618
1.6843
1.7107
1.738
1.7683
1.7957
1.8123
1.8123
1.7947
1.7595
1.7097
1.651
1.5894
1.5308
1.4839
1.4457
1.4115
1.3832
1.3597
1.3372
1.3138
1.2903
1.2688
1.2493
1.2307
1.2141
1.1975
1.1848
1.175
1.1632
1.1535
1.1476
1.1457
1.1466
1.1486
1.1505
1.1515
1.1544
1.1603
1.1701
1.1867
1.2131
1.2512
1.2991
1.3519
1.3998
1.437
1.4575
1.4565
1.435
1.3978
1.3568
1.3138
1.2639
1.218
1.1877
1.1808
1.2053
1.262
1.3519
1.4682
1.6002
1.74
1.8778
1.9922
2.085
2.175
2.2561
2.3275
2.391
2.4516
2.5152
2.5865
2.6637
2.7449
2.8231
2.8788
2.914
2.9355
2.9335
2.9081
2.8583
2.7869
2.7019
2.608
2.5112
2.4154
2.3245
2.2414
2.173
2.1114
2.0489
1.9863
1.9238
1.8612
1.7977
1.7351
1.6755
1.6227
1.5806
1.5533
1.5415
1.5464
1.5699
1.608
1.654
1.6989
1.7351
1.7566
1.7634
1.7556
1.737
1.7097
1.6764
1.6442
1.6109
1.5709
1.5249
1.4731
1.4203
1.3675
1.3167
1.2688
1.2258
1.1877
1.1554
1.132
1.1134
1.0899
1.0626
1.0323
0.99707
0.97165
0.9521
0.9218
0.88759
0.8563
0.83187
0.81427
0.80645
0.8045
0.80059
0.79472
0.78788
0.78104
0.77517
0.77517
0.7869
0.81427
0.85826
0.91887
0.98338
1.0518
1.1271
1.2014
1.2678
1.3275
1.3861
1.4516
1.5318
1.6295
1.7468
1.8807
2.0254
2.1535
2.2708
2.3998
2.5279
2.6471
2.7507
2.8348
2.8983
2.9413
2.9648
2.9726
2.9687
2.9541
2.9316
2.9062
2.8719
2.8231
2.7576
2.6745
2.5738
2.4585
2.3353
2.2092
2.0831
1.9629
1.8622
1.7781
1.697
1.6227
1.5591
1.5073
1.4653
1.433
1.4066
1.3842
1.3607
1.3343
1.3118
1.2893
1.262
1.2356
1.2151
1.2043
1.2033
1.2111
1.2229
1.2356
1.2454
1.2512
1.2522
1.2522
1.2502
1.2434
1.2346
1.2287
1.2287
1.2385
1.261
1.2972
1.348
1.4096
1.4751
1.5337
1.5855
1.6334
1.6716
1.6989
1.7165
1.7263
1.7312
1.7331
1.7331
1.7331
1.7341
1.738
1.7449
1.7556
1.7713
1.7918
1.8152
1.8377
1.8583
1.8768
1.8915
1.9042
1.914
1.9228
1.9296
1.9345
1.9413
1.9462
1.9472
1.9413
1.9316
1.9228
1.9198
1.9257
1.9472
1.9892
2.0391
2.0978
2.1779
2.2698
2.3646
2.4565
2.5406
2.6119
2.6686
2.7107
2.738
2.7507
2.7507
2.74
2.7214
2.697
2.6706
2.6442
2.6149
2.5826
2.5484
2.5112
2.4712
2.4272
2.3783
2.3314
2.2854
2.2366
2.1848
2.13
2.0743
2.0176
1.9619
1.9091
1.8583
1.8113
1.7703
1.7361
1.7097
1.6911
1.6764
1.6657
1.6588
1.6569
1.6598
1.6667
1.6774
1.6931
1.7136
1.737
1.7576
1.7742
1.7869
1.7898
1.784
1.7674
1.738
1.6999
1.6559
1.609
1.5621
1.5152
1.4712
1.4379
1.4096
1.3793
1.3529
1.3304
1.3138
1.3011
1.2903
1.2776
1.261
1.2366
1.2053
1.176
1.1466
1.1105
1.0743
1.042
1.0186
1.0049
1.002
1.0068
1.0176
1.0313
1.0469
1.0616
1.0753
1.086
1.0919
1.0938
1.0909
1.085
1.0802
1.0772
1.0792
1.0919
1.1212
1.172
1.2336
1.3099
1.4135
1.5347
1.6637
1.7947
1.9218
2.0391
2.1417
2.2278
2.3001
2.3597
2.4076
2.4389
2.4594
2.479
2.4946
2.5054
2.5112
2.5122
2.5093
2.5015
2.4888
2.4712
2.4467
2.437
2.433
2.4096
2.3744
2.3304
2.2796
2.2229
2.1613
2.0978
2.0352
1.9756
1.9208
1.8739
1.8377
1.8104
1.784
1.7605
1.74
1.7224
1.7097
1.6999
1.6911
1.6833
1.6745
1.6637
1.6549
1.6461
1.6344
1.6217
1.608
1.5943
1.5816
1.5689
1.5562
1.5445
1.5337
1.523
1.5122
1.5044
1.4985
1.4917
1.4848
1.478
1.4692
1.4594
1.4497
1.4399
1.4301
1.4213
1.4125
1.4076
1.4047
1.3998
1.393
1.3842
1.3744
1.3656
1.3597
1.3548
1.3509
1.349
1.348
1.347
1.348
1.35
1.35
1.348
1.346
1.3441
1.3421
1.3392
1.3363
1.3324
1.3304
1.3343
1.346
1.3685
1.4057
1.4624
1.5396
1.6364
1.7478
1.8661
1.9844
2.0978
2.2023
2.2942
2.3705
2.4242
2.4633
2.4976
2.5249
2.5455
2.5591
2.567
2.5699
2.5689
2.565
2.5582
2.5474
2.5337
2.5161
2.4956
2.4721
2.4448
2.4125
2.3754
2.3324
2.2835
2.2297
2.174
2.1193
2.0723
2.0313
1.9892
1.9511
1.9189
1.8925
1.8719
1.8543
1.8397
1.8299
1.824
1.8192
1.8152
1.8123
1.8104
1.8074
1.8045
1.8006
1.7967
1.7918
1.784
1.7732
1.7586
1.7429
1.7273
1.7146
1.7058
1.6979
1.6901
1.6833
1.6755
1.6686
1.6618
1.6549
1.6481
1.6393
1.6276
1.6168
1.609
1.6041
1.6002
1.5963
1.5934
1.5894
1.5855
1.5826
1.5787
1.5758
1.5718
1.5679
1.566
1.565
1.5611
1.5543
1.5455
1.5367
1.5288
1.522
1.5171
1.5142
1.5112
1.5083
1.5064
1.5064
1.5103
1.5191
1.5386
1.5718
1.6227
1.695
1.7869
1.8954
2.0147
2.1369
2.2542
2.349
2.4262
2.5005
2.566
2.6197
2.6618
2.6921
2.7136
2.7292
2.739
2.7439
2.7458
2.7458
2.741
2.7312
2.7195
2.7048
2.6862
2.6637
2.6364
2.6031
2.565
2.523
2.4751
2.4233
2.3744
2.3265
2.2727
2.217
2.1632
2.1114
2.0635
2.0196
1.9795
1.9453
1.9169
1.8944
1.8759
1.8622
1.8524
1.8426
1.8319
1.8211
1.8104
1.7986
1.7859
1.7713
1.7566
1.74
1.7234
1.7107
1.6911
1.6755
1.6598
1.6354
1.6207
1.609
1.5963
1.5826
1.5699
1.5582
1.5455
1.5327
1.5249
1.5161
1.5015
1.4927
1.4164
1.3079
1.2483
1.2131
1.1906
1.175
1.1652
1.1623
1.1603
1.1584
1.1544
1.1515
1.1486
1.1447
1.1408
1.1398
1.1398
1.1378
1.1369
1.1359
1.13
1.1222
1.1144
1.1105
1.1173
1.1427
1.1916
1.2669
1.3715
1.567
1.6989
1.8426
2.0772
2.2278
2.3627
2.4761
2.5689
2.6422
2.696
2.7322
2.7527
2.7615
2.7595
2.7517
2.74
2.7243
2.7067
2.6862
2.6628
2.6364
2.607
2.5728
2.5308
2.48
2.4272
2.3715
2.303
2.2278
2.1486
2.0655
1.9834
1.9052
1.8328
1.7683
1.7136
1.6686
1.6364
1.6119
1.5894
1.5709
1.5552
1.5425
1.5318
1.521
1.5112
1.5015
1.4907
1.4809
1.4712
1.4633
1.4555
1.4438
1.4291
1.4125
1.3969
1.3842
1.3744
1.3666
1.3578
1.349
1.3402
1.3333
1.3284
1.3236
1.3187
1.3138
1.3089
1.304
1.2991
1.2942
1.2893
1.2845
1.2796
1.2747
1.2727
1.2688
1.262
1.2561
1.2502
1.2454
1.2405
1.2366
1.2346
1.2336
1.2346
1.2375
1.2424
1.2483
1.2542
1.26
1.2649
1.2698
1.2727
1.2717
1.2708
1.2766
1.2942
1.3304
1.392
1.4653
1.5543
1.6784
1.827
1.9892
2.1544
2.3148
2.4633
2.5934
2.7028
2.7928
2.8622
2.9052
2.9316
2.955
2.9707
2.9775
2.9756
2.9658
2.9511
2.9355
2.9189
2.8993
2.8768
2.8524
2.824
2.7928
2.7556
2.7107
2.6588
2.5982
2.5298
2.4545
2.3744
2.2923
2.2121
2.1359
2.0714
2.0156
1.9609
1.912
1.8719
1.8368
1.8055
1.7761
1.7498
1.7253
1.7019
1.6804
1.6608
1.6461
1.6344
1.6207
1.6061
1.5914
1.5767
1.5621
1.5484
1.5357
1.521
1.5034
1.4848
1.4692
1.4555
1.4389
1.4203
1.4018
1.3851
1.3695
1.3548
1.3392
1.3245
1.3099
1.2962
1.2845
1.2766
1.2688
1.2571
1.2454
1.2346
1.2229
1.2111
1.1984
1.1857
1.175
1.1652
1.1593
1.1593
1.1603
1.1584
1.1535
1.1466
1.1378
1.1281
1.1193
1.1124
1.1085
1.1065
1.1065
1.1124
1.1281
1.1584
1.2092
1.2854
1.3881
1.5152
1.6608
1.8182
1.9785
2.1339
2.2776
2.4047
2.5024
2.5748
2.6383
2.6872
2.7214
2.7419
2.7498
2.7488
2.7439
2.737
2.7312
2.7253
2.7175
2.7048
2.6882
2.6696
2.6461
2.6158
2.5767
2.5279
2.4692
2.4008
2.3245
2.2424
2.1584
2.0821
2.0108
1.9355
1.8602
1.7879
1.7214
1.6628
1.6119
1.5699
1.5357
1.5093
1.4888
1.4761
1.4702
1.4673
1.4653
1.4633
1.4594
1.4536
1.4457
1.434
1.4174
1.3969
1.3724
1.3441
1.3206
1.3011
1.2786
1.2551
1.2346
1.216
1.2004
1.1887
1.1779
1.1652
1.1535
1.1427
1.1359
1.131
1.1232
1.1144
1.1036
1.0919
1.0802
1.0694
1.0587
1.0479
1.0371
1.0264
1.0176
1.0147
1.0127
1.0098
1.0049
1
0.99804
0.99707
0.99609
0.99609
0.99707
1
1.0029
1.0068
1.0098
1.0078
1.0029
0.99902
1.001
1.0166
1.0557
1.1271
1.2297
1.3627
1.522
1.6979
1.8553
2.002
2.1584
2.306
2.436
2.5464
2.6354
2.7028
2.7498
2.781
2.8006
2.8104
2.8084
2.8006
2.7918
2.781
2.7683
2.7527
2.7322
2.7048
2.6696
2.6276
2.5777
2.52
2.4536
2.3881
2.3206
2.2434
2.1613
2.0782
1.9961
1.9169
1.8426
1.7771
1.7204
1.6755
1.6413
1.6168
1.6002
1.5846
1.5728
1.563
1.5543
1.5455
1.5367
1.5259
1.5122
1.4985
1.4848
1.4721
1.4633
1.4545
1.4409
1.4233
1.4037
1.3842
1.3646
1.346
1.3284
1.3138
1.2981
1.2835
1.2737
1.2649
1.2522
1.2405
1.2326
1.2229
1.2131
1.2053
1.1994
1.1935
1.1857
1.176
1.1681
1.1642
1.1623
1.1593
1.1564
1.1564
1.1584
1.1623
1.1672
1.172
1.1769
1.1818
1.1877
1.1926
1.1955
1.1965
1.1975
1.1955
1.1916
1.1867
1.1818
1.1789
1.1857
1.2102
1.259
1.3382
1.4291
1.5367
1.6813
1.8504
2.0283
2.2014
2.3617
2.5034
2.6237
2.7204
2.7967
2.8543
2.8895
2.9101
2.9267
2.9374
2.9433
2.9433
2.9394
2.9335
2.9238
2.9081
2.8847
2.8534
2.8152
2.7742
2.7273
2.6716
2.61
2.5406
2.4653
2.3861
2.3011
2.2111
2.1193
2.0283
1.9423
1.87
1.8074
1.7429
1.6833
1.6315
1.5855
1.5474
1.5161
1.4927
1.4761
1.4624
1.4497
1.4379
1.4301
1.4223
1.4086
1.392
1.3724
1.3519
1.3314
1.3089
1.2845
1.26
1.2346
1.2102
1.1926
1.1769
1.1593
1.1457
1.1339
1.1222
1.1114
1.1036
1.0978
1.0909
1.0831
1.0772
1.0743
1.0753
1.0782
1.0802
1.0811
1.0811
1.0811
1.0811
1.0811
1.0811
1.0811
1.0821
1.086
1.0929
1.1007
1.1046
1.1065
1.1046
1.0978
1.0909
1.0831
1.0753
1.0674
1.0577
1.0489
1.045
1.043
1.042
1.0499
1.0723
1.1134
1.1799
1.2776
1.4057
1.5601
1.7312
1.912
2.0929
2.2434
2.3715
2.4985
2.6119
2.7067
2.781
2.8348
2.869
2.8905
2.9003
2.8983
2.8895
2.8729
2.8504
2.8289
2.8074
2.783
2.7546
2.7224
2.6862
2.6442
2.5924
2.5298
2.4585
2.3763
2.2962
2.217
2.132
2.0469
1.9638
1.8866
1.8182
1.7586
1.7087
1.6706
1.6413
1.6217
1.6109
1.6891
1.9326
2.1672
2.3754
2.5464
2.6764
2.7644
2.8123
2.8231
2.8074
2.7713
2.7165
2.6461
2.565
2.479
2.3949
2.3148
2.2405
2.173
2.1085
2.0518
2.001
1.9462
1.8886
1.8289
1.7703
1.7126
1.6559
1.6012
1.5484
1.4976
1.4506
1.4106
1.3803
1.3578
1.3372
1.3226
1.3138
1.3109
1.3118
1.3148
1.3196
1.3294
1.349
1.3773
1.4076
1.4418
1.4829
1.5239
1.5582
1.5806
1.5875
1.5797
1.5582
1.5249
1.48
1.4291
1.3734
1.3216
1.2717
1.2111
1.1427
1.0684
0.98631
0.89932
0.81036
0.72336
0.64027
0.56305
0.4956
0.44966
0.42033
0.39589
0.38123
0.37928
0.5914
0.91007
1.0811
1.1789
1.2395
1.2796
1.3079
1.3275
1.3421
1.3548
1.3646
1.3715
1.3773
1.3822
1.3861
1.3891
1.3891
1.3881
1.3851
1.3822
1.3812
1.3822
1.3793
1.3734
1.3656
1.3597
1.3568
1.3597
1.3734
1.4018
1.4487
1.5142
1.5992
1.6852
1.7742
1.8788
1.9902
2.1017
2.2063
2.3001
2.3803
2.4448
2.4956
2.5327
2.5591
2.5738
2.5826
2.5914
2.6002
2.609
2.6149
2.6168
2.6149
2.608
2.5953
2.5728
2.5425
2.5044
2.4653
2.4242
2.3754
2.3236
2.2708
2.219
2.1711
2.1281
2.0899
2.0557
2.0205
1.9834
1.9501
1.9198
1.8876
1.8553
1.828
1.8104
1.8006
1.7957
1.7918
1.7879
1.7791
1.7644
1.7449
1.7263
1.7077
1.6862
1.6637
1.6413
1.6188
1.5973
1.5777
1.5562
1.5347
1.5132
1.4917
1.477
1.4643
1.4497
1.436
1.4252
1.4174
1.4145
1.4164
1.4233
1.4321
1.4418
1.4516
1.4604
1.4673
1.4702
1.4721
1.4731
1.4731
1.4741
1.477
1.4819
1.4888
1.4966
1.5064
1.5161
1.5279
1.5406
1.5543
1.5689
1.5875
1.6149
1.652
1.6999
1.7615
1.8358
1.9218
2.0196
2.1134
2.2082
2.3236
2.4516
2.5855
2.7185
2.8446
2.958
3.0538
3.1261
3.173
3.1955
3.1965
3.1799
3.1515
3.1163
3.0802
3.045
3.0108
2.9765
2.9394
2.9003
2.8553
2.8035
2.7429
2.6804
2.6158
2.5367
2.4487
2.3558
2.262
2.1711
2.0841
2.002
1.9247
1.8534
1.7879
1.7273
1.6774
1.6354
1.5924
1.5523
1.5191
1.4956
1.4839
1.4829
1.4936
1.5142
1.5406
1.5699
1.5963
1.6197
1.6403
1.6559
1.6647
1.6657
1.6608
1.651
1.6364
1.6197
1.6041
1.5924
1.5826
1.5767
1.5738
1.5718
1.5718
1.5738
1.5777
1.5806
1.5826
1.5846
1.5865
1.5894
1.5934
1.5982
1.607
1.6178
1.6315
1.6471
1.6647
1.6833
1.7038
1.7263
1.7517
1.784
1.826
1.8768
1.9247
1.9717
2.0205
2.0635
2.0938
2.1056
2.1007
2.0821
2.0557
2.0293
2.0078
1.9941
1.9863
1.9824
1.9804
1.9785
1.9746
1.9677
1.958
1.9453
1.9316
1.9198
1.914
1.9179
1.9345
1.9619
2.002
2.0635
2.1408
2.2268
2.3138
2.3939
2.4633
2.52
2.5621
2.5914
2.5582
2.4888
2.4565
2.4487
2.4526
2.4624
2.4741
2.4848
2.4917
2.4917
2.4848
2.4702
2.4467
2.4154
2.3803
2.3421
2.2981
2.2493
2.1975
2.1437
2.0909
2.0381
1.9873
1.9394
1.8974
1.8612
1.8348
1.8162
1.8016
1.7908
1.783
1.7781
1.7752
1.7732
1.7703
1.7654
1.7595
1.7527
1.7439
1.7341
1.7234
1.7126
1.7028
1.694
1.6862
1.6784
1.6696
1.6598
1.6491
1.6364
1.6207
1.607
1.5943
1.5806
1.567
1.5533
1.5406
1.5298
1.5191
1.5083
1.4995
1.4907
1.4839
1.479
1.4761
1.4751
1.4721
1.4692
1.4643
1.4575
1.4487
1.4399
1.4311
1.4233
1.4164
1.4096
1.4047
1.4027
1.3978
1.392
1.3871
1.3803
1.3734
1.3685
1.3627
1.3587
1.3568
1.3548
1.3539
1.3539
1.3539
1.3539
1.3548
1.3597
1.3754
1.4057
1.4536
1.52
1.6041
1.7028
1.8113
1.9091
1.999
2.0968
2.1916
2.2757
2.347
2.4066
2.4526
2.4868
2.5112
2.5279
2.5396
2.5435
2.5435
2.5435
2.5415
2.5376
2.5318
2.522
2.5093
2.4946
2.478
2.4565
2.4301
2.3978
2.3627
2.3245
2.2805
2.2317
2.1799
2.1261
2.0723
2.0215
1.9765
1.9374
1.9042
1.8759
1.8543
1.8377
1.825
1.8152
1.8055
1.7947
1.782
1.7674
1.7498
1.7312
1.7126
1.696
1.6823
1.6716
1.6628
1.654
1.6452
1.6344
1.6237
1.6119
1.5992
1.5855
1.5709
1.5582
1.5464
1.5367
1.5298
1.523
1.5161
1.5083
1.5015
1.4936
1.4858
1.4761
1.4653
1.4545
1.4438
1.433
1.4252
1.4184
1.4096
1.3988
1.3881
1.3773
1.3675
1.3587
1.3519
1.348
1.346
1.3451
1.346
1.349
1.3529
1.3568
1.3587
1.3607
1.3617
1.3617
1.3617
1.3617
1.3627
1.3675
1.3812
1.4018
1.4321
1.4809
1.5503
1.6354
1.7312
1.8348
1.9394
2.0411
2.1359
2.2209
2.2942
2.347
2.3851
2.4213
2.4516
2.477
2.4976
2.5122
2.522
2.5259
2.5239
2.5171
2.5073
2.4946
2.479
2.4604
2.4389
2.4135
2.3861
2.3548
2.3177
2.2747
2.2268
2.175
2.1193
2.0616
2.0108
1.9658
1.9198
1.8739
1.8309
1.7928
1.7595
1.7322
1.7116
1.696
1.6823
1.6696
1.6579
1.6491
1.6403
1.6305
1.6197
1.609
1.5523
1.4692
1.4174
1.3793
1.348
1.3206
1.2942
1.2737
1.2561
1.2366
1.217
1.1984
1.1799
1.1613
1.1437
1.1251
1.1065
1.089
1.0704
1.0538
1.043
1.0323
1.0196
1.0039
0.98534
0.96676
0.94917
0.9306
0.91398
0.89834
0.8827
0.86901
0.86022
0.85435
0.84848
0.84555
0.84457
0.84164
0.83871
0.83773
0.83578
0.8348
0.83578
0.83578
0.83871
0.8436
0.84457
0.8436
0.8436
0.8436
0.84751
0.8651
0.90225
0.96481
1.0577
1.1818
1.3333
1.48
1.6246
1.7869
1.9482
2.1007
2.2375
2.3568
2.4545
2.5308
2.5894
2.6354
2.6706
2.6921
2.7028
2.7097
2.7116
2.7087
2.7028
2.6921
2.6745
2.651
2.6207
2.5826
2.5367
2.4819
2.4272
2.3685
2.2981
2.2209
2.1398
2.0577
1.9775
1.9013
1.8328
1.7722
1.7195
1.6725
1.6373
1.6129
1.5924
1.5767
1.5621
1.5494
1.5367
1.523
1.5064
1.4897
1.4721
1.4506
1.4262
1.4066
1.391
1.3734
1.3578
1.3431
1.3304
1.3177
1.305
1.2933
1.2796
1.262
1.2424
1.2278
1.216
1.2014
1.1867
1.173
1.1613
1.1496
1.1378
1.129
1.1193
1.1085
1.0987
1.089
1.0811
1.0762
1.0704
1.0616
1.0499
1.0371
1.0254
1.0147
1.0049
0.99707
0.99316
0.9912
0.99316
0.99707
0.99902
1
0.99902
0.99511
0.98925
0.97947
0.96872
0.9609
0.95797
0.96579
0.99218
1.0342
1.0978
1.1984
1.3333
1.4966
1.6804
1.8719
2.0626
2.2434
2.4066
2.5474
2.6637
2.7458
2.8055
2.8592
2.9042
2.9394
2.9658
2.9853
2.998
3.0059
3.0088
3.0049
2.9961
2.9804
2.958
2.9306
2.9022
2.868
2.825
2.7732
2.7126
2.6422
2.563
2.477
2.3861
2.2923
2.2072
2.1281
2.0459
1.9658
1.8886
1.8211
1.7644
1.7165
1.6774
1.6461
1.6197
1.5992
1.5816
1.567
1.5533
1.5367
1.52
1.5005
1.477
1.4506
1.4233
1.3978
1.3724
1.348
1.3236
1.304
1.2845
1.26
1.2326
1.2033
1.173
1.1427
1.1124
1.0821
1.0547
1.0342
1.0176
1.0029
0.99609
0.99218
0.98729
0.98534
0.98045
0.97361
0.96774
0.95992
0.95112
0.94428
0.93646
0.92571
0.92082
0.91789
0.91398
0.91202
0.91105
0.91007
0.91007
0.90811
0.9042
0.90127
0.89932
0.89834
0.94135
1.0059
1.0352
1.0479
1.0547
1.0596
1.0704
1.0997
1.1544
1.2385
1.3539
1.4946
1.6549
1.8035
1.9453
2.1007
2.2542
2.3949
2.5191
2.6246
2.7097
2.7771
2.8309
2.87
2.8954
2.9062
2.9091
2.9101
2.9081
2.9013
2.8915
2.8749
2.8514
2.8201
2.781
2.7361
2.6862
2.6285
2.5709
2.5103
2.4409
2.3656
2.2903
2.218
2.1476
2.0831
2.0244
1.9707
1.9228
1.8837
1.8543
1.8309
1.8084
1.7889
1.7732
1.7586
1.741
1.7234
1.7058
1.6872
1.6657
1.6413
1.6158
1.5953
1.5767
1.5572
1.5376
1.5181
1.4985
1.478
1.4565
1.434
1.4125
1.392
1.3744
1.3627
1.3539
1.3441
1.3324
1.3177
1.3021
1.2864
1.2698
1.2561
1.2463
1.2385
1.2326
1.2239
1.216
1.2121
1.2082
1.2033
1.1975
1.1935
1.1916
1.1906
1.1887
1.1867
1.1857
1.1838
1.1828
1.1818
1.1769
1.172
1.1701
1.1691
1.1681
1.1681
1.1681
1.1701
1.1828
1.2121
1.2649
1.3304
1.4174
1.5435
1.6989
1.8759
2.0635
2.2502
2.4282
2.5894
2.7312
2.8524
2.9521
3.0196
3.0684
3.1193
3.1711
3.2239
3.2757
3.3265
3.3754
3.4194
3.4565
3.4868
3.5064
3.5132
3.5034
3.4839
3.4614
3.436
3.4096
3.3812
3.35
3.3167
3.2815
3.2473
3.2131
3.1779
3.1408
3.1026
3.0626
3.0196
2.9707
2.9159
2.8553
2.7898
2.7214
2.652
2.5836
2.5161
2.4477
2.3861
2.3265
2.262
2.1965
2.129
2.0587
1.9873
1.9169
1.8485
1.782
1.7195
1.6608
1.6119
1.5689
1.521
1.4692
1.4174
1.3675
1.3216
1.2796
1.2385
1.2004
1.1613
1.1212
1.0811
1.0508
1.0264
1.002
0.97947
0.96188
0.9521
0.94917
0.94917
0.94819
0.94526
0.94037
0.93548
0.93451
0.93548
0.93255
0.92864
0.92571
0.92571
0.92766
0.93157
0.93939
0.95112
0.96579
0.98143
0.99902
1.0186
1.0401
1.0616
1.087
1.1202
1.1672
1.2336
1.3255
1.4448
1.5865
1.7478
1.9228
2.0782
2.219
2.3705
2.5181
2.652
2.7683
2.8651
2.9443
3.0059
3.0518
3.088
3.1183
3.1388
3.1593
3.1945
3.2414
3.2942
3.346
3.3851
3.4018
3.3891
3.3431
3.261
3.1476
3.0127
2.8827
2.7566
2.6207
2.4878
2.3666
2.261
2.1271
1.9902
1.9052
1.8475
1.8045
1.7683
1.741
1.7175
1.6931
1.6676
1.6422
1.6207
1.6031
1.5885
1.5738
1.5601
1.5484
1.5386
1.5298
1.5249
1.521
1.5152
1.5054
1.4936
1.4829
1.4731
1.4643
1.4555
1.4467
1.437
1.4272
1.4203
1.4135
1.4027
1.392
1.3842
1.3803
1.3842
1.4037
1.4428
1.5024
1.5865
1.695
1.8231
1.9443
2.0616
2.1935
2.3245
2.4389
2.5288
2.5885
2.6178
2.6217
2.607
2.5806
2.5503
2.522
2.5005
2.4878
2.4829
2.4839
2.4858
2.4829
2.4712
2.4477
2.4164
2.3763
2.3314
2.2805
2.2307
2.1818
2.13
2.0762
2.0215
1.9658
1.911
1.8592
1.8113
1.7674
1.7312
1.7009
1.6784
1.6628
1.653
1.651
1.6588
1.6745
1.695
1.7175
1.7361
1.7439
1.737
1.7146
1.6774
1.6383
1.5963
1.5464
1.4966
1.4526
1.4145
1.3812
1.3548
1.3333
1.3118
1.2903
1.2688
1.2502
1.2326
1.2111
1.1877
1.1652
1.1457
1.1271
1.1085
1.0919
1.0792
1.0714
1.0655
1.0635
1.0674
1.0782
1.0958
1.1212
1.1505
1.1799
1.1994
1.2053
1.1965
1.174
1.1388
1.0968
1.0606
1.0303
1.001
0.97654
0.95992
0.95112
0.94721
0.9433
0.93744
0.92962
0.91789
0.90225
0.88465
0.87292
0.86608
0.85924
0.85533
0.85533
0.85924
0.86608
0.87292
0.88465
0.90518
0.94135
0.99707
1.0626
1.1427
1.2502
1.3754
1.5064
1.6354
1.7595
1.8739
1.9795
2.0772
2.1662
2.2473
2.3167
2.3656
2.3998
2.4272
2.4448
2.4536
2.4555
2.4536
2.4497
2.4467
2.4438
2.4379
2.4291
2.4174
2.4018
2.3812
2.3539
2.3196
2.2776
2.2278
2.172
2.1114
2.0489
1.9883
1.9355
1.8964
1.871
1.8573
1.8524
1.8534
1.8534
1.8436
1.8182
1.7771
1.7234
1.6628
1.6041
1.5523
1.5132
1.4868
1.4663
1.4516
1.4409
1.4311
1.4203
1.4076
1.392
1.3724
1.3509
1.3314
1.3177
1.305
1.2913
1.2776
1.2649
1.2522
1.2405
1.2307
1.2239
1.218
1.2131
1.2092
1.2063
1.2063
1.2092
1.2151
1.2278
1.2493
1.2786
1.3099
1.3382
1.3587
1.3675
1.3617
1.3451
1.3265
1.305
1.2786
1.2512
1.2268
1.2082
1.1935
1.1799
1.1652
1.1496
1.132
1.1124
1.0938
1.1251
1.1808
1.2033
1.2121
1.218
1.2268
1.2434
1.2727
1.3206
1.3939
1.4946
1.6207
1.7458
1.8739
2.0303
2.1994
2.3695
2.5318
2.6784
2.8045
2.9062
2.9824
3.0332
3.0635
3.0762
3.0723
3.0557
3.0332
3.0068
2.9765
2.9453
2.911
2.8739
2.8319
2.784
2.7283
2.6637
2.5982
2.5288
2.4438
2.347
2.2405
2.129
2.0156
1.9052
1.8016
1.7067
1.6227
1.5484
1.4829
1.434
1.3978
1.3607
1.3255
1.2933
1.2649
1.2405
1.2219
1.2053
1.1896
1.176
1.1652
1.1613
1.1623
1.1613
1.1584
1.1544
1.1496
1.1447
1.1427
1.1457
1.1525
1.1642
1.1789
1.1935
1.2092
1.2239
1.2356
1.2483
1.2649
1.2825
1.2981
1.3109
1.3226
1.3324
1.3421
1.3548
1.3695
1.3832
1.3988
1.4145
1.4301
1.4438
1.4536
1.4624
1.4702
1.477
1.4819
1.4848
1.4819
1.477
1.4682
1.4497
1.4233
1.39
1.349
1.2981
1.2385
1.172
1.1026
1.0381
0.98925
0.96676
0.97165
1.0098
1.0899
1.2111
1.3666
1.5415
1.7224
1.8944
2.0489
2.1799
2.2874
2.3705
2.4272
2.4643
2.4946
2.52
2.5406
2.5582
2.5738
2.5894
2.6041
2.6188
2.6344
2.65
2.6608
2.6706
2.6872
2.7067
2.7253
2.7429
2.7546
2.7507
2.7273
2.6833
2.6197
2.5435
2.4594
2.3832
2.3177
2.259
2.2141
2.1857
2.174
2.176
2.1848
2.1926
2.1935
2.1799
2.1476
2.1046
2.0499
1.9726
1.8778
1.7742
1.6725
1.5787
1.4995
1.4418
1.4027
1.3783
1.3627
1.349
1.3392
1.3284
1.3099
1.2845
1.2561
1.2297
1.2053
1.1848
1.1701
1.1623
1.1613
1.1652
1.176
1.1916
1.2141
1.2444
1.2845
1.3353
1.393
1.3079
1.3226
1.3851
1.4917
1.6295
1.7654
1.8964
2.0362
2.1672
2.2786
2.3685
2.4389
2.4907
2.5249
2.5445
2.5533
2.5543
2.5494
2.5425
2.5347
2.5279
2.522
2.5142
2.5054
2.4966
2.4848
2.4692
2.4526
2.436
2.4203
2.4066
2.3959
2.3871
2.3763
2.3617
2.3402
2.3118
2.2708
2.2268
2.1945
2.1769
2.174
2.1887
2.2102
2.2375
2.2776
2.3236
2.3695
2.4135
2.4536
2.4858
2.5083
2.52
2.523
2.52
2.5132
2.5024
2.4878
2.4692
2.4448
2.4135
2.3754
2.3275
2.2708
2.2043
2.1271
2.0391
1.9413
1.8504
1.7615
1.6608
1.5582
1.4594
1.3705
1.2942
1.2317
1.1848
1.1525
1.132
1.1212
1.1173
1.1153
1.1095
1.0987
1.0821
1.0606
1.0391
1.0205
1.0049
0.99218
0.98631
0.98729
0.99609
1.0108
1.0313
1.0547
1.0802
1.1056
1.1329
1.1662
1.2121
1.2757
1.3627
1.4731
1.6041
1.7292
1.8563
2.0039
2.1584
2.3099
2.4594
2.608
2.7537
2.8944
3.0293
3.1554
3.2727
3.3763
3.4497
3.4976
3.5367
3.5582
3.564
3.5582
3.5445
3.5279
3.5112
3.4936
3.4751
3.4516
3.4184
3.3754
3.3196
3.2483
3.1613
3.0616
2.9531
2.8407
2.7292
2.6227
2.5239
2.4321
2.349
2.2815
2.2248
2.1701
2.1202
2.0753
2.0332
1.9941
1.957
1.9208
1.8837
1.8475
1.8143
1.7869
1.7615
1.7351
1.7077
1.6774
1.6442
1.61
1.5767
1.5445
1.5132
1.4819
1.4536
1.4272
1.4057
1.3851
1.3578
1.3275
1.2962
1.2639
1.2326
1.2053
1.1828
1.1662
1.1554
1.1505
1.1496
1.1505
1.1505
1.1505
1.1505
1.1505
1.1505
1.1505
1.1505
1.1505
1.1505
1.1505
1.1525
1.1544
1.1535
1.1505
1.1476
1.1486
1.1574
1.1828
1.2326
1.3089
1.4125
1.5406
1.6833
1.8133
1.9335
2.0626
2.1887
2.303
2.4018
2.4829
2.5484
2.6002
2.6383
2.6647
2.6833
2.6911
2.6921
2.6911
2.6872
2.6794
2.6667
2.65
2.6295
2.6051
2.5758
2.5396
2.4976
2.4477
2.3978
2.3441
2.2786
2.2053
2.1271
2.0469
1.9677
1.8915
1.8231
1.7625
1.7116
1.6696
1.6383
1.6149
1.5934
1.5748
1.5601
1.5494
1.5406
1.5318
1.5239
1.5171
1.5093
1.4995
1.4888
1.48
1.4721
1.4604
1.4457
1.4301
1.4115
1.39
1.3666
1.3412
1.3148
1.2884
1.263
1.2434
1.2287
1.2111
1.1945
1.1799
1.1672
1.1574
1.1486
1.1398
1.131
1.1212
1.1114
1.1026
1.1007
1.1036
1.1046
1.1056
1.1056
1.1056
1.1046
1.1007
1.0938
1.086
1.0772
1.0674
1.0626
1.0616
1.0577
1.0538
1.0508
1.0499
1.0489
1.0489
1.0489
1.0489
1.0489
1.0489
1.0499
1.0557
1.0635
1.0723
1.085
1.1065
1.1408
1.1906
1.259
1.347
1.4526
1.5718
1.6999
1.8133
1.914
2.0215
2.1261
2.2219
2.304
2.3724
2.4272
2.4712
2.5034
2.5279
2.5445
2.5552
2.5582
2.5572
2.5543
2.5494
2.5425
2.5327
2.5181
2.5005
2.479
2.4516
2.4184
2.3793
2.3382
2.2952
2.2444
2.1877
2.1271
2.0665
2.0078
1.9531
1.9052
1.8631
1.826
1.7937
1.7654
1.7439
1.7283
1.7146
1.7038
1.695
1.6872
1.6794
1.6725
1.6657
1.6598
1.6549
1.6481
1.6413
1.6344
1.6256
1.6149
1.6041
1.5943
1.5826
1.5699
1.5572
1.5445
1.5318
1.521
1.5103
1.5015
1.4946
1.4858
1.4761
1.4653
1.4545
1.4467
1.4409
1.436
1.4321
1.4282
1.4252
1.4223
1.4184
1.4115
1.4037
1.3969
1.39
1.3842
1.3793
1.3754
1.3715
1.3675
1.3656
1.3656
1.3715
1.3891
1.4233
1.477
1.5513
1.6461
1.7546
1.8719
1.9902
2.1046
2.2102
2.303
2.3734
2.4262
2.4751
2.5152
2.5464
2.5709
2.5875
2.5973
2.6022
2.6022
2.5982
2.5904
2.5767
2.5591
2.5406
2.52
2.4976
2.4741
2.4467
2.4145
2.3763
2.3324
2.2825
2.2278
2.1701
2.1173
2.0694
2.0205
1.9746
1.9345
1.9022
1.8798
1.8651
1.8563
1.8495
1.8456
1.8446
1.8436
1.8416
1.8387
1.8358
1.8328
1.828
1.8201
1.8113
1.8016
1.7908
1.7791
1.7664
1.7537
1.741
1.7273
1.7097
1.6911
1.6725
1.6549
1.6383
1.6217
1.6041
1.5875
1.5718
1.5582
1.5474
1.5376
1.5259
1.5132
1.5005
1.4878
1.4741
1.4614
1.4497
1.4389
1.4282
1.4184
1.4076
1.3988
1.391
1.3812
1.3715
1.3607
1.3509
1.3431
1.3353
1.3275
1.3196
1.3118
1.305
1.3011
1.2991
1.2972
1.2962
1.2952
1.2952
1.2952
1.2952
1.2952
1.2952
1.2952
1.2933
1.2903
1.2903
1.2933
1.3011
1.3196
1.3539
1.4086
1.4858
1.5836
1.696
1.8172
1.9413
2.0606
2.1574
2.2385
2.3206
2.3949
2.4575
2.5073
2.5435
2.5689
2.5846
2.5924
2.5953
2.5934
2.5885
2.5787
2.564
2.5474
2.5269
2.5034
2.477
2.4457
2.4907
2.567
2.5718
2.5376
2.478
2.4115
2.3402
2.2571
2.1691
2.0841
2.0059
1.9365
1.8768
1.8289
1.7928
1.7634
1.738
1.7136
1.6911
1.6706
1.6471
1.6227
1.5973
1.5718
1.5474
1.5239
1.5015
1.479
1.4575
1.436
1.4184
1.4037
1.39
1.3793
1.3705
1.3656
1.3636
1.3656
1.3705
1.3734
1.3763
1.3773
1.3773
1.3783
1.3783
1.3773
1.3744
1.3695
1.3636
1.3597
1.3587
1.3617
1.3685
1.3783
1.391
1.4047
1.4174
1.433
1.4516
1.4721
1.4936
1.5181
1.5445
1.5709
1.5973
1.6217
1.6413
1.6579
1.6706
1.6804
1.6901
1.697
1.7028
1.7077
1.7136
1.7243
1.7449
1.783
1.8465
1.9394
2.0381
2.1476
2.2893
2.4477
2.609
2.7634
2.9042
3.0254
3.1261
3.2063
3.2698
3.3177
3.3509
3.3666
3.3715
3.3744
3.3754
3.3734
3.3705
3.3656
3.3578
3.347
3.3333
3.3128
3.2864
3.2551
3.218
3.175
3.1271
3.0714
3.0088
2.9394
2.8631
2.7801
2.694
2.608
2.5249
2.4536
2.39
2.3294
2.2737
2.2248
2.1818
2.1447
2.1134
2.086
2.0616
2.0381
2.0147
1.9883
1.9638
1.9404
1.915
1.8866
1.8563
1.825
1.7947
1.7664
1.741
1.7165
1.6931
1.6716
1.6549
1.6413
1.6256
1.6109
1.5963
1.5816
1.5679
1.5562
1.5435
1.5318
1.523
1.5161
1.5103
1.5073
1.5064
1.5034
1.4995
1.4966
1.4966
1.4985
1.5015
1.5054
1.5103
1.5171
1.5249
1.5327
1.5396
1.5425
1.5445
1.5455
1.5455
1.5455
1.5455
1.5455
1.5455
1.5455
1.5455
1.5445
1.5445
1.5464
1.5543
1.5728
1.607
1.6618
1.741
1.8446
1.9687
2.1075
2.2532
2.3959
2.5132
2.61
2.7058
2.7918
2.8641
2.9218
2.9668
3.002
3.0303
3.0538
3.0704
3.0811
3.0841
3.0772
3.0626
3.0459
3.0244
3
2.9726
2.9413
2.9071
2.868
2.8221
2.7674
2.7048
2.6403
2.5748
2.5005
2.4233
2.347
2.2727
2.2033
2.1408
2.087
2.042
2.0068
1.9804
1.9609
1.9453
1.9326
1.9198
1.9062
1.8905
1.8719
1.8495
1.825
1.8006
1.7781
1.7576
1.737
1.7195
1.7028
1.6843
1.6647
1.6461
1.6295
1.6139
1.5982
1.5836
1.5699
1.5572
1.5445
1.5347
1.5279
1.4321
1.2923
1.2199
1.1818
1.1593
1.1427
1.1281
1.1153
1.1036
1.0938
1.087
1.0821
1.0772
1.0694
1.0596
1.0479
1.0371
1.0254
1.0108
0.99511
0.98045
0.96676
0.9521
0.93548
0.92375
0.91202
0.89541
0.87488
0.84946
0.82405
0.80352
0.79374
0.80059
0.83089
0.88563
0.96774
1.0577
1.1564
1.2766
1.4057
1.5318
1.6481
1.7507
1.8387
1.911
1.9707
2.0186
2.0557
2.0831
2.1007
2.1095
2.1134
2.1124
2.1065
2.0968
2.085
2.0704
2.0528
2.0303
2.002
1.9687
1.9345
1.8983
1.8563
1.8074
1.7537
1.697
1.6373
1.5738
1.5083
1.4418
1.3754
1.3118
1.26
1.218
1.1799
1.1496
1.131
1.1222
1.1222
1.13
1.1417
1.1554
1.1672
1.1779
1.1867
1.1926
1.1945
1.1916
1.1838
1.172
1.1623
1.1554
1.1515
1.1515
1.1525
1.1535
1.1505
1.1437
1.1281
1.0968
1.0518
0.99609
0.93842
0.88856
0.84946
0.82307
0.80645
0.7957
0.78592
0.77517
0.76735
0.76344
0.76051
0.76149
0.76735
0.77713
0.79179
0.80743
0.82209
0.83578
0.84653
0.85435
0.86217
0.87292
0.88368
0.89541
0.91202
0.93255
0.95601
0.97849
0.99609
1.0068
1.0127
1.0156
1.0205
1.0332
1.0587
1.1065
1.1808
1.2825
1.4096
1.5543
1.7058
1.8563
1.999
2.129
2.2414
2.3245
2.3851
2.4389
2.4829
2.5161
2.5396
2.5533
2.5582
2.5552
2.5455
2.5279
2.5034
2.4741
2.4418
2.4057
2.3646
2.3226
2.2776
2.2297
2.1769
2.1202
2.0606
1.9961
1.9247
1.8495
1.782
1.7204
1.653
1.5846
1.5181
1.4594
1.4096
1.3695
1.3372
1.3128
1.2952
1.2825
1.2717
1.2649
1.263
1.262
1.263
1.2678
1.2757
1.2864
1.2972
1.306
1.3118
1.3157
1.3167
1.3167
1.3138
1.3069
1.2962
1.2805
1.2581
1.2278
1.1896
1.1476
1.1017
1.0557
1.0108
0.9697
0.93842
0.91593
0.89736
0.8827
0.87292
0.8651
0.85924
0.85239
0.84262
0.83089
0.81916
0.80645
0.79863
0.79179
0.78495
0.77908
0.77615
0.77713
0.78006
0.7869
0.79668
0.80841
0.82307
0.84066
0.86022
0.87977
0.89736
0.91496
0.93255
0.95112
0.97458
1.0098
1.0616
1.1359
1.2346
1.3548
1.4907
1.6149
1.7312
1.8583
1.9824
2.0958
2.1965
2.2825
2.3558
2.522
2.7292
2.8465
2.912
2.9453
2.955
2.9492
2.9345
2.915
2.8905
2.8622
2.8319
2.7996
2.7664
2.7283
2.6843
2.6344
2.5826
2.5269
2.4604
2.3861
2.3089
2.2307
2.1544
2.0811
2.0117
1.9501
1.8983
1.8563
1.824
1.8035
1.7908
1.784
1.7801
1.7781
1.7761
1.7703
1.7576
1.74
1.7175
1.6882
1.6549
1.6256
1.6002
1.5758
1.5543
1.5347
1.5171
1.4995
1.4829
1.4653
1.4467
1.4272
1.4057
1.3861
1.3666
1.3412
1.3157
1.2923
1.2737
1.259
1.2483
1.2424
1.2375
1.2326
1.2297
1.2278
1.2297
1.2326
1.2346
1.2366
1.2395
1.2434
1.2493
1.2542
1.2571
1.2581
1.259
1.261
1.2678
1.2776
1.2854
1.2933
1.3011
1.3069
1.3099
1.3069
1.2972
1.2825
1.2669
1.259
1.2698
1.2962
1.3431
1.4233
1.5367
1.6725
1.8211
1.9726
2.1202
2.2581
2.3803
2.4819
2.563
2.6197
2.6598
2.696
2.7243
2.7439
2.7537
2.7556
2.7537
2.7468
2.7351
2.7195
2.6999
2.6755
2.6481
2.6168
2.5787
2.5327
2.479
2.4194
2.3558
2.2864
2.2111
2.1339
2.0557
1.9814
1.9198
1.868
1.8182
1.7761
1.7439
1.7204
1.7077
1.7038
1.7038
1.7058
1.7067
1.7038
1.696
1.6843
1.6686
1.6442
1.6149
1.5855
1.5562
1.5279
1.4995
1.4721
1.4467
1.4223
1.3988
1.3793
1.3636
1.348
1.3314
1.3148
1.3001
1.2864
1.2727
1.2561
1.2385
1.2199
1.2043
1.1896
1.1769
1.1681
1.1584
1.1466
1.1329
1.1193
1.1065
1.0968
1.0899
1.085
1.0841
1.088
1.0978
1.1114
1.1251
1.1378
1.1486
1.1613
1.1769
1.1945
1.2121
1.2326
1.2561
1.2796
1.3011
1.3196
1.3402
1.3617
1.3871
1.4203
1.4692
1.5367
1.6276
1.74
1.87
2.0127
2.1603
2.2874
2.3969
2.5064
2.6061
2.6901
2.7586
2.8123
2.8524
2.8807
2.8993
2.9101
2.913
2.9101
2.9003
2.8856
2.87
2.8514
2.8309
2.8074
2.781
2.7517
2.7165
2.6735
2.6237
2.566
2.5083
2.4487
2.3822
2.3138
2.2463
2.1828
2.1241
2.0714
2.0235
1.9785
1.9374
1.9032
1.8749
1.8534
1.8358
1.8152
1.7908
1.7664
1.74
1.7107
1.6794
1.6471
1.6158
1.5855
1.5591
1.5396
1.5239
1.4917
1.4526
1.4242
1.4018
1.3832
1.3636
1.3421
1.3187
1.2962
1.2757
1.262
1.2512
1.2424
1.2356
1.2278
1.2209
1.2121
1.2033
1.1935
1.1818
1.1701
1.1574
1.1408
1.1281
1.1163
1.1007
1.0811
1.0596
1.0362
1.0117
0.98729
0.96285
0.93842
0.91202
0.88465
0.86315
0.84457
0.82209
0.79961
0.78104
0.76833
0.76344
0.76637
0.78006
0.81036
0.86413
0.94721
1.0616
1.1848
1.3206
1.4868
1.6667
1.8446
2.0049
2.1388
2.2414
2.3128
2.3587
2.3881
2.4057
2.4145
2.4203
2.4282
2.437
2.4477
2.4604
2.4741
2.4878
2.4976
2.5024
2.5005
2.4878
2.4653
2.4379
2.4037
2.3597
2.3079
2.2473
2.1799
2.1075
2.0303
1.9511
1.8719
1.7947
1.7234
1.6637
1.6129
1.564
1.522
1.4888
1.4633
1.4448
1.4311
1.4203
1.4106
1.4018
1.3949
1.3891
1.3861
1.3861
1.3842
1.3793
1.3744
1.3685
1.3587
1.3451
1.3284
1.3089
1.2893
1.2708
1.2571
1.2463
1.2346
1.2239
1.2141
1.2043
1.1965
1.1926
1.1906
1.1906
1.1926
1.1955
1.1994
1.2043
1.2072
1.2053
1.1994
1.1926
1.1867
1.1799
1.173
1.1672
1.1632
1.1613
1.1603
1.1623
1.1652
1.1672
1.1681
1.1691
1.1711
1.175
1.1818
1.1926
1.2063
1.2209
1.2356
1.2493
1.261
1.2708
1.2776
1.2854
1.3001
1.3314
1.3861
1.4712
1.5846
1.7253
1.8866
2.0547
2.1994
2.3275
2.4585
2.5777
2.6774
2.7576
2.8172
2.8573
2.8778
2.8837
2.8759
2.8553
2.825
2.7908
2.7546
2.7146
2.6706
2.6266
2.5797
2.5288
2.4751
2.4154
2.3509
2.2815
2.2072
2.1398
2.0733
1.998
1.9198
1.8436
1.7732
1.7116
1.6579
1.6139
1.5787
1.5523
1.5347
1.5249
1.521
1.521
1.522
1.5249
1.5279
1.5298
1.5308
1.5308
1.5308
1.5308
1.5308
1.5308
1.5308
1.5308
1.5279
1.522
1.5142
1.5054
1.4956
1.4858
1.4751
1.4604
1.4438
1.4262
1.4106
1.3988
1.39
1.3822
1.3754
1.3695
1.3646
1.3597
1.3548
1.35
1.3451
1.3402
1.3353
1.3324
1.3314
1.3284
1.3255
1.3226
1.3187
1.3138
1.3089
1.3021
1.2923
1.2815
1.2708
1.2659
1.263
1.259
1.2542
1.2493
1.2444
1.2395
1.2346
1.2297
1.2805
1.3646
1.4223
1.4829
1.5464
1.6207
1.7234
1.8514
1.998
2.1525
2.3069
2.479
2.6227
2.7165
2.8016
2.8719
2.9198
2.9521
2.9814
3.002
3.0137
3.0166
3.0137
3.0068
2.9941
2.9756
2.955
2.9335
2.9101
2.8847
2.8583
2.8289
2.7928
2.7507
2.7028
2.6491
2.5875
2.52
2.4487
2.3724
2.2923
2.2209
2.1554
2.087
2.0215
1.9619
1.9091
1.8641
1.828
1.7986
1.7742
1.7556
1.74
1.7263
1.7155
1.7048
1.6931
1.6813
1.6706
1.6608
1.652
1.6471
1.6422
1.6354
1.6266
1.6158
1.6041
1.5943
1.5826
1.5699
1.5543
1.5367
1.521
1.5064
1.4927
1.479
1.4643
1.4526
1.4457
1.4438
1.4428
1.4409
1.4399
1.4399
1.4399
1.4399
1.4399
1.4399
1.4399
1.4379
1.435
1.433
1.4321
1.4291
1.4262
1.4223
1.4194
1.4174
1.4174
1.4203
1.4233
1.4262
1.4282
1.4291
1.4321
1.436
1.4379
1.4389
1.4399
1.4457
1.4643
1.5005
1.5572
1.6373
1.74
1.8612
1.9765
2.0899
2.218
2.348
2.4682
2.5728
2.6588
2.7273
2.7801
2.8192
2.8456
2.8612
2.868
2.8671
2.8602
2.8504
2.8358
2.8192
2.8006
2.7791
2.7546
2.7263
2.6911
2.6344
2.5787
2.5386
2.4897
2.4272
2.3548
2.2766
2.1994
2.1251
2.0538
1.9853
1.9228
1.8671
1.8182
1.7761
1.7468
1.7283
1.7126
1.7009
1.694
1.6931
1.697
1.7038
1.7107
1.7165
1.7204
1.7224
1.7234
1.7243
1.7243
1.7243
1.7234
1.7195
1.7126
1.7038
1.6931
1.6833
1.6745
1.6647
1.6569
1.652
1.6471
1.6403
1.6315
1.6227
1.6139
1.6041
1.5914
1.5797
1.5689
1.5582
1.5484
1.5435
1.5396
1.5327
1.5259
1.52
1.5161
1.5191
1.5367
1.5738
1.6344
1.7195
1.8289
1.956
2.0753
2.1896
2.3177
2.4438
2.5601
2.6618
2.7478
2.8152
2.8622
2.8925
2.9101
2.9179
2.915
2.9042
2.8915
2.8788
2.8661
2.8534
2.8387
2.8231
2.8035
2.7791
2.7498
2.7136
2.6716
2.6246
2.566
2.4985
2.4233
2.3431
2.263
2.1857
2.1153
2.0538
2.001
1.956
1.9198
1.8944
1.8778
1.8622
1.8475
1.8348
1.8221
1.8094
1.7957
1.782
1.7693
1.7586
1.7478
1.737
1.7283
1.7195
1.6227
1.478
1.3939
1.3412
1.303
1.2727
1.2454
1.2219
1.2014
1.1828
1.1691
1.1564
1.1447
1.1369
1.131
1.1251
1.1193
1.1105
1.0997
1.0899
1.0802
1.0704
1.0655
1.0635
1.0596
1.0547
1.0489
1.042
1.0362
1.0332
1.0313
1.0303
1.0303
1.0303
1.0303
1.0313
1.0332
1.0332
1.0313
1.0303
1.0303
1.0303
1.0303
1.0283
1.0264
1.0254
1.0244
1.0254
1.0274
1.0303
1.0332
1.0342
1.0332
1.0313
1.0303
1.0313
1.0391
1.0626
1.1124
1.1945
1.2913
1.4066
1.5621
1.7429
1.9345
2.1271
2.3089
2.4731
2.6129
2.7273
2.8182
2.8886
2.9326
2.9589
2.9804
2.9941
3.001
3.001
2.9961
2.9873
2.9756
2.958
2.9335
2.9013
2.8622
2.8201
2.7693
2.7048
2.6295
2.5435
2.4457
2.3392
2.2287
2.1163
2.0059
1.9003
1.8025
1.7253
1.6637
1.6061
1.5543
1.5093
1.4712
1.4379
1.4115
1.393
1.3793
1.3705
1.3666
1.3617
1.3558
1.35
1.3421
1.3324
1.3226
1.3148
1.3099
1.304
1.2962
1.2864
1.2757
1.263
1.2512
1.2375
1.2209
1.2043
1.1857
1.1652
1.1427
1.1202
1.0978
1.0733
1.0499
1.0293
1.0088
0.99316
0.97947
0.96383
0.94917
0.93157
0.91789
0.90909
0.90323
0.90029
0.89932
0.89834
0.89834
0.89932
0.90029
0.89932
0.89834
0.89834
0.89834
0.89834
0.89932
0.9042
0.91202
0.9218
0.93255
0.9433
0.95601
0.9697
0.9824
0.99413
1.0078
1.0244
1.0499
1.0938
1.1652
1.2649
1.3949
1.5533
1.7067
1.8592
2.0342
2.2141
2.3842
2.5367
2.6657
2.7722
2.8563
2.9189
2.9619
2.9873
2.9941
2.9912
2.9853
2.9746
2.9589
2.9384
2.914
2.8847
2.8514
2.8143
2.7713
2.7234
2.6686
2.6129
2.5523
2.4819
2.4037
2.3167
2.2258
2.1349
2.045
1.9599
1.8827
1.8152
1.7586
1.7165
1.6852
1.6579
1.6354
1.6188
1.6051
1.5924
1.5787
1.564
1.5474
1.5308
1.5122
1.4927
1.478
1.4614
1.4418
1.4233
1.4037
1.3842
1.3646
1.3431
1.3206
1.2981
1.2757
1.2532
1.2346
1.2199
1.2033
1.1896
1.1799
1.172
1.1652
1.1593
1.1535
1.1476
1.1417
1.1359
1.13
1.1271
1.1261
1.1222
1.1173
1.1124
1.1085
1.1065
1.1065
1.1085
1.1329
1.1701
1.1887
1.1984
1.2033
1.2033
1.2004
1.1965
1.1965
1.1965
1.1965
1.1965
1.1965
1.1965
1.1867
1.1906
1.2014
1.2239
1.2669
1.3353
1.436
1.566
1.7195
1.9306
2.1241
2.26
2.4027
2.5376
2.6413
2.7204
2.7928
2.8504
2.8935
2.9228
2.9404
2.9472
2.9453
2.9365
2.9208
2.9003
2.8759
2.8485
2.8192
2.7879
2.7537
2.7136
2.6686
2.6188
2.5621
2.4966
2.4242
2.348
2.2678
2.1935
2.1222
2.0303
1.9492
1.8905
1.8289
1.7693
1.7155
1.6706
1.6354
1.6051
1.5806
1.5601
1.5445
1.5308
1.5161
1.4985
1.4761
1.4536
1.436
1.4242
1.4154
1.4027
1.3861
1.3666
1.35
1.3353
1.3177
1.304
1.2942
1.2864
1.2805
1.2747
1.262
1.2434
1.2307
1.2199
1.2063
1.1916
1.1799
1.1662
1.1476
1.1349
1.1271
1.1202
1.1114
1.1017
1.0909
1.0802
1.0723
1.0645
1.0528
1.0401
1.0264
1.0117
0.99609
0.98045
0.96872
0.95601
0.94037
0.92766
0.91887
0.91593
0.91691
0.91887
0.91984
0.91789
0.91398
0.90909
0.90714
0.913
0.93353
0.97752
1.0508
1.1378
1.2424
1.3793
1.5337
1.696
1.8563
2.0039
2.1349
2.2463
2.3402
2.4174
2.4761
2.5191
2.5445
2.5572
2.563
2.5621
2.5552
2.5425
2.5239
2.5024
2.4809
2.4565
2.4262
2.391
2.3539
2.3138
2.2649
2.2102
2.1476
2.0762
2
1.9238
1.8524
1.7849
1.7243
1.6725
1.6344
1.6061
1.5797
1.5572
1.5376
1.521
1.5083
1.4995
1.4927
1.4848
1.4761
1.4653
1.4545
1.4467
1.4428
1.4379
1.4301
1.4213
1.4115
1.4008
1.3891
1.3763
1.3627
1.348
1.3343
1.3245
1.3167
1.3069
1.2981
1.2913
1.2864
1.2825
1.2786
1.2737
1.2688
1.263
1.2581
1.2522
1.2493
1.2483
1.2473
1.2473
1.2444
1.2405
1.2356
1.2287
1.2219
1.2151
1.2092
1.2033
1.2004
1.2004
1.2004
1.2004
1.2004
1.2004
1.2023
1.2033
1.2004
1.1965
1.1916
1.1838
1.173
1.1662
1.1672
1.1789
1.2102
1.2688
1.3578
1.478
1.6266
1.7928
1.9668
2.1408
2.305
2.435
2.5386
2.6413
2.7312
2.8055
2.8641
2.9081
2.9384
2.956
2.9638
2.9619
2.9531
2.9374
2.915
2.8905
2.8661
2.8495
2.8387
2.8201
2.7937
2.7595
2.7175
2.6696
2.6139
2.5503
2.4878
2.4223
2.346
2.262
2.176
2.0919
2.0117
1.9384
1.8729
1.8162
1.7693
1.7331
1.7058
1.6872
1.6725
1.6588
1.6481
1.6403
1.6334
1.6256
1.6168
1.607
1.5973
1.5855
1.5718
1.5601
1.5503
1.5396
1.5298
1.5181
1.5024
1.4868
1.4731
1.4585
1.4428
1.4272
1.4106
1.3949
1.3861
1.3793
1.3715
1.3656
1.3597
1.3519
1.3402
1.3265
1.3118
1.2962
1.2805
1.2659
1.2561
1.2502
1.2444
1.2405
1.2395
1.2414
1.2454
1.2502
1.2551
1.2571
1.2561
1.2522
1.2483
1.2463
1.2454
1.2405
1.2317
1.2209
1.2102
1.1994
1.1906
1.1887
1.1994
1.2268
1.2786
1.3441
1.4262
1.5406
1.6784
1.8319
1.9892
2.1417
2.2815
2.4057
2.5093
2.5924
2.6569
2.7048
2.7341
2.7498
2.7605
2.7625
2.7556
2.741
2.7195
2.694
2.6657
2.6334
2.5973
2.5582
2.5191
2.477
0.3783
0.33822
0.30401
0.27664
0.25806
0.25024
0.2522
0.261
0.27664
0.29521
0.31183
0.32551
0.33431
0.33724
0.33431
0.32551
0.31281
0.29717
0.28446
0.27468
0.26295
0.2522
0.24536
0.24242
0.2434
0.24927
0.25806
0.26882
0.28055
0.29326
0.30499
0.31769
0.33431
0.35777
0.39296
0.44282
0.51222
0.60508
0.72043
0.85533
1.0039
1.1574
1.3079
1.4291
1.5288
1.6295
1.7224
1.8074
1.8866
1.9638
2.045
2.13
2.2151
2.2952
2.3627
2.4027
2.4194
2.4262
2.4203
2.4037
2.3812
2.3558
2.3275
2.2952
2.26
2.2199
2.1711
2.1124
2.0499
1.9844
1.914
1.8397
1.7634
1.6891
1.6178
1.5464
1.478
1.4115
1.347
1.2854
1.2307
1.1799
1.1281
1.0772
1.0274
0.97947
0.93255
0.88759
0.8436
0.80059
0.75953
0.71945
0.68035
0.64712
0.61681
0.5826
0.54643
0.50929
0.47116
0.43304
0.39687
0.36266
0.33333
0.30792
0.28348
0.26393
0.24536
0.22483
0.20528
0.19062
0.18475
0.19257
0.21896
0.26588
0.33431
0.42424
0.53177
0.64907
0.75367
0.84946
0.9521
1.0508
1.1408
1.218
1.2835
1.3363
1.3793
1.4135
1.4399
1.4604
1.4702
1.4731
1.4751
1.4741
1.4702
1.4614
1.4487
1.4311
1.4086
1.3822
1.349
1.3089
1.2649
1.2209
1.1789
1.1398
1.1095
1.089
1.0782
1.0733
1.0714
1.0655
1.0508
1.0274
0.99707
0.96676
0.94037
0.92082
0.91105
0.90909
0.913
0.91887
1.1056
1.3763
1.5005
1.5464
1.5494
1.5279
1.4985
1.4663
1.4272
1.3881
1.349
1.3138
1.2825
1.2551
1.2317
1.2102
1.1896
1.1701
1.1525
1.1349
1.1153
1.0938
1.0714
1.0489
1.0264
1.0029
0.97947
0.95699
0.93255
0.90714
0.88563
0.86901
0.85044
0.83187
0.81623
0.80352
0.79668
0.79668
0.8045
0.82014
0.84262
0.86999
0.90029
0.92864
0.95601
0.98436
1.0098
1.0313
1.0499
1.0645
1.0762
1.086
1.0968
1.1065
1.1163
1.1251
1.1349
1.1447
1.1544
1.1632
1.172
1.1789
1.1838
1.1887
1.1945
1.2053
1.2248
1.2571
1.2962
1.348
1.4252
1.522
1.6334
1.7546
1.8788
2
2.1163
2.2239
2.3216
2.4076
2.4702
2.5181
2.567
2.6119
2.651
2.6852
2.7155
2.7419
2.7644
2.783
2.7986
2.8113
2.8182
2.8133
2.7977
2.7781
2.7507
2.7116
2.6618
2.6012
2.5298
2.4497
2.3627
2.2717
2.1799
2.0968
2.0196
1.9413
1.8661
1.7977
1.737
1.6843
1.6393
1.6022
1.5709
1.5435
1.5181
1.4927
1.4692
1.4457
1.4184
1.3871
1.3519
1.3128
1.2717
1.2278
1.1828
1.1388
1.0978
1.0645
1.044
1.0352
1.0342
1.0411
1.0528
1.0665
1.0792
1.0899
1.0978
1.1017
1.1017
1.0987
1.0938
1.089
1.085
1.0821
1.0811
1.0831
1.088
1.0958
1.1056
1.1153
1.1241
1.132
1.1378
1.1427
1.1466
1.1496
1.1525
1.1544
1.1544
1.1544
1.1544
1.1535
1.1525
1.1515
1.1515
1.1535
1.1554
1.1584
1.1623
1.1681
1.176
1.1867
1.2043
1.2326
1.2757
1.3382
1.4203
1.52
1.6158
1.7116
1.825
1.9443
2.0587
2.1623
2.2502
2.3216
2.3763
2.4164
2.4448
2.4643
2.4751
2.4761
2.4702
2.4653
2.4585
2.4497
2.4389
2.4272
2.4115
2.391
2.3646
2.3314
2.2884
2.2414
2.1896
2.131
2.0645
1.9941
1.9208
1.8475
1.7752
1.7067
1.6432
1.5846
1.5298
1.48
1.437
1.3988
1.3587
1.3187
1.2796
1.2414
1.2043
1.1681
1.1329
1.0997
1.0694
1.043
1.0235
1.0088
0.99511
0.9824
0.9697
0.95797
0.94917
0.94135
0.93646
0.93548
0.93842
0.94624
0.95699
0.96872
0.9824
0.99511
1.0049
1.0117
1.0137
1.0127
1.0088
1.0029
0.99511
0.98729
0.97947
0.97361
1.0235
1.1007
1.1408
1.1642
1.1799
1.1926
1.2023
1.2092
1.2151
1.219
1.2229
1.2268
1.2297
1.2307
1.2297
1.2278
1.2258
1.2229
1.2209
1.218
1.2151
1.2111
1.2053
1.1984
1.1945
1.1935
1.1984
1.2131
1.2424
1.2903
1.3578
1.4418
1.5386
1.6432
1.7498
1.8534
1.9374
2.0059
2.0743
2.1369
2.1906
2.2356
2.2737
2.304
2.3275
2.3451
2.3568
2.3646
2.3666
2.3617
2.3519
2.3402
2.3255
2.3089
2.2893
2.2688
2.2463
2.2209
2.1916
2.1574
2.1202
2.0831
2.0469
2.0088
1.9726
1.9384
1.9062
1.8768
1.8495
1.8231
1.7957
1.7693
1.7439
1.7195
1.6989
1.6804
1.6628
1.6471
1.6344
1.6227
1.6139
1.607
1.6012
1.5973
1.5953
1.5943
1.5943
1.5953
1.6002
1.609
1.6237
1.6442
1.6706
1.7028
1.739
1.7771
1.8152
1.8504
1.8807
1.9003
1.911
1.9159
1.915
1.9071
1.8915
1.869
1.8426
1.8113
1.7761
1.738
1.697
1.6598
1.6256
1.5894
1.5523
1.5171
1.4858
1.4594
1.4389
1.4233
1.4135
1.4086
1.4076
1.4086
1.4096
1.4106
1.4106
1.4106
1.4106
1.4106
1.4106
1.4106
1.4106
1.4106
1.4106
1.4106
1.4106
1.4106
1.4106
1.4106
1.4086
1.4057
1.4008
1.3939
1.3871
1.3783
1.3695
1.3607
1.3529
1.346
1.3392
1.3304
1.3206
1.3109
1.3021
1.2952
1.2893
1.2835
1.2776
1.2717
1.2659
1.262
1.259
1.2551
1.2512
1.2473
1.2434
1.2395
1.2346
1.2278
1.2199
1.2131
1.2092
1.2053
1.2033
1.2033
1.2043
1.2043
1.2043
1.2043
1.2033
1.2023
1.2014
1.2004
1.1984
1.1975
1.1984
1.1984
1.1975
1.1965
1.1975
1.1984
1.2004
1.2023
1.2043
1.2043
1.2043
1.2043
1.2033
1.2023
1.2023
1.2004
1.1984
1.1955
1.1935
1.1935
1.1955
1.2004
1.2063
1.2111
1.2151
1.219
1.2229
1.2248
1.2239
1.2219
1.2199
1.219
1.2199
1.2209
1.2219
1.2239
1.2239
1.2239
1.2239
1.2239
1.2258
1.2326
1.2502
1.2845
1.3392
1.4174
1.5181
1.6383
1.7722
1.911
2.0293
2.131
2.2366
2.3333
2.4164
2.4839
2.5347
2.5699
2.5914
2.6022
2.6041
2.5992
2.5865
2.5689
2.5494
2.5279
2.5044
2.479
2.4516
2.4233
2.4624
2.5288
2.5327
2.5015
2.4477
2.3851
2.3138
2.2287
2.1378
2.0459
1.957
1.8768
1.8074
1.7507
1.7087
1.6813
1.6657
1.6569
1.652
1.6491
1.6481
1.6461
1.6422
1.6364
1.6276
1.6158
1.6022
1.5875
1.5728
1.5591
1.5474
1.5367
1.5279
1.521
1.5152
1.5073
1.4976
1.4848
1.4692
1.4506
1.4291
1.4047
1.3803
1.3587
1.3382
1.3187
1.2981
1.2757
1.2512
1.2258
1.1984
1.1701
1.1437
1.1202
1.0987
1.0841
1.0714
1.0557
1.0381
1.0196
0.99902
0.97458
0.94526
0.91105
0.87292
0.83284
0.79374
0.76442
0.74096
0.71652
0.69501
0.6784
0.66569
0.65787
0.65494
0.65591
0.6608
0.66764
0.6784
0.69795
0.7263
0.76735
0.83187
0.92669
1.0508
1.2014
1.3685
1.5406
1.7058
1.8504
1.9707
2.0645
2.1241
2.1603
2.1848
2.1994
2.2043
2.2023
2.1935
2.1799
2.1623
2.1417
2.1202
2.0978
2.0772
2.0596
2.044
2.0293
2.0137
1.9951
1.9726
1.9453
1.913
1.8739
1.828
1.7771
1.7204
1.6657
1.6119
1.5503
1.4848
1.4213
1.3617
1.3079
1.262
1.2258
1.1975
1.175
1.1554
1.1359
1.1193
1.1065
1.0938
1.0821
1.0723
1.0665
1.0645
1.0674
1.0743
1.0831
1.0899
1.0948
1.0968
1.0958
1.0919
1.085
1.0753
1.0616
1.045
1.0254
1.0029
0.98143
0.96188
0.94428
0.9306
0.92375
0.92278
0.92571
0.9306
0.93744
0.94624
0.95601
0.96774
0.97947
0.99022
0.99804
1.0039
1.0098
1.0137
1.0127
1.0068
0.99902
0.98925
0.98143
0.97752
0.97752
0.98338
0.99413
1.0108
1.0313
1.0528
1.0743
1.0938
1.1105
1.1241
1.1349
1.1457
1.1632
1.1926
1.2395
1.3109
1.4066
1.5064
1.6149
1.7507
1.8993
2.045
2.173
2.2708
2.3343
2.3646
2.3675
2.3519
2.3314
2.3118
2.303
2.3138
2.3421
2.3822
2.4272
2.4692
2.5034
2.5269
2.5367
2.5327
2.5171
2.4907
2.4545
2.4086
2.3509
2.2815
2.2053
2.1251
2.045
1.9648
1.8856
1.8074
1.7312
1.6588
1.5982
1.5455
1.4927
1.4457
1.4047
1.3715
1.3441
1.3226
1.305
1.2913
1.2815
1.2747
1.2688
1.3988
1.3949
1.3832
1.3636
1.3382
1.3079
1.2747
1.2424
1.2141
1.1906
1.173
1.1623
1.1593
1.1642
1.174
1.1877
1.2023
1.217
1.2307
1.2385
1.2375
1.2287
1.219
1.2131
1.218
1.2356
1.2717
1.3363
1.4311
1.5523
1.694
1.8495
2.0088
2.1652
2.3089
2.4321
2.5308
2.5963
2.6393
2.6755
2.7058
2.7331
2.7634
2.7986
2.8358
2.87
2.9003
2.9208
2.9296
2.9247
2.9091
2.8866
2.8641
2.8436
2.826
2.8084
2.7879
2.7605
2.7185
2.6559
2.5718
2.4702
2.3715
2.2747
2.1672
2.0596
1.958
1.8651
1.7859
1.7195
1.6667
1.6266
1.5992
1.5816
1.5689
1.5601
1.5533
1.5425
1.5259
1.5054
1.4829
1.2043
1.2033
1.1975
2.5171
2.4604
2.3939
2.3196
2.2405
2.1574
2.0821
2.0127
1.9384
1.8651
1.7957
1.7331
1.6774
1.6295
1.5875
1.5523
1.5249
1.5054
1.4936
1.4888
1.4878
1.4888
1.4917
1.4809
1.4594
1.4438
1.4282
1.4096
1.39
1.3695
1.349
1.3314
1.3187
1.3069
1.2962
1.2854
1.2737
1.26
1.2454
1.2297
1.2141
1.1984
1.1828
1.1711
1.1623
1.1515
1.1408
1.132
1.1241
1.1173
1.1124
1.1075
1.1017
1.0948
1.088
1.0841
1.0841
1.087
1.089
1.0899
1.0899
1.0899
1.0899
1.0899
1.0909
1.0997
1.1212
1.1613
1.2131
1.2835
1.3891
1.522
1.6735
1.8368
2.002
2.1584
2.2991
2.4233
2.5259
2.6061
2.6686
2.7107
2.7361
2.7566
2.7713
2.782
2.7869
2.7869
2.784
2.7791
2.7713
2.7595
2.741
2.7175
2.6872
2.65
2.6051
2.5523
2.4917
2.4223
2.348
2.2708
2.1906
2.1124
2.0401
1.9756
1.9218
1.8759
1.8319
1.7928
1.7586
1.7302
1.7077
1.6911
1.6794
1.6725
1.6686
1.6667
1.6657
1.6637
1.6598
1.654
1.6471
1.6413
1.6344
1.6285
1.6256
1.6237
1.6227
1.6197
1.6149
1.6109
1.608
1.6041
1.5973
1.5875
1.5748
1.5611
1.5435
1.5191
1.4878
1.4526
1.4135
1.3803
1.349
1.3128
1.2766
1.2405
1.2033
1.1691
1.1388
1.1105
1.0841
1.0606
1.0411
1.0254
1.0166
1.0137
1.0117
1.0127
1.0166
1.0244
1.0362
1.0528
1.0743
1.1007
1.131
1.1672
1.2053
1.2424
1.2825
1.3236
1.3636
1.3998
1.4311
1.4594
1.4868
1.5181
1.5611
1.6246
1.7136
1.8065
1.911
2.0469
2.1975
2.3548
2.5132
2.6618
2.7928
2.9062
3.002
3.0821
3.1486
3.1926
3.2209
3.2483
3.2708
3.2893
3.3011
3.303
3.2933
3.2737
3.2444
3.2033
3.1525
3.0948
3.0362
2.9736
2.9022
2.825
2.74
2.6461
2.5445
2.436
2.3206
2.2033
2.088
1.9756
1.8798
1.7986
1.7195
1.65
1.5914
1.5425
1.5024
1.4702
1.4448
1.4252
1.4106
1.3959
1.3803
1.3685
1.3578
1.3431
1.3265
1.3099
1.2933
1.2776
1.263
1.2493
1.2346
1.219
1.2033
1.1916
1.1818
1.1691
1.1544
1.1408
1.1281
1.1163
1.1056
1.0948
1.0841
1.0733
1.0626
1.0547
1.0528
1.0518
1.0469
1.0411
1.0332
1.0244
1.0147
1.0059
0.99707
0.99022
0.98436
0.97752
0.97458
0.97165
0.96579
0.95992
0.95503
0.95015
0.94428
0.94135
0.94037
0.93939
0.94233
0.95992
0.98631
1.002
1.0098
1.0176
1.0323
1.0626
1.1173
1.1984
1.3079
1.4418
1.5934
1.7537
1.911
2.042
2.1544
2.2669
2.3685
2.4555
2.5279
2.5875
2.6344
2.6686
2.694
2.7116
2.7253
2.7312
2.7322
2.7351
2.7341
2.7283
2.7175
2.7009
2.6804
2.6569
2.6305
2.6012
2.5699
2.5347
2.4985
2.4594
2.4154
2.3675
2.3177
2.2659
2.2131
2.1584
2.1026
2.0459
1.9873
1.9267
1.8719
1.8192
1.7605
1.7009
1.6452
1.5934
1.5445
1.5015
1.4643
1.4321
1.4027
1.3754
1.348
1.3255
1.306
1.2854
1.2639
1.2434
1.2239
1.2063
1.1916
1.1769
1.1642
1.1544
1.1486
1.1476
1.1496
1.1515
1.1544
1.1574
1.1603
1.1642
1.172
1.1838
1.2023
1.2268
1.2551
1.2835
1.3089
1.3304
1.349
1.3627
1.3705
1.3724
1.3675
1.3578
1.3412
1.3196
1.2952
1.2698
1.2493
1.2326
1.2131
1.1926
1.173
1.1574
1.1457
1.1359
1.132
1.1398
1.1623
1.2072
1.2796
1.3627
1.4594
1.5875
1.7361
1.8925
2.0479
2.1945
2.3265
2.4399
2.5357
2.6139
2.6764
2.7185
2.7488
2.7781
2.8035
2.826
2.8416
2.8504
2.8534
2.8504
2.8416
2.828
2.8113
2.7908
2.7664
2.737
2.7019
2.6598
2.609
2.5464
2.4712
2.3881
2.2972
2.2014
2.1026
2.0059
1.9228
1.8504
1.7781
1.7146
1.6608
1.6168
1.5836
1.5582
1.5386
1.523
1.5093
1.4966
1.4829
1.4721
1.4614
1.4487
1.4379
1.4282
1.4174
1.4057
1.393
1.3793
1.3636
1.347
1.3304
1.3187
1.3109
1.303
1.2972
1.2913
1.2835
1.2747
1.263
1.2502
1.2356
1.217
1.1965
1.176
1.1613
1.1515
1.1427
1.1359
1.1329
1.131
1.131
1.1349
1.1388
1.1408
1.1417
1.1408
1.1417
1.1437
1.1437
1.1437
1.1437
1.1447
1.1466
1.1505
1.1535
1.1544
1.1554
1.1554
1.1564
1.1584
1.1613
1.172
1.1965
1.2405
1.3109
1.4066
1.5279
1.6696
1.8231
1.9785
2.1281
2.2502
2.3509
2.4516
2.5415
2.6178
2.6794
2.7263
2.7615
2.7849
2.7849
2.7849
2.7849
2.7849
2.7849
2.7849
2.7849
2.7849
2.7908
2.7615
2.7204
2.6686
2.608
2.5396
2.4643
2.3822
2.303
2.2258
2.1388
2.045
1.9511
1.8739
1.8074
1.739
1.6774
1.6266
1.5865
1.5543
1.5308
1.5142
1.4995
1.4848
1.4712
1.4594
1.4487
1.4389
1.4301
1.4223
1.4135
1.4027
1.3891
1.3763
1.3636
1.348
1.3314
1.3167
1.303
1.2923
1.2874
1.2903
1.304
1.3255
1.3509
1.3744
1.391
1.3978
1.3939
1.3822
1.3666
1.3529
1.346
1.347
1.3519
1.3587
1.3646
1.3646
1.3597
1.349
1.3284
1.303
1.2747
1.2473
1.2209
1.1965
1.172
1.1466
1.1193
1.0909
1.0684
1.0518
1.0342
1.0196
1.0088
1.001
0.99413
0.9912
0.99609
1.0147
1.0557
1.1251
1.2268
1.3353
1.4575
1.6149
1.7898
1.9687
2.1408
2.2981
2.437
2.5552
2.653
2.7302
2.7879
2.8231
2.8446
2.8641
2.8798
2.8944
2.913
2.9345
2.957
2.9765
2.9863
2.9795
2.9531
2.9091
2.8543
2.7898
2.7126
2.6295
2.5425
2.4545
2.3666
2.2796
2.1916
2.1036
2.0176
1.9335
1.8612
1.7996
1.741
1.6901
1.6491
1.6188
1.5943
1.5748
1.5582
1.5425
1.5288
1.5181
1.5103
1.5054
1.5015
1.4966
1.4878
1.4761
1.4633
1.4497
1.436
1.4242
1.4184
1.4203
1.4321
1.4506
1.4809
1.5279
1.5894
1.6618
1.738
1.8162
1.8915
1.9589
2.0156
2.0596
2.089
2.1026
2.1017
2.087
2.0596
2.0205
1.9707
1.912
1.8475
1.782
1.7155
1.65
1.5875
1.5298
1.4848
1.4506
1.4184
1.39
1.3675
1.3509
1.3431
1.3431
1.348
1.3548
1.3617
1.3666
1.3675
1.3666
1.3636
1.3578
1.3529
1.35
1.349
1.348
1.3451
1.3392
1.3314
1.3226
1.3138
1.3099
1.3079
1.304
1.3021
1.3011
1.2991
1.2952
1.2913
1.2864
1.2815
1.2766
1.2708
1.2669
1.2649
1.261
1.2561
1.2483
1.2385
1.2268
1.2131
1.1994
1.1877
1.1769
1.1681
1.1623
1.1593
1.1584
1.1554
1.1505
1.1437
1.1378
1.132
1.1261
1.1212
1.1163
1.1124
1.1085
1.1075
1.1065
1.1026
1.0987
1.0958
1.0919
1.087
1.085
1.0841
1.0831
1.0831
1.0831
1.0831
1.0841
1.0841
1.0811
1.0743
1.0665
1.0587
1.0528
1.0469
1.042
1.0381
1.0362
1.0352
1.0371
1.0411
1.043
1.044
1.044
1.045
1.0489
1.0547
1.0616
1.0684
1.0753
1.0811
1.0899
1.1026
1.1114
1.1153
1.1173
1.1183
1.1193
1.1193
1.1193
1.1222
1.1261
1.1281
1.129
1.132
1.1359
1.1398
1.1515
1.1799
1.2346
1.3226
1.4477
1.608
1.7957
1.999
2.2063
2.4057
2.567
2.7019
2.8368
2.9599
3.0655
3.1525
3.2219
3.2737
3.3118
3.3392
3.3578
3.3685
3.3666
3.3568
3.347
3.3343
3.3148
3.2854
3.2473
3.1975
3.1349
3.0635
2.9824
2.8925
2.7977
2.7097
2.6266
2.5376
2.4497
2.3646
2.2854
2.2111
2.1427
2.0821
2.0293
1.9824
1.9433
1.914
1.8915
1.8719
1.8573
1.8475
1.8397
1.8319
1.8201
1.8074
1.7918
1.7732
1.7537
1.737
1.7253
1.7155
1.7087
1.7058
1.7087
1.7155
1.7253
1.7351
1.7449
1.7527
1.7605
1.7703
1.781
1.7947
1.8162
1.8465
1.8817
1.9179
1.955
1.9932
2.0303
2.0626
2.0909
2.1173
2.1398
2.1535
2.1603
2.1652
2.1662
2.1623
2.1525
2.1388
2.1173
2.0909
2.0626
2.0303
1.9971
1.9687
1.9443
1.9218
1.9032
1.8856
1.8661
1.8436
1.8172
1.7879
1.7605
1.739
1.7341
1.7527
1.784
1.8358
1.9189
2.0274
2.1525
2.2815
2.4057
2.5171
2.61
2.6804
2.7263
2.7517
2.7586
2.7517
2.7429
2.7341
2.7302
2.7331
2.7439
2.7615
2.7791
2.7898
2.7928
2.7849
2.7615
2.7253
2.6745
2.609
2.5288
2.4379
2.3412
2.2424
2.1437
2.0499
1.9609
1.8788
1.8045
1.7439
1.6931
1.6432
1.5953
1.5523
1.5161
1.4878
1.4663
1.4516
1.4418
1.436
1.4321
1.4291
1.4252
1.4184
1.4096
1.4018
1.3959
1.392
1.39
1.3891
1.3881
1.39
1.3939
1.3969
1.4008
1.4047
1.4076
1.4096
1.4115
1.4164
1.4233
1.433
1.4457
1.4604
1.4751
1.4888
1.4985
1.5034
1.5024
1.4966
1.4858
1.477
1.4731
1.4731
1.4819
1.2874
1.2229
1.1701
1.1193
1.0587
0.99609
0.94037
0.89638
0.86901
0.86022
0.86901
0.8915
0.91789
0.97849
1.0489
1.086
1.1017
1.1007
1.0909
1.0782
1.0694
1.0665
1.0723
1.088
1.1114
1.1398
1.1701
1.1994
1.2287
1.2639
1.3109
1.3734
1.4545
1.5533
1.6686
1.7977
1.9355
2.0762
2.2131
2.3392
2.436
2.5083
2.5738
2.6276
2.6696
2.7028
2.7322
2.7605
2.7918
2.826
2.8622
2.8974
2.9198
2.9335
2.9423
2.9374
2.915
2.8729
2.8123
2.7361
2.65
2.5552
2.4565
2.3578
2.262
2.1808
2.1105
2.043
1.9834
1.9365
1.9013
1.8768
1.8631
1.8573
1.8563
1.8583
1.8612
1.8641
1.8661
1.8671
1.8651
1.8612
1.8543
1.8426
1.826
1.8074
1.7879
1.7703
1.7546
1.7449
1.74
1.738
1.7361
1.7283
1.7107
1.6833
1.6471
1.6022
1.5552
1.5132
1.479
1.4555
1.4448
1.4467
1.4604
1.4839
1.5142
1.5484
1.5826
1.6129
1.6373
1.6549
1.6667
1.6735
1.6755
1.6725
1.6686
1.6637
1.6569
1.6491
1.6432
1.6383
1.6364
1.6383
1.6442
1.654
1.6676
1.6813
1.696
1.7116
1.7253
1.7361
1.7419
1.7449
1.7498
1.7615
1.7898
1.8436
1.9306
2.0293
2.1466
2.303
2.48
2.6598
2.827
2.9677
3.0782
3.1554
3.1994
3.2141
3.2043
3.1769
3.1388
3.0978
3.0567
3.0196
2.9912
2.9756
2.9677
2.9629
2.955
2.9384
2.9091
2.8651
2.8123
2.7527
2.6813
2.6051
2.5288
2.4545
2.3851
2.3216
2.261
2.2043
2.1515
2.1056
2.0674
2.0391
2.0176
1.999
1.9844
1.9687
1.9492
1.9247
1.8925
1.8524
1.8065
1.7566
1.7028
1.6579
1.6188
1.5767
1.5347
1.4927
1.4526
1.4174
1.3851
1.3539
1.3255
1.3011
1.2815
1.2678
1.262
1.262
1.263
1.2659
1.2727
1.2845
1.3011
1.3216
1.3431
1.3646
1.3822
1.393
1.3988
1.3998
1.3969
1.392
1.3871
1.3803
1.3705
1.3587
1.3451
1.3275
1.3069
1.2864
1.2678
1.2551
1.2502
1.2483
1.2522
1.262
1.2737
1.2874
1.3001
1.3128
1.3255
1.3392
1.3558
1.3724
1.3891
1.4106
1.4399
1.4809
1.5376
1.608
1.6911
1.784
1.8817
1.9785
2.0704
2.1544
2.2209
2.2747
2.3304
2.3842
2.434
2.48
2.52
2.5503
2.5718
2.5846
2.5904
2.5894
2.5826
2.5738
2.563
2.5464
2.523
2.4467
2.3421
2.263
2.1955
2.1329
2.0714
2.0137
1.9609
1.9159
1.8768
1.8397
1.8055
1.7742
1.7429
1.7116
1.6813
1.6481
1.6119
1.5728
1.5318
1.4966
1.4663
1.434
1.3978
1.3607
1.3216
1.2815
1.2414
1.2033
1.1691
1.1388
1.1134
1.0929
1.0802
1.0733
1.0665
1.0616
1.0567
1.0547
1.0567
1.0635
1.0762
1.0958
1.1212
1.1486
1.174
1.1984
1.2229
1.2454
1.2649
1.2796
1.2913
1.2991
1.303
1.3011
1.2933
1.2796
1.26
1.2424
1.2239
1.2004
1.1789
1.1593
1.1427
1.129
1.1183
1.1095
1.1036
1.1007
1.0987
1.1007
1.1065
1.1134
1.1202
1.13
1.1427
1.1593
1.1838
1.2219
1.2796
1.3587
1.4594
1.5797
1.694
1.8055
1.9335
2.0645
2.1887
2.2991
2.3949
2.477
2.5455
2.6051
2.6579
2.7048
2.738
2.7615
2.7869
2.8094
2.828
2.8416
2.8504
2.8543
2.8543
2.8504
2.8407
2.8231
2.7967
2.7625
2.7185
2.6618
2.5914
2.5054
2.4047
2.2903
2.1642
2.0323
1.8983
1.7664
1.6422
1.5406
1.4565
1.3734
1.2991
1.2385
1.1916
1.1584
1.1388
1.131
1.1329
1.1417
1.1535
1.1672
1.1808
1.1916
1.1994
1.2053
1.2102
1.2141
1.218
1.2219
1.2278
1.2366
1.2463
1.2561
1.2649
1.2747
1.2845
1.2942
1.305
1.3196
1.3372
1.3597
1.3861
1.4135
1.4409
1.4663
1.4858
1.5005
1.5132
1.5259
1.5367
1.5455
1.5533
1.5611
1.5689
1.5758
1.5806
1.5826
1.5836
1.5846
1.5836
1.5806
1.5738
1.564
1.5484
1.5249
1.4897
1.4438
1.39
1.3304
1.2717
1.2278
1.1965
1.1779
1.1789
1.2043
1.2551
1.3284
1.4145
1.5064
1.5963
1.6784
1.7488
1.8094
1.8553
1.8905
1.9257
1.958
1.9863
2.0088
2.0254
2.0362
2.0411
2.044
2.045
2.0459
2.043
2.0371
2.0313
2.0244
2.0147
2
1.9795
1.9511
1.9159
1.8739
1.827
1.7761
1.7234
1.6784
1.6373
1.5963
1.5572
1.522
1.4936
1.4712
1.4575
1.4516
1.4516
1.4545
1.4575
1.4614
1.4643
1.4643
1.4624
1.4575
1.4506
1.4428
1.435
1.4272
1.4213
1.4174
1.4154
1.4145
1.4145
1.4154
1.4154
1.4135
1.4096
1.4018
1.3891
1.3705
1.347
1.3187
1.2874
1.2473
1.2092
1.1838
1.1662
1.1574
1.1564
1.1623
1.172
1.1818
1.1906
1.1965
1.2023
1.2072
1.2111
1.217
1.2229
1.2278
1.2307
1.2287
1.2219
1.2102
1.1926
1.1711
1.1476
1.1232
1.1007
1.085
1.0743
1.0665
1.0626
1.0665
1.0831
1.1153
1.1681
1.2463
1.35
1.4761
1.6178
1.7674
1.8993
2.0156
2.1378
2.2512
2.347
2.4252
2.4858
2.5288
2.5562
2.5709
2.5767
2.5748
2.566
2.5533
2.5435
2.5327
2.521
2.5093
2.4966
2.4829
2.4663
2.4467
2.4213
2.391
2.3539
2.3128
2.2659
2.2063
2.1369
2.0606
1.9795
1.8993
1.825
1.7595
1.7048
1.6598
1.6237
1.5963
1.5758
1.5621
1.5533
1.5474
1.5455
1.5464
1.5484
1.5494
1.5484
1.5484
1.5494
1.5494
1.5484
1.5445
1.5367
1.522
1.4985
1.4663
1.4252
1.3803
1.3363
1.2972
1.2639
1.2366
1.219
1.2063
1.1926
1.1779
1.1642
1.1515
1.1398
1.13
1.1202
1.1124
1.1075
1.1056
1.1065
1.1095
1.1105
1.1114
1.1114
1.1114
1.1114
1.1134
1.1183
1.1281
1.1417
1.1593
1.1799
1.2014
1.2239
1.2483
1.2747
1.3079
1.3558
1.4242
1.5191
1.6393
1.782
1.9384
2.0997
2.2356
2.35
2.4643
2.565
2.6481
2.7146
2.7644
2.8016
2.8289
2.8495
2.8622
2.8671
2.8651
2.8543
2.8387
2.8201
2.7967
2.7693
2.738
2.7038
2.6657
2.6217
2.5689
2.5064
2.434
2.3617
2.2854
2.1955
2.0987
2.0039
1.915
1.8348
1.7654
1.7097
1.6647
1.6295
1.6031
1.5846
1.5718
1.565
1.5611
1.5591
1.5582
1.5582
1.5562
1.5494
1.5376
1.5191
1.4956
1.4692
1.4477
1.4321
1.4184
1.4096
1.4047
1.3988
1.391
1.3812
1.3666
1.348
1.3255
1.303
1.2805
1.2639
1.2522
1.2434
1.2405
1.2444
1.2561
1.2717
1.2913
1.3148
1.3372
1.3587
1.3763
1.391
1.4027
1.4115
1.4184
1.4233
1.4282
1.433
1.437
1.4389
1.4379
1.434
1.4282
1.4194
1.4115
1.4018
1.39
1.3763
1.3607
1.3451
1.3284
1.3118
1.2933
1.2757
1.26
1.2473
1.2424
1.2493
1.2698
1.3099
1.3744
1.4643
1.5758
1.7028
1.8377
1.9717
2.0958
2.2072
2.3021
2.3705
2.4194
2.4614
2.4927
2.5142
2.5494
2.5875
2.6012
2.6012
2.5934
2.5826
2.5689
2.5523
2.5327
2.5132
2.4888
2.4594
2.4233
2.3783
2.3226
2.2551
2.176
2.089
1.999
1.9081
1.8289
1.7576
1.6843
1.6149
1.5523
1.4976
1.4516
1.4145
1.3851
1.3627
1.346
1.3324
1.3236
1.3167
1.3089
1.3001
1.2893
1.2757
1.261
1.2463
1.2326
1.219
1.2033
1.1848
1.1691
1.1544
1.1359
1.1183
1.1036
1.0919
1.0811
1.0714
1.0626
1.0547
1.0459
1.0371
1.0283
1.0215
1.0156
1.0059
0.99413
0.98338
0.97361
0.96383
0.95308
0.94233
0.93353
0.92571
0.91984
0.91789
0.91789
0.91593
0.91202
0.90811
0.90225
0.89541
0.88759
0.88172
0.87683
0.87195
0.86804
0.86608
0.86804
0.87097
0.8739
0.87683
0.8827
0.89443
0.91789
0.95797
1.0205
1.1085
1.2229
1.3587
1.4888
1.6178
1.7644
1.9101
2.0469
2.1681
2.2708
2.3539
2.4184
2.4673
2.5015
2.5239
2.5367
2.5367
2.5298
2.5191
2.5044
2.4878
2.4702
2.4516
2.4321
2.4096
2.3832
2.3509
2.3128
2.2727
2.2278
2.173
2.1085
2.0391
1.9668
1.8944
1.824
1.7595
1.7028
1.654
1.6129
1.5797
1.5562
1.5396
1.5239
1.5122
1.5024
1.4936
1.4848
1.4731
1.4604
1.4477
1.4321
1.4135
1.3978
1.3842
1.3656
1.3421
1.3167
1.2913
1.2649
1.2366
1.2092
1.1838
1.1593
1.1359
1.1163
1.1036
1.0938
1.0802
1.0635
1.044
1.0196
0.99609
0.97556
0.95894
0.94428
0.93255
0.9218
0.91691
0.91398
0.90909
0.9042
0.89932
0.89736
0.89834
0.90225
0.90811
0.913
0.91887
0.92669
0.93451
0.9433
0.9521
0.95797
0.9609
0.96188
0.96285
0.96285
0.96285
0.96383
0.97067
0.98925
1.0274
1.0782
1.1447
1.2414
1.3607
1.4956
1.6373
1.7781
1.9091
2.0254
2.1241
2.2063
2.2717
2.3236
2.3578
2.3793
2.3959
2.4057
2.4096
2.4076
2.4008
2.3891
2.3734
2.3509
2.3236
2.2933
0.94721
0.99218
1.0381
1.0938
1.1623
1.2463
1.3451
1.4604
1.5914
1.7331
1.8807
2.0283
2.174
2.3148
2.4282
2.5249
2.6276
2.7234
2.8104
2.8866
2.9492
2.9971
3.0323
3.0538
3.0606
3.0557
3.0381
3.0117
2.9804
2.9316
2.8739
2.8231
2.7713
2.7195
2.6647
2.6051
2.5415
2.4721
2.3939
2.3157
2.2336
2.1369
2.0332
1.9286
1.827
1.7322
1.6491
1.5816
1.5269
1.4858
1.4585
1.4448
1.4428
1.4497
1.4653
1.4888
1.5152
1.5415
1.566
1.5875
1.6061
1.6197
1.6276
1.6305
1.6305
1.6295
1.6276
1.6276
1.6325
1.6413
1.654
1.6667
1.6755
1.6774
1.6676
1.6471
1.6217
1.5914
1.5533
1.5161
1.4829
1.4575
1.4409
1.4311
1.4262
1.4242
1.4213
1.4125
1.393
1.3685
1.3392
1.2952
1.2424
1.1877
1.1339
1.0831
1.0391
1.002
0.9697
0.94233
0.91887
0.90323
0.8915
0.87586
0.86119
0.84751
0.83578
0.82502
0.81329
0.80156
0.78788
0.77419
0.76344
0.75953
0.76833
0.79179
0.83675
0.90811
1.0068
1.13
1.2727
1.4272
1.5816
1.7273
1.8592
1.9746
2.0606
2.1222
2.1711
2.2063
2.2268
2.2356
2.2356
2.2336
2.2326
2.2326
2.2356
2.2414
2.2483
2.2522
2.2522
2.2522
2.2512
2.2454
2.2317
2.2111
2.1818
2.1417
2.0938
2.0411
1.9834
1.9316
1.8817
1.827
1.7713
1.7155
1.6618
1.609
1.5591
1.5132
1.4721
1.4399
1.4164
1.4047
1.4037
1.4115
1.4282
1.4516
1.479
1.5054
1.5269
1.5376
1.5367
1.5249
1.5034
1.4731
1.4438
1.4164
1.3832
1.348
1.3128
1.2815
1.2542
1.2326
1.218
1.2092
1.2072
1.2102
1.218
1.2297
1.2414
1.2522
1.261
1.2678
1.2708
1.2727
1.2727
1.2708
1.2678
1.263
1.2561
1.2522
1.2493
1.2444
1.2414
1.2395
1.2405
1.2463
1.2561
1.2688
1.2825
1.2962
1.3079
1.3177
1.3255
1.3304
1.3324
1.3314
1.3284
1.3245
1.3226
1.3245
1.3304
1.3451
1.3744
1.4203
1.4731
1.5376
1.6276
1.739
1.8651
1.999
2.1339
2.263
2.3832
2.4917
2.5855
2.6637
2.7195
2.7595
2.7986
2.8309
2.8563
2.8749
2.8847
2.8886
2.8866
2.8788
2.8671
2.8514
2.8338
2.8143
2.7898
2.7615
2.7273
2.6882
2.6422
2.5885
2.5288
2.4673
2.4057
2.3451
2.2884
2.2405
2.2014
2.1662
2.1359
2.1114
2.0929
2.0772
2.0655
2.0587
2.0547
2.0528
2.0518
2.0518
2.0508
2.0469
2.0411
2.0342
2.0264
2.0186
2.0108
2
1.9863
2.0137
2.0616
2.0782
2.0802
2.0753
2.0674
2.0577
2.0469
2.0362
2.0254
2.0137
2
1.9853
1.9697
1.9541
1.9394
1.9257
1.915
1.9062
1.8983
1.8915
1.8856
1.8817
1.8798
1.8788
1.8788
1.8788
1.8788
1.8788
1.8788
1.8768
1.8719
1.8661
1.8622
1.8583
1.8543
1.8495
1.8436
1.8358
1.826
1.8152
1.8065
1.7977
1.7879
1.7771
1.7674
1.7605
1.7615
1.7791
1.8192
1.8837
1.9756
2.0929
2.2082
2.3245
2.4633
2.6051
2.737
2.8534
2.9482
3.0215
3.0762
3.1153
3.1417
3.1593
3.1711
3.173
3.1691
3.1652
3.1584
3.1476
3.132
3.1105
3.085
3.0606
3.0381
3.0156
2.9922
2.9658
2.9394
2.913
2.8817
2.8436
2.7986
2.7419
2.6755
2.6002
2.52
2.4409
2.3675
2.303
2.2542
2.218
2.1906
2.173
2.1632
2.1584
2.1554
2.1535
2.1496
2.1437
2.1359
2.1251
2.1134
2.0997
2.0821
2.0616
2.0371
2.0117
1.9873
1.9609
1.9335
1.9071
1.8807
1.8543
1.828
1.8035
1.7801
1.7527
1.7263
1.7019
1.6774
1.6549
1.6364
1.6227
1.6158
1.6129
1.6149
1.6207
1.6276
1.6364
1.6491
1.6628
1.6764
1.6882
1.696
1.6979
1.694
1.6852
1.6735
1.6598
1.6481
1.6383
1.6295
1.6237
1.6188
1.6149
1.6119
1.609
1.6061
1.6012
1.5963
1.5914
1.5904
1.5953
1.609
1.6373
1.6852
1.7537
1.8426
1.9511
2.0743
2.2043
2.3314
2.4477
2.5376
2.6061
2.6676
2.7195
2.7605
2.7879
2.8065
2.8182
2.8231
2.8221
2.8172
2.8084
2.7947
2.7771
2.7546
2.7302
2.7048
2.6813
2.6579
2.6334
2.607
2.5767
2.5415
2.5015
2.4536
2.4047
2.3548
2.2972
2.2346
2.1701
2.1056
2.042
1.9834
1.9306
1.8837
1.8446
1.8123
1.7859
1.7664
1.7517
1.738
1.7243
1.7097
1.694
1.6764
1.6598
1.6442
1.6305
1.6197
1.6129
1.61
1.608
1.6051
1.6002
1.5914
1.5806
1.5679
1.5543
1.5415
1.5298
1.5191
1.5112
1.5044
1.4995
1.4966
1.4907
1.4858
1.4819
1.48
1.479
1.479
1.479
1.48
1.4809
1.4819
1.4829
1.4819
1.478
1.4702
1.4585
1.4457
1.4321
1.4194
1.4086
1.3998
1.392
1.3861
1.3812
1.3803
1.3803
1.3783
1.2815
1.1378
1.0635
1.0235
0.99902
0.98338
0.97556
0.97752
0.99022
1.0117
1.0489
1.1095
1.1955
1.305
1.434
1.5767
1.7243
1.869
2.0039
2.1251
2.2307
2.3167
2.3763
2.4184
2.4516
2.4741
2.4848
2.4888
2.4858
2.478
2.4682
2.4575
2.4487
2.4389
2.4252
2.4066
2.3832
2.3529
2.3157
2.2698
2.2151
2.1525
2.0841
2.0108
1.9355
1.8612
1.7879
1.7263
1.6755
1.6246
1.5767
1.5357
1.4995
1.4682
1.4438
1.4282
1.4184
1.4125
1.4096
1.4076
1.4066
1.4066
1.4066
1.4066
1.4037
1.3978
1.391
1.3832
1.3754
1.3675
1.3617
1.3587
1.3578
1.3587
1.3587
1.3578
1.3539
1.348
1.3382
1.3255
1.3109
1.2962
1.2825
1.2688
1.26
1.2532
1.2434
1.2346
1.2278
1.2229
1.2199
1.2209
1.2229
1.2219
1.2199
1.217
1.2131
1.2111
1.2102
1.2072
1.2063
1.2063
1.2063
1.2053
1.2033
1.1975
1.1877
1.173
1.1564
1.1437
1.1329
1.1202
1.1085
1.1007
1.0997
1.1124
1.1417
1.1916
1.2669
1.3685
1.4946
1.6383
1.7703
1.8944
2.0313
2.1662
2.2903
2.3988
2.4897
2.565
2.6256
2.6706
2.7019
2.7204
2.7243
2.7204
2.7165
2.7107
2.7038
2.696
2.6862
2.6716
2.65
2.6217
2.5865
2.5435
2.4976
2.4487
2.39
2.3226
2.2483
2.1701
2.0909
2.0117
1.9345
1.8602
1.7937
1.7351
1.6852
1.6461
1.6139
1.5836
1.5562
1.5327
1.5103
1.4868
1.4604
1.433
1.4086
1.391
1.3842
1.3871
1.3959
1.4076
1.4164
1.4154
1.4027
1.3783
1.3441
1.304
1.261
1.216
1.1701
1.1232
1.0831
1.0479
1.0098
0.97165
0.93646
0.90518
0.87683
0.84848
0.81525
0.77517
0.7263
0.67058
0.62659
0.59238
0.56109
0.54057
0.53666
0.54545
0.55914
0.5738
0.58553
0.59238
0.59335
0.59238
0.59238
0.59922
0.6129
0.63636
0.67937
0.7478
0.84555
0.9697
1.1134
1.2698
1.4291
1.5806
1.7175
1.825
1.9101
1.9902
2.0577
2.1124
2.1554
2.1877
2.2102
2.2248
2.2317
2.2326
2.2287
2.219
2.2033
2.1828
2.1554
2.1202
2.0753
2.0205
1.9589
1.8915
1.8211
1.7478
1.6725
1.5943
1.5259
1.4633
1.393
1.3196
1.2483
1.1828
1.1241
1.0762
1.0391
1.0117
1.1036
1.2581
1.3343
1.3734
1.3969
1.4086
1.4135
1.4154
1.4145
1.4115
1.4047
1.3959
1.3861
1.3734
1.3558
1.3421
1.3294
1.3118
1.2913
1.2688
1.2454
1.2229
1.2033
1.1867
1.173
1.1603
1.1476
1.1339
1.1241
1.1173
1.1075
1.0978
1.089
1.0821
1.0772
1.0762
1.0782
1.0831
1.088
1.088
1.088
1.0841
1.0694
1.0479
1.0225
0.99804
0.9824
0.97849
0.98631
1.0078
1.0391
1.0762
1.1153
1.1525
1.1857
1.2141
1.2356
1.2512
1.262
1.2698
1.2776
1.2874
1.3021
1.3187
1.3333
1.348
1.3607
1.3705
1.3783
1.392
1.4164
1.4604
1.5298
1.6266
1.7488
1.8944
2.0596
2.2366
2.393
2.5357
2.6891
2.8397
2.9785
3.1017
3.2092
3.3021
3.3832
3.4526
3.5112
3.5582
3.5836
3.5924
3.5943
3.5885
3.5748
3.5552
3.5318
3.5054
3.4741
3.437
3.39
3.3343
3.2757
3.2121
3.1398
3.0626
2.9824
2.9013
2.8221
2.7449
2.6725
2.6051
2.5406
2.479
2.4194
2.3666
2.3187
2.2708
2.2297
2.1994
2.1818
2.175
2.173
2.172
2.1701
2.1642
2.1554
2.1466
2.1369
2.1281
2.1183
2.1085
2.0997
2.0929
2.088
2.085
2.087
2.0958
2.1114
2.132
2.1486
2.1623
2.176
2.1867
2.1916
2.1896
2.1799
2.1623
2.1359
2.0997
2.0557
2.0068
1.9648
1.9296
1.8954
1.8651
1.8387
1.8172
1.7957
1.7703
1.737
1.694
1.6393
1.5738
1.4995
1.4311
1.3636
1.2796
1.1848
1.0802
0.96774
0.85142
0.73803
0.63539
0.54839
0.48583
0.45357
0.45357
0.48485
0.54448
0.63539
0.75562
0.90323
1.0733
1.259
1.4497
1.6383
1.8192
1.9873
2.1369
2.2532
2.346
2.4379
2.521
2.5914
2.652
2.7019
2.7419
2.7752
2.8055
2.8328
2.8563
2.87
1.5582
1.5445
1.5357
1.5288
1.5249
1.521
1.5181
1.5152
1.5112
1.5054
1.4956
1.4839
1.4712
1.4585
1.4477
1.4379
1.4282
1.4184
1.4096
1.4027
1.3949
1.3832
1.3695
1.3558
1.3431
1.3314
1.3187
1.3069
1.2952
1.2835
1.2717
1.2639
1.2571
1.2493
1.2434
1.2375
1.2326
1.2278
1.2229
1.2199
1.218
1.217
1.217
1.219
1.2209
1.2199
1.218
1.217
1.2151
1.2121
1.2092
1.2082
1.2072
1.2072
1.2082
1.2082
1.2082
1.2082
1.2063
1.2053
1.2072
1.2141
1.2317
1.263
1.3157
1.3949
1.4995
1.6256
1.7449
1.8612
1.9932
2.1241
2.2454
2.348
2.4291
2.4917
2.5367
2.566
2.5836
2.5904
2.5894
2.5806
2.5689
2.5543
2.5386
2.5191
2.4956
2.4702
2.4418
2.4096
2.3724
2.3324
2.2884
2.2444
2.1994
2.1466
2.088
2.0244
1.957
1.8886
1.8221
1.7605
1.7028
1.652
1.6109
1.5777
1.5533
1.5357
1.52
1.5054
1.4907
1.477
1.4643
1.4526
1.4448
1.4389
1.4311
1.4223
1.4164
1.4106
1.4027
1.3939
1.3822
1.3695
1.3558
1.3421
1.3294
1.3177
1.3069
1.2972
1.2854
1.2766
1.2688
1.2571
1.2444
1.2326
1.2209
1.2092
1.1984
1.1887
1.1789
1.1711
1.1632
1.1584
1.1574
1.1574
1.1574
1.1574
1.1574
1.1574
1.1574
1.1574
1.1554
1.1525
1.1486
1.1447
1.1437
1.1476
1.1564
1.176
1.2131
1.2727
1.3568
1.4624
1.5836
1.7146
1.8456
1.9697
2.0684
2.1447
2.2141
2.2698
2.3109
2.3372
2.35
2.3519
2.3451
2.3314
2.3118
2.2884
2.263
2.2375
2.2102
2.1828
2.1554
2.1251
2.089
2.0469
1.998
1.9423
1.8817
1.8152
1.7449
1.6823
1.6256
1.567
1.5103
1.4585
1.4145
1.3793
1.3548
1.3392
1.3304
1.3284
1.3324
1.3382
1.3451
1.3509
1.3548
1.3578
1.3607
1.3627
1.3617
1.3587
1.3548
1.35
1.3431
1.3353
1.3284
1.3226
1.3177
1.3128
1.3079
1.305
1.3011
1.2962
1.2913
1.2874
1.2815
1.2757
1.2688
1.2414
1.2043
1.1828
1.1681
1.1584
1.1496
1.1427
1.1339
1.1251
1.1173
1.1105
1.1036
1.1007
1.0987
1.0948
1.0899
1.0841
1.0782
1.0723
1.0665
1.0596
1.0538
1.0469
1.0411
1.0352
1.0323
1.0303
1.0283
1.0274
1.0283
1.0313
1.0342
1.0371
1.0391
1.0371
1.0332
1.0293
1.0293
1.0323
1.043
1.0733
1.131
1.2229
1.3558
1.5259
1.7204
1.9247
2.1281
2.3187
2.4692
2.5904
2.7058
2.8035
2.8768
2.9267
2.956
2.9707
2.9746
2.9717
2.9638
2.9521
2.9355
2.913
2.8866
2.8553
2.8231
2.7879
2.7468
2.6989
2.6481
2.5943
2.5327
2.4633
2.3861
2.3109
2.2336
2.1447
2.0518
1.958
1.8661
1.7771
1.697
1.6276
1.567
1.5181
1.479
1.4506
1.433
1.4242
1.4184
1.4135
1.4086
1.3998
1.3891
1.3773
1.3646
1.3509
1.3333
1.3128
1.2962
1.2805
1.261
1.2424
1.2239
1.2043
1.1857
1.1672
1.1476
1.129
1.1105
1.0919
1.0723
1.0587
1.0469
1.0332
1.0196
1.0098
1.0049
1.0029
1.002
1.0029
1.0049
1.0059
1.0059
1.0088
1.0127
1.0098
1.0049
1.0029
1.002
1.001
1.001
1.001
1.001
1.001
1.001
1.001
1.0039
1.0088
1.0108
1.0098
1.0068
1.0039
1.002
1.0078
1.0293
1.0743
1.1505
1.261
1.3803
1.5122
1.6794
1.8612
2.044
2.216
2.3675
2.4956
2.5973
2.6735
2.7253
2.7566
2.7703
2.7703
2.7615
2.7478
2.7312
2.7116
2.6882
2.6608
2.6295
2.5953
2.5562
2.5112
2.4624
2.4135
2.3646
2.305
2.2356
2.1574
2.0694
1.9736
1.8729
1.7761
1.6852
1.6012
1.5239
1.4585
1.4115
1.3773
1.348
1.3245
1.3099
1.303
1.2991
1.2972
1.2981
1.3001
1.3011
1.3021
1.304
1.306
1.3069
1.3079
1.3069
1.303
1.2962
1.2864
1.2757
1.2639
1.2512
1.2385
1.2297
1.2248
1.2209
1.216
1.2102
1.2043
1.1984
1.1926
1.1857
1.1799
1.173
1.1672
1.1603
1.1574
1.1554
1.1515
1.1466
1.1408
1.1349
1.131
1.129
1.1261
1.1241
1.1232
1.1202
1.1153
1.1124
1.1114
1.1075
1.1056
1.1046
1.1026
1.0997
1.0958
1.087
1.0762
1.0684
1.0655
1.0733
1.0978
1.1466
1.2258
1.3392
1.4839
1.654
1.8416
2.0332
2.2151
2.3773
2.5152
2.6246
2.6989
2.7468
2.782
2.8025
2.8094
2.8055
2.7937
2.7791
2.7586
2.7341
2.7077
2.6784
2.6481
2.6158
2.5787
2.5347
2.4829
2.4233
2.3578
2.2854
2.2063
2.1202
2.0303
1.9374
1.8563
1.782
1.7048
1.6315
1.564
1.5054
1.4575
1.4194
1.39
1.3695
1.3539
1.3451
1.3402
1.3382
1.3333
1.3245
1.3138
1.3021
1.2903
1.2766
1.262
1.2463
1.2307
1.217
1.2033
1.1935
1.1857
1.174
1.1593
1.1457
1.131
1.1163
1.1007
1.0841
1.0674
1.0508
1.0362
1.0264
1.0225
1.0225
1.0196
1.0166
1.0147
1.0108
1.0059
1.0029
1.002
1.001
1.001
1.001
1.0039
1.0088
1.0108
1.0117
1.0127
1.0108
1.0068
1.0039
1.002
1.001
1.001
1.001
1.001
1.0039
1.0068
1.0049
1.0029
1.002
1.0059
1.0215
1.0567
1.1183
1.2141
1.3451
1.5034
1.6549
1.8025
1.9658
2.129
2.2786
2.4066
2.5103
2.5875
2.6422
2.6774
2.697
2.7019
2.6931
2.6745
2.6491
2.6207
2.5894
2.5543
2.5181
2.4809
2.4418
2.3988
2.35
2.2942
2.2297
2.1672
2.1056
2.0352
1.956
1.8719
1.7908
1.7155
1.6491
1.5924
1.5445
1.5064
1.4761
1.4536
1.4389
1.4301
1.4242
1.4213
1.4203
1.4174
1.4135
1.4066
1.3969
1.3851
1.3734
1.3607
1.3519
1.3441
1.3333
1.3206
1.306
1.2923
1.2776
1.261
1.2444
1.2317
1.2219
1.2141
1.2053
1.1975
1.1926
1.1867
1.1808
1.174
1.1681
1.1613
1.1515
1.1408
1.132
1.1251
1.1183
1.1144
1.1124
1.1085
1.1036
1.0978
1.0919
1.086
1.0792
1.0743
1.0704
1.0684
1.0674
1.0674
1.0704
1.0753
1.0772
1.0782
1.0792
1.0762
1.0714
1.0655
1.0596
1.0587
1.0694
1.0997
1.1466
1.216
1.3216
1.4594
1.6256
1.8094
2
2.1848
2.3548
2.5034
2.6276
2.7243
2.7947
2.8358
2.8583
2.8729
2.8788
2.8768
2.869
2.8592
2.8465
2.8289
2.8084
2.7859
2.7586
2.7273
2.6911
2.65
2.6022
2.5464
2.4819
2.4106
2.3304
2.2424
2.1496
2.0538
1.957
1.8719
1.7967
1.7185
1.6432
1.5738
1.5132
1.4663
1.4311
1.4057
1.3861
1.3724
1.3617
1.3519
1.3451
1.347
1.3519
1.3509
1.347
1.3412
1.3324
1.3206
1.3079
1.2972
1.2884
1.2825
1.2805
1.2815
1.2854
1.2991
1.3265
1.3666
1.4203
1.4858
1.5582
1.6344
1.7097
1.7771
1.8348
1.8759
1.9013
1.915
1.914
1.8964
1.8641
1.8201
1.7644
1.6999
1.6305
1.5591
1.4878
1.4291
1.3754
1.3187
1.2688
1.2287
1.1965
1.172
1.1544
1.1457
1.1447
1.1515
1.1662
1.1887
1.2141
1.2385
1.2669
1.2981
1.3275
1.3519
1.3705
1.3832
1.39
1.393
1.3949
1.3959
1.3978
1.4008
1.4018
1.3988
1.391
1.3822
1.3744
1.3656
1.3539
1.3421
1.3294
1.3157
1.3021
1.2923
1.2845
1.2737
1.261
1.2493
1.2405
1.2326
1.2258
1.219
1.2121
1.2053
1.1984
1.1945
1.1926
1.1887
1.1848
1.1828
1.1818
1.1818
1.1799
1.176
1.1701
1.1642
1.1574
1.1505
1.1476
1.1457
1.1417
1.1359
1.1329
1.132
1.13
1.129
1.1271
1.1241
1.1232
1.1202
1.1193
1.1183
1.1163
1.1153
1.1134
1.1085
1.1026
1.0968
1.0899
1.0831
1.0772
1.0704
1.0635
1.0606
1.0587
1.0567
1.0557
1.0547
1.0547
1.0547
1.0547
1.0547
1.0557
1.0587
1.0616
1.0665
1.0714
1.0743
1.0723
1.0684
1.0665
1.0674
1.0694
1.0714
1.0714
1.0674
1.0645
1.0645
1.0714
1.0909
1.1349
1.2121
1.3314
1.4966
1.7028
1.9384
2.1896
2.4409
2.6784
2.8895
3.0479
3.1672
3.2776
3.3695
3.4389
3.4858
3.5122
3.5239
3.5259
3.52
3.5054
3.4819
3.4497
3.4096
3.3646
3.3167
3.2649
3.2053
3.1388
3.0645
2.9824
2.8925
2.7957
2.6921
2.5826
2.4829
2.3891
2.2884
2.1896
2.0968
2.0098
1.9345
1.8729
1.826
1.7889
1.7605
1.741
1.7263
1.7155
1.7097
1.7038
1.694
1.6823
1.6696
1.6588
1.6471
1.6305
1.6129
1.5934
1.5738
1.5572
1.5455
1.5327
1.5181
1.5044
1.4888
1.4731
1.4594
1.4477
1.436
1.4233
1.4096
1.3998
1.39
1.3763
1.3627
1.349
1.3363
1.3226
1.3109
1.3001
1.2884
1.2757
1.262
1.2502
1.2424
1.2385
1.2366
1.2356
1.2356
1.2356
1.2336
1.2297
1.2239
1.218
1.2131
1.2111
1.2131
1.218
1.218
1.2151
1.2102
1.2063
1.2053
1.2131
1.2131
1.219
1.2649
1.347
1.4614
1.5777
1.6999
1.8456
2
2.1486
2.2825
2.3969
2.4888
2.5611
2.6139
2.6461
2.6637
2.6676
2.6628
2.6559
2.6442
2.6266
2.6031
2.5748
2.5415
2.5044
2.4673
2.4272
2.3842
2.3382
2.2913
2.2405
2.1808
2.1144
2.044
1.9677
1.8876
1.8104
1.737
1.6686
1.6031
1.5445
1.5005
1.4663
1.435
1.4066
1.3832
1.3666
1.3568
1.35
1.347
1.3451
1.3421
1.3372
1.3324
1.3284
1.3236
1.3187
1.3138
1.3069
1.3011
1.2942
1.2854
1.2757
1.2649
1.2542
1.2463
1.2424
1.2375
1.2326
1.2268
1.219
1.2092
1.1994
1.1887
1.1779
1.1672
1.1584
1.1505
1.1447
1.1417
1.1398
1.1359
1.132
1.1271
1.1232
1.1212
1.1193
1.1163
1.1153
1.1163
1.1193
1.1241
1.131
1.1369
1.1417
1.1437
1.1437
1.1408
1.1369
1.1349
1.1369
1.1427
1.1603
1.1994
1.2512
1.3236
1.4321
1.5728
1.7361
1.911
2.086
2.2483
2.393
2.5161
2.6149
2.6921
2.74
2.7674
2.7879
2.7996
2.8045
2.8016
2.7918
2.7771
2.7576
2.7351
2.7067
2.6755
2.6422
2.6061
2.567
2.523
2.4721
2.4135
2.349
2.2786
2.2023
2.1212
2.0362
1.9501
1.868
1.8006
1.7419
1.6872
1.6393
1.5992
1.567
1.5406
1.5191
1.5024
1.4907
1.4819
1.4751
1.4692
1.4643
1.4604
1.4536
1.4418
1.4282
1.4125
1.3969
1.3803
1.3617
1.3431
1.3245
1.3069
1.2933
1.2815
1.2708
1.2571
1.2424
1.2278
1.2131
1.1955
1.176
1.1593
1.1486
1.1408
1.1339
1.131
1.129
1.1251
1.1212
1.1163
1.1114
1.1056
1.1007
1.0948
1.089
1.0841
1.0802
1.0792
1.0792
1.0792
1.0792
1.0762
1.0723
1.0674
1.0635
1.0616
1.0596
1.0557
1.0508
1.0489
1.0489
1.0528
1.0694
1.1056
1.1662
1.26
1.3851
1.5357
1.7028
1.8759
2.042
2.1926
2.3089
2.3969
2.4761
2.5396
2.5865
2.6168
2.6315
2.6354
2.6305
2.6188
2.6022
2.5826
2.5601
2.5347
2.5054
2.4721
2.4321
2.3861
2.3333
2.2747
2.2121
2.1427
2.0674
1.9873
1.9052
1.8338
1.7664
1.695
1.6256
1.563
1.5103
1.4663
1.4311
1.4047
1.3881
1.3763
1.3685
1.3627
1.3587
1.3529
1.347
1.3402
1.3314
1.3206
1.3109
1.2991
1.2874
1.2757
1.262
1.2473
1.2375
1.2287
1.217
1.2023
1.1857
1.1662
1.1457
1.1261
1.1075
1.089
1.0704
1.0538
1.044
1.0371
1.0283
1.0186
1.0108
1.0039
0.99804
0.9912
0.98534
0.97556
0.96383
0.95112
0.94037
0.93353
0.92864
0.92473
0.92278
0.9218
0.9218
0.9218
0.92278
0.92473
0.92571
0.92766
0.93157
0.93744
0.94135
0.9433
0.9433
0.9433
0.94721
0.96481
1.0059
1.0762
1.1808
1.3196
1.4936
1.6901
1.868
2.0323
2.2092
2.3793
2.5298
2.6559
2.7556
2.8309
2.8856
2.9208
2.9384
2.9404
2.9296
2.9091
2.8817
2.8495
2.8152
2.7781
2.737
2.6931
2.6471
2.5943
2.5357
2.4702
2.3959
2.3236
2.2512
2.1701
2.0841
1.9961
1.913
1.8328
1.7586
1.694
1.6403
1.5982
1.5679
1.5484
1.5337
1.521
1.5103
1.5015
1.4946
1.4878
1.4809
1.4751
1.4653
1.4536
1.4409
1.4272
1.4145
1.4018
1.3861
1.3695
1.3519
1.3333
1.3167
1.3021
1.2893
1.2766
1.262
1.2473
1.2375
1.2287
1.219
1.2072
1.1945
1.1789
1.1036
1.1075
1.1202
1.1525
1.2131
1.3069
1.4135
1.5367
1.6999
1.8866
2.0841
2.2776
2.4555
2.6109
2.739
2.8397
2.9159
2.9697
3.001
3.0117
3.0108
3.0059
2.9961
2.9814
2.9619
2.9374
2.9101
2.8778
2.8416
2.8035
2.7605
2.7126
2.6608
2.6012
2.5337
2.4585
2.3763
2.2864
2.1906
2.0938
1.998
1.9042
1.8143
1.7331
1.6676
1.6149
1.566
1.523
1.4878
1.4594
1.437
1.4174
1.4018
1.3891
1.3783
1.3685
1.3607
1.3519
1.3412
1.3284
1.3148
1.3011
1.2884
1.2757
1.2639
1.2512
1.2395
1.2258
1.2111
1.2004
1.1926
1.1818
1.1691
1.1535
1.1378
1.1241
1.1124
1.1007
1.089
1.0782
1.0665
1.0596
1.0557
1.0479
1.0381
1.0303
1.0235
1.0166
1.0098
1.0039
0.99804
0.99316
0.98925
0.98436
0.98143
0.98338
0.98436
0.98338
0.9824
0.9824
0.9824
0.98045
0.99609
1.0205
1.0293
1.0342
1.0411
1.0547
1.0831
1.1329
1.2121
1.3255
1.4721
1.6432
1.8289
2.0166
2.1926
2.3509
2.4858
2.5846
2.654
2.7136
2.7566
2.781
2.7918
2.7908
2.7801
2.7615
2.7361
2.7067
2.6725
2.6373
2.6002
2.5601
2.5152
2.4653
2.4086
2.3441
2.2727
2.1965
2.1163
2.0323
1.9482
1.8671
1.7986
1.739
1.6764
1.6207
1.5758
1.5425
1.5171
1.4985
1.4878
1.4819
1.479
1.479
1.4819
1.4868
1.4888
1.4897
1.4907
1.4897
1.4878
1.4839
1.479
1.4721
1.4614
1.4477
1.4321
1.4184
1.4057
1.39
1.3754
1.3627
1.35
1.3382
1.3265
1.3128
1.2991
1.2864
1.2747
1.2659
1.26
1.2522
1.2444
1.2375
1.2297
1.2199
1.2092
1.1994
1.1916
1.1848
1.1818
1.1818
1.1828
1.1828
1.1818
1.1828
1.1848
1.1857
1.1857
1.1857
1.1857
1.1857
1.1857
1.1848
1.1838
1.1838
1.1808
1.1779
1.1808
1.1994
1.2454
1.3245
1.4389
1.5875
1.7654
1.9619
2.1613
2.3275
2.4692
2.609
2.7331
2.8358
2.914
2.9707
3.0098
3.0323
3.0401
3.0371
3.0254
3.0059
2.9853
2.9629
2.9374
2.9101
2.8807
2.8485
2.8133
2.7742
2.7283
2.6764
2.6168
2.5552
2.4897
2.4115
2.3265
2.2356
2.1427
2.0499
1.9609
1.8788
1.8035
1.737
1.6804
1.6334
1.5982
1.5738
1.5543
1.5386
1.5269
1.5161
1.5054
1.4956
1.4848
1.4731
1.4614
1.4477
1.435
1.4223
1.4057
1.3871
1.3695
1.3539
1.3402
1.3245
1.3079
1.2903
1.2717
1.2522
1.2326
1.217
1.2043
1.1906
1.1789
1.1701
1.1623
1.1554
1.1496
1.1437
1.1378
1.132
1.1241
1.1173
1.1124
1.1075
1.0987
1.089
1.0811
1.0743
1.0684
1.0626
1.0567
1.0518
1.0499
1.0489
1.0499
1.0528
1.0547
1.0528
1.0489
1.044
1.0381
1.0342
1.0352
1.0489
1.086
1.1554
1.2405
1.348
1.4956
1.6696
1.8573
2.045
2.2219
2.3793
2.5122
2.6178
2.6999
2.7576
2.7957
2.8133
2.8162
2.8133
2.8065
2.7937
2.7761
2.7527
2.7234
2.6901
2.653
2.6139
2.5709
2.5269
2.48
2.4242
2.3607
2.2893
2.2102
2.1241
2.0352
1.9443
1.8553
1.7703
1.6882
1.6129
1.5533
1.5064
1.4555
1.4086
1.3763
1.3558
1.3451
1.3392
1.3363
1.3353
1.3343
1.3343
1.3343
1.3314
1.3236
1.3138
1.303
1.2923
1.2796
1.2649
1.2473
1.2268
1.2053
1.1848
1.1672
1.1574
1.1525
1.1466
1.1398
1.13
1.1202
1.1095
1.0968
1.0821
1.0674
1.0538
1.043
1.0371
1.0342
1.0303
1.0254
1.0205
1.0147
1.0088
1.0029
0.99609
0.98827
0.98338
0.98045
0.97947
0.98045
0.98045
0.97947
0.98045
0.9824
0.98436
0.98827
0.99316
0.99707
0.99902
1.001
1.0068
1.0176
1.042
1.087
1.1584
1.263
1.4037
1.5758
1.7683
1.9687
2.1672
2.3509
2.5122
2.6481
2.7429
2.8094
2.8641
2.9022
2.9257
2.9345
2.9335
2.9257
2.9101
2.8886
2.8622
2.8299
2.7947
2.7576
2.7155
2.6706
2.6227
2.5699
2.5093
2.4399
2.3636
2.2815
2.1926
2.0997
2.0156
1.9394
1.8583
1.7791
1.7077
1.6442
1.5914
1.5513
1.521
1.4985
1.4829
1.4731
1.4653
1.4594
1.4555
1.4477
1.4379
1.4272
1.4135
1.3978
1.3803
1.3607
1.3431
1.3255
1.3079
1.2952
1.2825
1.2659
1.2493
1.2307
1.2131
1.1984
1.1857
1.173
1.1613
1.1486
1.1349
1.1222
1.1134
1.1056
1.0978
1.0909
1.0831
1.0733
1.0645
1.0567
1.0469
1.0371
1.0293
1.0225
1.0186
1.0166
1.0127
1.0078
1.0039
1.0039
1.0068
1.0108
1.0147
1.0166
1.0156
1.0127
1.0078
1.0039
1.001
0.99609
0.99707
1.0127
1.0508
1.1173
1.218
1.3529
1.5171
1.7028
1.8964
2.0616
2.2043
2.35
2.4848
2.6002
2.6891
2.7537
2.7986
2.827
2.8426
2.8475
2.8426
2.8319
2.8133
2.7898
2.7664
2.7429
2.7204
2.694
2.6637
2.6305
2.5904
2.5435
2.4888
2.4242
2.3587
2.2913
2.2121
2.1251
2.0342
1.9433
1.8543
1.7693
1.6911
1.6207
1.5601
1.5112
1.4741
1.4477
1.4311
1.4184
1.4086
1.3998
1.391
1.3812
1.3675
1.3529
1.3402
1.3284
1.3167
1.3079
1.3001
1.2913
1.2796
1.263
1.2463
1.2326
1.2199
1.2082
1.1935
1.1769
1.1632
1.1505
1.1417
1.1329
1.1212
1.1085
1.0958
1.087
1.0802
1.0733
1.0674
1.0616
1.0557
1.0499
1.045
1.0401
1.0332
1.0274
1.0215
1.0156
1.0098
1.0039
0.99804
0.99902
1.0039
1.0068
1.0098
1.0137
1.0176
1.0166
1.0127
1.0078
1.0039
1.002
1.0039
1.0166
1.0508
1.1144
1.2102
1.3177
1.4428
1.6051
1.7898
1.9795
2.1603
2.3216
2.4565
2.563
2.6452
2.7058
2.7458
2.7674
2.7713
2.7644
2.7517
2.7341
2.7136
2.6911
2.6676
2.6413
2.6129
2.5816
2.5445
2.5005
2.4555
2.4066
2.35
2.2874
2.2151
2.1339
2.045
1.9511
1.8563
1.7625
1.6716
1.5904
1.521
1.4682
1.4282
1.392
1.3636
1.3421
1.3255
1.3109
1.2981
1.2874
1.2776
1.2669
1.2561
1.2473
1.2405
1.2297
1.217
1.2033
1.1906
1.1808
1.173
1.1642
1.1525
1.1388
1.1232
1.1114
1.1007
1.087
1.0714
1.0547
1.0381
1.0225
1.0088
0.99902
0.99413
0.9912
0.98827
0.98436
0.98338
0.98338
0.97849
0.97361
0.9697
0.96579
0.9609
0.95699
0.95503
0.95406
0.95406
0.95406
0.95699
0.9609
0.96285
0.96383
0.96579
0.96872
0.97165
0.97556
0.97947
0.98143
0.98338
0.98925
0.99804
1.0108
1.0362
1.0831
1.1593
1.2669
1.4066
1.5738
1.7595
1.9511
2.1369
2.3089
2.4585
2.5679
2.6491
2.7204
2.7732
2.8084
2.8309
2.8416
2.8446
2.8397
2.8289
2.8133
2.7928
2.7664
2.7351
2.7019
2.6667
2.6276
2.5826
2.5327
2.4761
2.4115
2.3392
2.261
2.1769
2.088
2.0088
1.9394
1.8661
1.7937
1.7253
1.6647
1.6129
1.5709
1.5406
1.5191
1.5054
1.4956
1.4868
1.479
1.4721
1.4643
1.4545
1.4409
1.4252
1.4096
1.393
1.3773
1.3617
1.3441
1.3265
1.3148
1.303
1.2884
1.2727
1.2561
1.2385
1.2199
1.2033
1.1877
1.1711
1.1544
1.1388
1.1251
1.1163
1.1124
1.1075
1.1017
1.0958
1.0899
1.0841
1.0782
1.0723
1.0665
1.0606
1.0547
1.0518
1.0508
1.0469
1.043
1.0381
1.0323
1.0264
1.0205
1.0147
1.0088
1.0049
1.0029
1.002
1.001
0.99902
0.99707
0.99707
1.002
1.0186
1.0606
1.132
1.2346
1.3685
1.5288
1.7038
1.8592
1.999
2.1466
2.2825
2.3998
2.4966
2.5699
2.6227
2.6559
2.6745
2.6823
2.6813
2.6725
2.6549
2.6315
2.6051
2.5777
2.5464
2.5103
2.4731
2.434
2.39
2.3402
2.2835
2.217
2.1525
2.085
2.0059
1.9423
1.8856
1.8133
1.7351
1.6579
1.5865
1.521
1.4653
1.4223
1.392
1.3734
1.3627
1.3558
1.3529
1.3509
1.35
1.35
1.35
1.348
1.3421
1.3333
1.3216
1.3099
1.2972
1.2805
1.263
1.2493
1.2375
1.2258
1.2121
1.1965
1.1799
1.1623
1.1437
1.1251
1.1114
1.0997
1.087
1.0743
1.0635
1.0538
1.042
1.0323
1.0235
1.0176
1.0147
1.0137
1.0156
1.0205
1.0225
1.0235
1.0225
1.0186
1.0156
1.0137
1.0127
1.0127
1.0127
1.0127
1.0156
1.0205
1.0225
1.0235
1.0244
1.0244
1.0244
1.0244
1.0244
1.0293
1.045
1.0811
1.1447
1.2219
1.3206
1.4614
1.6344
1.828
2.0303
2.2268
2.4057
2.5611
2.6911
2.7957
2.8739
2.9189
2.9413
2.9541
2.955
2.9462
2.9306
2.911
2.8886
2.8622
2.8309
2.7967
2.7595
2.7165
2.6706
2.6227
2.5699
2.5103
2.4418
2.3666
2.2845
2.1955
2.1036
2.0117
1.9238
1.8426
1.7771
1.7253
1.6774
1.6383
1.608
1.5846
1.566
1.5543
1.5455
1.5376
1.5308
1.5239
1.5181
1.5132
1.5073
1.4966
1.4829
1.4663
1.4506
1.437
1.4223
1.4037
1.3851
1.3666
1.347
1.3314
1.3177
1.3011
1.2835
1.2659
1.2512
1.2405
1.2317
1.2229
1.2121
1.2014
1.1896
1.176
1.1662
1.1584
1.1486
1.1398
1.1329
1.1261
1.1202
1.1134
1.1075
1.1017
1.0958
1.089
1.086
1.0841
1.0802
1.0753
1.0714
1.0684
1.0635
1.0577
1.0538
1.0518
1.0508
1.0499
1.0508
1.0577
1.0782
1.1202
1.1916
1.2962
1.4321
1.5982
1.7849
1.9824
2.1799
2.3636
2.5279
2.65
2.738
2.8162
2.8768
2.9179
2.9423
2.955
2.958
2.955
2.9472
2.9374
2.9267
2.912
2.8905
2.8631
2.8309
2.7977
2.7634
2.7234
2.6755
2.6197
2.5552
2.4809
2.3998
2.3118
2.2297
2.1505
2.0635
1.9765
1.8944
1.8201
1.7537
1.696
1.6491
1.6139
1.5885
1.5718
1.5601
1.5523
1.5474
1.5415
1.5357
1.5298
1.521
1.5103
1.4985
1.4839
1.4673
1.4506
1.4379
1.4321
1.4272
1.4184
1.4086
1.3969
1.3832
1.3675
1.3509
1.3343
1.3206
1.3069
1.2942
1.2815
1.2727
1.2649
1.2551
1.2454
1.2375
1.2307
1.2239
1.2141
1.2033
1.1916
1.1769
1.1652
1.1593
1.1564
1.1515
1.1466
1.1408
1.1349
1.1329
1.1447
1.174
1.2278
1.3138
1.434
1.5591
1.694
1.8563
2.0303
2.2014
2.3587
2.4956
2.607
2.6931
2.7537
2.7918
2.8123
2.8192
2.8113
2.7947
2.7771
2.7595
2.74
2.7155
2.6862
2.651
2.6129
2.5718
2.5269
2.4761
2.4262
2.3744
2.3118
2.2405
2.1593
2.0723
1.9785
1.8798
1.784
1.694
1.6119
1.5396
1.48
1.4389
1.4106
1.3851
1.3646
1.348
1.3372
1.3314
1.3284
1.3275
1.3245
1.3187
1.3099
1.3021
1.2933
1.2786
1.26
1.2424
1.2278
1.2121
1.1965
1.1808
1.1642
1.1466
1.1281
1.1095
1.0958
1.0841
1.0684
1.0547
1.045
1.0352
1.0254
1.0176
1.0088
1.002
0.99511
0.98827
0.98631
0.98534
0.98338
0.9824
0.9824
0.9824
0.9824
0.9824
0.9824
0.9824
0.9824
0.9824
0.9824
0.98534
0.99022
0.99218
0.99316
0.99413
0.99609
0.99804
0.99902
1
1
1
1.0029
1.0127
1.0235
1.0303
1.0342
1.0362
1.0371
1.0391
1.0479
1.0723
1.1241
1.2092
1.3314
1.4927
1.654
1.8172
2.0108
2.2102
2.3988
2.567
2.7107
2.828
2.9179
2.9834
3.0264
3.0499
3.0538
3.045
3.0274
3.0049
2.9814
2.955
2.9247
2.8905
2.8514
2.8074
2.7586
2.7048
2.6432
2.5816
2.5161
2.4399
2.3558
2.2659
2.1701
2.0743
1.9804
1.8935
1.8152
1.7478
1.6931
1.6549
1.6295
1.609
1.5943
1.5836
1.5748
1.5679
1.5611
1.5543
1.5474
1.5415
1.5318
1.5181
1.5044
1.4897
1.4721
1.4536
1.436
1.4213
1.4066
1.3891
1.3724
1.3548
1.3372
1.3206
1.306
1.2942
1.2786
1.261
1.2444
1.2307
1.2199
1.2121
1.2043
1.1975
1.1916
1.1848
1.1789
1.176
1.174
1.1701
1.1652
1.1593
1.1535
1.1486
1.1447
1.1398
1.1339
1.1281
1.1222
1.1193
1.1193
1.1193
1.1212
1.1222
1.1193
1.1144
1.1085
1.1017
1.0899
1.0782
1.0733
1.0841
1.1075
1.1496
1.2219
1.3304
1.4731
1.6461
1.8387
2.0371
2.2268
2.3978
2.5464
2.6706
2.7576
2.8182
2.871
2.9091
2.9345
2.9492
2.956
2.957
2.9511
2.9384
2.9198
2.8983
2.8719
2.8397
2.8045
2.7664
2.7097
2.6413
2.5787
2.5161
2.4497
2.3754
2.2952
2.2092
2.1183
2.0371
1.9619
1.8827
1.8055
1.7341
1.6735
1.6256
1.5865
1.5552
1.5298
1.5103
1.4956
1.4868
1.48
1.4721
1.4633
1.4526
1.4418
1.4301
1.4184
1.4066
1.393
1.3773
1.3607
1.3451
1.3343
1.3255
1.3157
1.303
1.2874
1.2708
1.2551
1.2424
1.2336
1.2258
1.219
1.2131
1.2102
1.2072
1.1994
1.1906
1.1808
1.1701
1.1613
1.1544
1.1476
1.1427
1.1388
1.1369
1.1378
1.1408
1.1457
1.1496
1.1525
1.1554
1.1584
1.1603
1.1593
1.1574
1.1564
1.1544
1.1505
1.1486
1.1476
1.1447
1.1417
1.1417
1.1476
1.1652
1.2023
1.2659
1.3617
1.4897
1.6452
1.8201
1.9775
2.1202
2.2727
2.4154
2.5406
2.6442
2.7253
2.7869
2.828
2.8524
2.8641
2.8671
2.8592
2.8446
2.827
2.8065
2.781
2.7517
2.7224
2.6901
2.651
2.6061
2.5572
2.5015
2.436
2.3705
2.3001
2.217
2.1281
2.0362
1.9433
1.8534
1.7683
1.6901
1.6217
1.563
1.5142
1.478
1.4545
1.437
1.4252
1.4194
1.4145
1.4096
1.4018
1.3949
1.3891
1.3803
1.3695
1.3578
1.349
1.3421
1.3324
1.3206
1.304
1.2835
1.263
1.2434
1.2248
1.2063
1.1887
1.1711
1.1525
1.1388
1.129
1.1183
1.1075
1.0978
1.086
1.0733
1.0606
1.0489
1.0381
1.0283
1.0186
1.0137
1.0127
1.0098
1.0039
0.99804
0.99218
0.98534
0.98045
0.97849
0.97849
0.9824
0.98827
0.99902
1.0098
1.0186
1.0264
1.0332
1.0381
1.0401
1.043
1.0469
1.0547
1.0723
1.1075
1.1701
1.2483
1.347
1.4858
1.6549
1.8446
2.042
2.2336
2.4086
2.5601
2.6862
2.7849
2.8553
2.8954
2.914
2.9238
2.9238
2.9179
2.9091
2.8974
2.8807
2.8602
2.8348
2.8045
2.7713
2.737
2.6989
2.654
2.6031
2.5464
2.4829
2.4106
2.3314
2.2463
2.1574
2.0684
1.9834
1.9032
1.8368
1.7791
1.7234
1.6755
1.6364
1.607
1.5846
1.5689
1.5582
1.5494
1.5425
1.5357
1.5308
1.5269
1.5191
1.5064
1.4907
1.4741
1.4565
1.4409
1.4272
1.4135
1.4008
1.3891
1.3754
1.3646
1.3558
1.3451
1.3314
1.3138
1.2942
1.2747
1.2571
1.2434
1.2385
1.2532
1.2913
1.3392
1.4057
1.5034
1.6315
1.782
1.9453
2.1114
2.2669
2.4047
2.5191
2.608
2.6735
2.7185
2.741
2.7498
2.7507
2.737
2.7204
2.7038
2.6804
2.652
2.6197
2.5855
2.5464
2.5034
2.4604
2.4145
2.3597
2.2972
2.2258
2.1466
2.0606
1.9707
1.8798
1.7918
1.7107
1.6403
1.5806
1.5367
1.5044
1.477
1.4575
1.4448
1.4389
1.436
1.4321
1.4272
1.4203
1.4106
1.3998
1.392
1.3842
1.3744
1.3617
1.347
1.3304
1.3128
1.2952
1.2796
1.2688
1.261
1.2502
1.2375
1.2287
1.219
1.2053
1.1896
1.1711
1.1505
1.131
1.1124
1.0978
1.089
1.0841
1.0821
1.0811
1.0782
1.0743
1.0694
1.0616
1.0547
1.0518
1.0499
1.0489
1.0489
1.0489
1.0489
1.0489
1.0518
1.0577
1.0626
1.0645
1.0655
1.0665
1.0665
1.0665
1.0655
1.0635
1.0626
1.0616
1.0645
1.0684
1.0694
1.0684
1.0674
1.0674
1.0674
1.0674
1.0674
1.0674
1.0674
1.0655
1.0635
1.0655
1.0723
1.089
1.131
1.2082
1.3245
1.478
1.6628
1.869
2.0821
2.2874
2.477
2.6217
2.7312
2.8328
2.9189
2.9844
3.0303
3.0596
3.0743
3.0772
3.0714
3.0587
3.0401
3.0156
2.9883
2.9599
2.9286
2.8944
2.8563
2.8143
2.7527
2.6911
2.6432
2.5816
2.5064
2.4223
2.3402
2.26
2.172
2.086
2.0029
1.9257
1.8563
1.7977
1.7498
1.7116
1.6823
1.6618
1.6491
1.6413
1.6354
1.6295
1.6237
1.6178
1.61
1.5982
1.5836
1.567
1.5494
1.5318
1.5122
1.4946
1.48
1.4624
1.4438
1.4252
1.4076
1.392
1.3773
1.3607
1.3451
1.3304
1.3138
1.3001
1.2903
1.2776
1.2649
1.2522
1.2385
1.2258
1.2151
1.2063
1.1994
1.1926
1.1857
1.1799
1.1769
1.175
1.1711
1.1662
1.1603
1.1544
1.1486
1.1447
1.1437
1.1437
1.1437
1.1437
1.1437
1.1437
1.1408
1.1359
1.13
1.1241
1.1202
1.1193
1.1251
1.1447
1.1867
1.2551
1.3539
1.4643
1.5914
1.7546
1.9365
2.1222
2.3011
2.4653
2.607
2.7234
2.8152
2.8817
2.9257
2.9482
2.956
2.957
2.9511
2.9423
2.9286
2.9101
2.8886
2.8641
2.8348
2.8025
2.7664
2.7243
2.6774
2.6266
2.567
2.4995
2.4057
2.2952
2.1926
2.0938
1.9951
1.8983
1.8065
1.7214
1.654
1.5992
1.5484
1.5054
1.4702
1.4428
1.4233
1.4115
1.4057
1.3998
1.3881
1.3763
1.3675
1.3597
1.3519
1.3402
1.3284
1.3167
1.305
1.2933
1.2776
1.2581
1.2385
1.219
1.2004
1.1867
1.176
1.1613
1.1447
1.1281
1.1105
1.0938
1.0782
1.0616
1.0479
1.0362
1.0254
1.0176
1.0137
1.0117
1.0059
1
0.99707
0.99609
0.99511
0.99511
0.99511
0.99511
0.99511
0.99511
0.99804
1.001
0.99902
0.99707
0.99316
0.98827
0.98534
0.98436
0.98338
0.98436
0.98631
0.98729
0.98827
0.99316
1.0029
1.0166
1.0411
1.088
1.1632
1.2678
1.4018
1.5611
1.7361
1.9169
2.0938
2.2375
2.3509
2.4555
2.5435
2.6129
2.6628
2.694
2.7107
2.7165
2.7097
2.696
2.6774
2.653
2.6256
2.5963
2.5621
2.5259
2.4868
2.4428
2.3959
2.3441
2.2854
2.2199
2.1486
2.0714
2.002
1.9374
1.8671
1.7967
1.7283
1.6696
1.6227
1.5875
1.564
1.5494
1.5415
1.5406
1.5406
1.5406
1.5435
1.5474
1.5523
1.5582
1.564
1.5699
1.5728
1.5709
1.567
1.5621
1.5572
1.5533
1.5484
1.5415
1.5327
1.523
1.5132
1.5024
1.4888
1.4761
1.4633
1.4477
1.434
1.4242
1.4164
1.4115
1.4076
1.4018
1.3978
1.3939
1.3891
1.3851
1.3803
1.3754
1.3695
1.3607
1.3548
1.3519
1.349
1.348
1.347
1.347
1.347
1.347
1.347
1.347
1.347
1.3451
1.3441
1.3421
1.3382
1.3333
1.3245
1.3177
1.3138
1.3148
1.3275
1.3578
1.4115
1.4946
1.61
1.7322
1.8651
2.0293
2.2053
2.3773
2.5327
2.6676
2.7781
2.8631
2.9247
2.9677
2.9951
3.0059
3.0049
3.002
2.9961
2.9853
2.9707
2.9521
2.9277
2.8993
2.8651
2.826
2.7791
2.7263
2.6735
2.6188
2.5572
2.4888
2.4154
2.3372
2.2551
2.1711
2.0841
1.9971
1.914
1.8368
1.7742
1.7214
1.6706
1.6246
1.5855
1.5533
1.5288
1.5103
1.4995
1.4927
1.4897
1.4878
1.4839
1.4809
1.478
1.4731
1.4682
1.4604
1.4497
1.435
1.4184
1.3998
1.3793
1.3597
1.3441
1.3343
1.3314
1.3294
1.3284
1.3284
1.3255
1.3177
1.305
1.2864
1.2659
1.2454
1.2287
1.2151
1.2043
1.1945
1.1838
1.1769
1.174
1.174
1.175
1.174
1.1711
1.1662
1.1613
1.1554
1.1525
1.1515
1.1476
1.1417
1.1329
1.1251
1.1173
1.1056
1.0938
1.0841
1.0772
1.0802
1.1017
1.1388
1.1955
1.2845
1.4066
1.5562
1.7253
1.9042
2.0811
2.2483
2.3969
2.52
2.6168
2.6823
2.7253
2.7625
2.7947
2.8211
2.8397
2.8524
2.8612
2.869
2.8729
2.87
2.8631
2.8495
2.826
2.7957
2.7556
2.7048
2.6442
2.5767
2.5015
2.4203
2.3363
2.2483
2.1584
2.0694
1.9941
1.9277
1.8573
1.7908
1.7322
1.6843
1.6471
1.6207
1.6051
1.5973
1.5934
1.5904
1.5865
1.5826
1.5797
1.5738
1.563
1.5494
1.5337
1.5171
1.5024
1.4897
1.477
1.4653
1.4506
1.437
1.4262
1.4145
1.4018
1.3851
1.3666
1.349
1.3294
1.3099
1.2893
1.2678
1.2463
1.2268
1.2131
1.2014
1.1877
1.172
1.1554
1.1378
1.1202
1.1026
1.085
1.0694
1.0557
1.043
1.0362
1.0362
1.0362
1.0362
1.0362
1.0362
1.0362
1.0362
1.0362
1.0362
1.0371
1.0391
1.042
1.045
1.0459
1.0479
1.0538
1.0684
1.1007
1.1584
1.2483
1.3724
1.5269
1.7009
1.8827
2.0381
2.174
2.3138
2.4399
2.5455
2.6295
2.6921
2.7361
2.7634
2.7771
2.781
2.7761
2.7625
2.741
2.7165
2.6911
2.6637
2.6354
2.6041
2.5679
2.5298
2.4868
2.436
2.3773
2.3099
2.2424
2.176
2.0997
2.0215
1.9443
1.869
1.7996
1.7351
1.6755
1.6227
1.5728
1.522
1.477
1.4389
1.4008
1.3646
1.3284
1.2962
1.2678
1.2463
1.2326
1.2229
1.2151
1.2111
1.2092
1.2082
1.2082
1.2053
1.2004
1.1955
1.1906
1.1848
1.1789
1.173
1.1672
1.1642
1.1662
1.1711
1.1779
1.1838
1.1887
1.1926
1.1975
1.2023
1.2082
1.2151
1.2258
1.2405
1.2561
1.2717
1.2854
1.2981
1.3099
1.3206
1.3275
1.3304
1.3324
1.3333
1.3333
1.3363
1.3441
1.3519
1.3587
1.3636
1.3636
1.3558
1.3392
1.3099
1.2737
1.2346
1.1984
1.173
1.1672
1.1887
1.2463
1.3216
1.4154
1.5425
1.6901
1.8465
2.002
2.1486
2.2835
2.4037
2.5083
2.6022
2.6852
2.7488
2.8006
2.8592
2.9169
2.9677
3
3.0205
3.0411
3.0587
3.0733
3.086
3.0968
3.1036
3.0997
3.087
3.0684
3.043
3.0108
2.9677
2.915
2.8534
2.7859
2.7146
2.6197
2.5318
2.4751
2.4096
2.3304
2.2424
2.1457
2.0469
1.9482
1.8504
1.7556
1.6647
1.5816
1.5083
1.4467
1.4037
1.3734
1.349
1.3343
1.3265
1.3226
1.3196
1.3138
1.305
1.2923
1.2737
1.2532
1.2356
1.2209
1.2053
1.1916
1.1818
1.175
1.173
1.175
1.1789
1.1838
1.1896
1.1945
1.2014
1.2111
1.2219
1.2326
1.2444
1.2542
1.262
1.2678
1.2708
1.2717
1.2727
1.2698
1.263
1.2561
1.2483
1.2346
1.217
1.1984
1.1779
1.1574
1.1378
1.1193
1.1046
1.0948
1.087
1.0831
1.087
1.1017
1.131
1.1769
1.2434
1.3304
1.436
1.5552
1.6823
1.8104
1.9355
2.0547
2.1535
2.2375
2.3245
2.4086
2.4868
2.5582
2.6197
2.6735
2.7243
2.7683
2.8045
2.8377
2.8583
2.869
2.8788
2.8837
2.8827
2.8768
2.8631
2.8436
2.8133
2.7693
2.7126
2.6422
2.5562
2.4682
2.3763
2.2698
2.1525
2.0264
1.8974
1.7644
1.6285
1.4917
1.3519
1.2063
1.0508
0.91105
0.77419
0.60899
0.43206
0.261
0.13392
0.066471
0.033236
0.016618
0.0078201
0.0039101
0.0068426
0.026393
0.061584
0.11046
0.15249
0.18182
0.21408
0.24829
0.28641
0.32551
0.36559
0.40762
0.45161
0.49951
0.54936
0.59922
0.652
0.70577
0.75855
0.80841
0.85239
0.8915
0.92864
0.96481
0.99804
1.0313
1.0635
1.0929
1.1232
1.1554
1.1867
1.2151
1.2414
1.2659
1.2884
1.3069
1.3216
1.3353
1.348
1.3597
1.3695
1.3715
1.3587
1.3284
1.2835
1.2258
1.1652
1.1134
1.0831
1.085
1.1232
1.1965
1.2805
1.3763
1.4936
1.6119
1.7175
1.8065
1.8768
1.9316
1.9756
2.0127
2.0459
2.0762
2.1017
2.1193
2.132
1.1867
1.1935
1.1994
1.2023
1.2043
1.2053
1.2023
1.1984
1.1935
1.1926
1.2023
1.2307
1.2884
1.3627
1.4594
1.5973
1.7674
1.958
2.1564
2.348
2.521
2.6667
2.7849
2.8768
2.9433
2.9824
3.0039
3.0156
3.0176
3.0127
3.002
2.9863
2.9668
2.9433
2.9159
2.8837
2.8485
2.8084
2.7664
2.7214
2.6686
2.607
2.5376
2.4614
2.3763
2.2864
2.1926
2.0978
2.0039
1.912
1.8358
1.7703
1.7087
1.654
1.61
1.5806
1.564
1.5562
1.5523
1.5503
1.5494
1.5484
1.5494
1.5484
1.5425
1.5337
1.523
1.5103
1.4966
1.4839
1.4712
1.4565
1.4399
1.4223
1.4037
1.3881
1.3744
1.3587
1.3421
1.3245
1.3069
1.2893
1.2717
1.2532
1.2385
1.2248
1.2121
1.2063
1.2033
1.1984
1.1916
1.1857
1.1828
1.1808
1.1769
1.172
1.1662
1.1593
1.1525
1.1476
1.1466
1.1466
1.1447
1.1437
1.1437
1.1447
1.1496
1.1584
1.1681
1.1769
1.1808
1.1828
1.1867
1.1935
1.2023
1.2219
1.26
1.3236
1.4164
1.5415
1.6989
1.8817
2.0792
2.2796
2.4702
2.6227
2.7429
2.8553
2.9501
3.0244
3.0782
3.1124
3.13
3.1329
3.1232
3.1056
3.0802
3.0499
3.0166
2.9824
2.9472
2.9081
2.8671
2.825
2.7801
2.7292
2.6725
2.607
2.5318
2.4457
2.3646
2.2864
2.2014
2.1144
2.0303
1.955
1.8895
1.8328
1.7898
1.7615
1.7429
1.7302
1.7224
1.7175
1.7116
1.7058
1.6999
1.694
1.6882
1.6823
1.6745
1.6647
1.654
1.6413
1.6256
1.6119
1.5992
1.5855
1.5728
1.5601
1.5484
1.5367
1.5249
1.5132
1.5005
1.4888
1.477
1.4682
1.4604
1.4506
1.4399
1.4282
1.4164
1.4047
1.3959
1.3891
1.3812
1.3754
1.3724
1.3715
1.3724
1.3724
1.3715
1.3705
1.3705
1.3705
1.3705
1.3705
1.3705
1.3685
1.3675
1.3675
1.3675
1.3685
1.3695
1.3685
1.3646
1.3607
1.3607
1.3685
1.393
1.4467
1.5347
1.6579
1.8143
1.9677
2.1222
2.3021
2.4858
2.6559
2.8035
2.9257
3.0225
3.0948
3.1466
3.1799
3.1975
3.2004
3.1916
3.1779
3.1613
3.1388
3.1114
3.0802
3.0469
2.9589
2.8416
2.7605
2.695
2.6354
2.5797
2.5239
2.4624
2.3939
2.3196
2.2375
2.1496
2.0567
1.9638
1.8759
1.7928
1.7185
1.6608
1.6178
1.5826
1.5562
1.5386
1.5269
1.52
1.5152
1.5093
1.5034
1.4946
1.4819
1.4673
1.4536
1.4409
1.4252
1.4057
1.3842
1.3617
1.3392
1.3167
1.2933
1.2708
1.2493
1.2297
1.216
