0.28543,73.533
0.3089,73.338
0.34115,73.338
0.38221,73.338
0.42815,73.142
0.47703,73.142
0.5259,73.142
0.57283,72.947
0.60997,72.947
0.6393,72.751
0.66667,72.36
0.69013,72.164
0.7087,71.773
0.72141,71.382
0.72825,70.795
0.73118,70.404
0.73021,69.818
0.72532,69.231
0.71652,68.644
0.70479,68.253
0.6911,67.666
0.67546,67.275
0.65885,66.688
0.6393,66.102
0.61681,65.711
0.59433,65.319
0.56989,64.733
0.54545,64.146
0.52199,63.755
0.50049,63.168
0.47996,62.582
0.46139,61.995
0.44477,61.408
0.43206,61.017
0.42131,60.43
0.41153,60.039
0.40176,59.452
0.39394,59.061
0.38514,58.475
0.37634,58.083
0.3695,57.888
0.36364,57.692
0.35973,57.888
0.35484,58.475
0.35093,60.235
0.34702,63.95
0.34409,69.622
0.34213,77.249
0.3392,85.854
0.33529,94.655
0.33138,102.67
0.32747,110.1
0.32356,116.17
0.32063,120.86
0.31672,123.99
0.31281,125.75
0.3089,126.14
0.30499,125.75
0.30303,124.38
0.30108,122.43
0.29814,120.08
0.29423,117.54
0.2913,114.8
0.28739,111.86
0.28348,108.54
0.28055,104.82
0.27664,100.91
0.27273,96.806
0.26979,92.699
0.26588,88.592
0.26295,84.876
0.261,81.747
0.25904,79.009
0.25611,76.858
0.25318,75.098
0.25024,73.924
0.24731,72.947
0.24829,72.36
0.2522,71.969
0.26295,71.773
0.28152,71.773
0.30792,71.773
0.34311,71.773
0.3783,71.773
0.41447,71.773
0.45748,71.773
0.50244,71.773
0.54643,71.773
0.58651,71.578
0.62072,71.382
0.64907,70.991
0.67155,70.6
0.68719,70.404
0.69795,69.818
0.70283,69.426
0.70283,68.84
0.6999,68.253
0.69404,67.862
0.68426,67.275
0.67155,66.884
0.65689,66.297
0.63832,65.906
0.61877,65.319
0.59629,64.928
0.57283,64.537
0.54936,64.146
0.5259,63.559
0.50342,62.973
0.48387,62.582
0.46725,61.995
0.45064,61.408
0.435,61.017
0.42131,60.626
0.40958,60.039
0.39883,59.452
0.39003,59.061
0.38221,58.475
0.37537,58.083
0.3695,57.692
0.36559,57.301
0.3607,57.106
0.35777,57.301
0.35582,57.692
0.35288,59.061
0.34995,61.995
0.34702,67.08
0.34409,74.316
0.34115,82.725
0.33822,91.721
0.33431,100.13
0.33138,107.76
0.32747,114.41
0.32454,119.49
0.3216,123.21
0.31965,125.36
0.31672,126.34
0.31378,126.14
0.30987,124.97
0.30694,123.21
0.30303,120.86
0.3001,118.51
0.29619,115.78
0.29326,112.84
0.28935,109.71
0.28641,106.19
0.2825,102.48
0.28055,98.566
0.27859,94.459
0.27664,90.352
0.2737,86.245
0.27077,82.921
0.26686,79.987
0.26393,77.64
0.261,75.685
0.25709,74.316
0.25513,73.338
0.25513,72.555
0.25806,72.164
0.26588,71.969
0.27859,71.773
0.29912,71.773
0.32845,71.773
0.36559,71.773
0.40958,71.969
0.4565,71.969
0.50538,71.969
0.55132,71.969
0.59335,71.969
0.6305,71.773
0.6608,71.578
0.68524,71.382
0.6999,70.991
0.70968,70.6
0.71554,70.209
0.71848,69.622
0.7175,69.035
0.71261,68.644
0.70479,68.253
0.69306,67.666
0.6784,67.275
0.6608,66.884
0.64027,66.297
0.61877,65.906
0.59726,65.515
0.57674,65.124
0.55425,64.537
0.53177,64.146
0.50929,63.559
0.48778,62.973
0.46823,62.582
0.45064,62.19
0.43597,61.604
0.42229,61.213
0.41153,60.821
0.40176,60.43
0.39394,59.844
0.38807,59.452
0.38319,59.061
0.3783,58.866
0.37439,58.67
0.37048,58.67
0.36657,59.257
0.36364,60.626
0.3607,63.755
0.35777,69.035
0.35484,76.271
0.35093,84.876
0.348,93.677
0.34604,102.09
0.34311,109.71
0.34018,116.17
0.33724,121.25
0.33333,124.97
0.3304,127.12
0.32649,127.9
0.32356,127.9
0.32063,126.73
0.31769,125.16
0.31378,123.01
0.31085,120.67
0.30792,117.93
0.30596,115.19
0.30401,112.06
0.30108,108.74
0.29717,105.22
0.29423,101.3
0.2913,97.393
0.28837,93.286
0.28543,89.57
0.2825,86.05
0.27957,83.116
0.27664,80.769
0.2737,78.814
0.27175,77.445
0.27077,76.271
0.27077,75.685
0.2737,75.098
0.28152,74.902
0.29717,74.902
0.31965,74.902
0.35093,74.902
0.38905,75.098
0.43402,75.098
0.48094,75.098
0.52884,75.098
0.56891,75.098
0.60215,74.902
0.63636,74.707
0.66667,74.511
0.6911,74.12
0.71065,73.533
0.72434,73.142
0.73314,72.555
0.73705,72.164
0.73607,71.578
0.73118,70.991
0.72336,70.6
0.71261,70.013
0.6999,69.426
0.68524,69.035
0.66764,68.644
0.64712,68.057
0.62561,67.666
0.60313,67.08
0.58065,66.688
0.55914,66.102
0.53763,65.515
0.51711,64.928
0.49951,64.342
0.48289,63.755
0.46921,63.168
0.45846,62.582
0.44868,61.995
0.43988,61.408
0.43206,60.821
0.4262,60.43
0.42033,60.039
0.41544,59.648
0.41153,59.648
0.40762,59.844
0.40469,60.626
0.40078,62.777
0.39785,67.08
0.39589,73.729
0.39296,82.334
0.39003,91.721
0.3871,100.91
0.38416,109.32
0.38025,116.75
0.37634,123.01
0.37243,127.51
0.36852,130.44
0.36461,132.01
0.3607,132.4
0.35875,131.62
0.35777,130.25
0.35582,128.49
0.35386,126.34
0.35093,123.99
0.34702,121.25
0.34311,118.51
0.34018,115.58
0.33627,112.26
0.33236,108.74
0.32845,105.02
0.32454,100.91
0.32063,96.806
0.31672,92.699
0.31378,88.983
0.31085,85.658
0.30694,82.921
0.30303,80.769
0.29912,79.009
0.29717,77.64
0.29717,76.662
0.30108,76.076
0.31281,75.685
0.33236,75.489
0.35973,75.293
0.39589,75.293
0.43206,75.293
0.46823,75.293
0.51222,75.293
0.55718,75.293
0.60117,75.098
0.64027,74.902
0.67351,74.707
0.70088,74.316
0.72336,73.924
0.739,73.338
0.74682,72.947
0.75073,72.164
0.75073,71.773
0.7478,70.991
0.74096,70.6
0.73118,70.013
0.71945,69.426
0.70577,68.84
0.68817,68.253
0.6696,67.666
0.64809,67.275
0.62561,66.884
0.60117,66.297
0.57771,65.711
0.55327,65.124
0.53275,64.537
0.51417,64.146
0.49462,63.559
0.47703,62.973
0.46041,62.386
0.44575,61.799
0.43304,61.408
0.42131,60.821
0.41251,60.43
0.40469,60.039
0.39785,59.452
0.39198,59.061
0.38612,58.866
0.38221,59.061
0.37928,59.452
0.37537,61.017
0.37146,64.537
0.36755,70.209
0.36364,78.031
0.35875,87.223
0.35484,96.61
0.34995,105.41
0.34506,113.23
0.34115,119.88
0.33627,124.97
0.33333,128.29
0.3304,130.25
0.32649,131.03
0.32258,130.64
0.31867,129.47
0.31476,127.71
0.31085,125.55
0.30694,123.21
0.30303,120.47
0.29912,117.73
0.29619,114.6
0.29228,111.28
0.28837,107.56
0.28543,103.85
0.28348,99.739
0.28055,95.437
0.27761,91.33
0.27468,87.419
0.27175,84.094
0.26784,81.356
0.26393,79.205
0.261,77.445
0.25806,76.076
0.25806,75.098
0.26197,74.511
0.26979,74.12
0.2825,73.924
0.30401,73.924
0.33529,73.924
0.37439,73.729
0.41935,73.729
0.46725,73.729
0.51613,73.729
0.56305,73.729
0.60508,73.533
0.64125,73.338
0.67155,73.142
0.69404,72.751
0.70968,72.36
0.71848,71.969
0.72434,71.382
0.7263,70.795
0.72532,70.209
0.72043,69.622
0.71261,69.035
0.70088,68.644
0.68719,68.057
0.6696,67.666
0.65103,67.08
0.62952,66.688
0.60899,66.102
0.58847,65.711
0.56598,65.124
0.54252,64.537
0.51906,64.146
0.49658,63.559
0.47605,62.973
0.45748,62.386
0.44086,61.799
0.42717,61.408
0.41447,60.821
0.40371,60.235
0.39492,59.844
0.38905,59.257
0.38319,58.866
0.37732,58.475
0.37243,58.279
0.36755,58.279
0.36364,58.67
0.35973,59.648
0.35582,62.19
0.35288,66.688
0.34897,73.338
0.34506,81.747
0.34213,90.743
0.3392,99.544
0.33627,107.37
0.33333,114.41
0.32942,120.08
0.32551,124.19
0.3216,126.73
0.31769,128.1
0.31378,128.29
0.30987,127.51
0.30694,125.95
0.30303,123.99
0.3001,121.64
0.29717,119.1
0.29521,116.17
0.29228,113.04
0.28935,109.71
0.28543,106
0.2825,102.09
0.27859,97.979
0.27566,93.677
0.27175,89.57
0.26882,85.854
0.26588,82.725
0.26197,79.987
0.25806,77.836
0.25611,76.076
0.25415,74.902
0.25318,73.924
0.25415,73.533
0.26002,73.142
0.27077,72.947
0.29032,72.947
0.31867,72.947
0.35484,72.947
0.39785,72.947
0.44477,72.947
0.49365,72.947
0.5347,72.751
0.57087,72.555
0.6129,72.555
0.64907,72.36
0.67155,72.164
0.6911,71.773
0.70577,71.382
0.71457,70.795
0.71945,70.404
0.72043,69.818
0.71652,69.231
0.70968,68.84
0.69892,68.253
0.68622,67.666
0.67253,67.275
0.65494,66.688
0.63441,66.102
0.61193,65.711
0.58847,65.319
0.56403,64.733
0.53959,64.342
0.51613,63.755
0.49462,63.168
0.4741,62.777
0.45552,62.19
0.44086,61.604
0.42913,61.213
0.4174,60.626
0.40762,60.039
0.39785,59.648
0.39003,59.257
0.38416,58.67
0.3783,58.279
0.37341,58.083
0.3695,58.083
0.36461,58.279
0.3607,59.061
0.35777,61.017
0.35582,64.928
0.35386,71.186
0.35191,79.4
0.34897,88.201
0.34506,97.001
0.34213,105.22
0.3392,112.45
0.33529,118.51
0.33138,123.01
0.32747,125.95
0.32356,127.51
0.31965,128.1
0.31769,127.31
0.31476,126.14
0.31183,124.19
0.3089,122.03
0.30596,119.49
0.30205,116.75
0.29912,113.82
0.29521,110.69
0.29228,107.17
0.28837,103.26
0.28543,99.348
0.2825,95.046
0.27859,90.743
0.27664,86.832
0.27468,83.507
0.27175,80.769
0.26882,78.227
0.26491,76.467
0.261,75.098
0.26002,74.12
0.26002,73.533
0.26393,72.947
0.2737,72.751
0.30108,72.751
0.33333,72.751
0.35484,72.751
0.38416,72.751
0.43695,72.751
0.48876,72.751
0.5259,72.555
0.57478,72.555
0.62463,72.36
0.65689,72.164
0.68035,71.969
0.70283,71.773
0.71652,71.382
0.72434,70.795
0.7263,70.404
0.72336,69.818
0.71848,69.426
0.70968,69.035
0.69697,68.449
0.68231,68.057
0.66471,67.471
0.64516,67.08
0.62268,66.688
0.59922,66.297
0.57478,65.906
0.55034,65.319
0.52884,64.928
0.51026,64.537
0.48974,63.95
0.47116,63.364
0.45357,62.973
0.43793,62.582
0.42424,62.19
0.41251,61.604
0.40469,61.213
0.39687,60.821
0.38905,60.235
0.38221,59.844
0.37634,59.452
0.37243,59.257
0.36852,59.061
0.36559,59.257
0.36168,60.039
0.35875,61.995
0.35582,65.906
0.35191,71.969
0.34897,80.183
0.34506,89.179
0.34213,98.175
0.33822,106.58
0.33529,114.02
0.33236,120.27
0.3304,124.97
0.32747,128.1
0.32356,129.66
0.32063,130.25
0.31769,129.86
0.31378,128.49
0.31085,126.73
0.30792,124.58
0.30401,122.03
0.30108,119.49
0.29814,116.75
0.29521,113.62
0.29326,110.3
0.2913,106.58
0.28837,102.67
0.28641,98.566
0.28348,94.655
0.28055,90.743
0.27761,87.223
0.27468,84.289
0.27175,81.747
0.26882,79.791
0.26686,78.227
0.26784,77.249
0.27175,76.467
0.28055,76.076
0.29521,75.685
0.31867,75.685
0.35093,75.685
0.39101,75.685
0.43597,75.685
0.48387,75.88
0.53275,75.88
0.57869,75.88
0.61975,75.685
0.65591,75.489
0.68524,75.293
0.70577,75.098
0.71945,74.511
0.73118,74.12
0.73803,73.533
0.74096,73.142
0.73998,72.555
0.73607,71.969
0.72825,71.578
0.7175,70.991
0.70381,70.6
0.68719,70.013
0.66862,69.426
0.65005,69.035
0.6305,68.644
0.60997,68.057
0.58749,67.666
0.565,67.275
0.54252,66.688
0.52199,66.102
0.50244,65.711
0.48485,65.124
0.47019,64.537
0.4565,64.146
0.44575,63.559
0.43695,62.973
0.43011,62.582
0.42424,61.995
0.41838,61.604
0.41349,61.213
0.40958,60.821
0.40567,60.626
0.40274,60.821
0.39883,61.799
0.39589,64.146
0.39296,69.035
0.39003,76.076
0.38612,85.072
0.38319,94.655
0.38025,104.04
0.37732,112.45
0.37341,119.69
0.37048,125.55
0.36657,129.86
0.36266,132.4
0.35973,133.57
0.35582,133.57
0.35288,132.79
0.34897,131.23
0.34604,129.47
0.34311,127.31
0.34115,124.97
0.33822,122.43
0.33529,119.69
0.33138,116.75
0.32845,113.43
0.32454,109.91
0.3216,106
0.31769,101.89
0.31476,97.784
0.31085,93.677
0.30694,89.765
0.30303,86.441
0.3001,83.703
0.29814,81.356
0.29619,79.791
0.29619,78.422
0.30108,77.445
0.31085,76.662
0.32942,76.271
0.35582,76.076
0.39101,75.88
0.43304,75.88
0.47898,75.88
0.52688,75.88
0.56794,75.685
0.60215,75.685
0.63832,75.489
0.6696,75.293
0.69697,75.098
0.7175,74.707
0.73314,74.316
0.74291,73.729
0.7478,73.142
0.7478,72.555
0.74487,71.969
0.739,71.382
0.72923,70.795
0.71848,70.404
0.70479,69.818
0.68915,69.231
0.67058,68.84
0.65103,68.253
0.62854,67.666
0.60508,67.275
0.58065,66.688
0.55621,66.102
0.53275,65.515
0.51026,65.124
0.48974,64.537
0.47312,63.95
0.45846,63.364
0.44477,62.777
0.43206,62.386
0.42033,61.799
0.41056,61.213
0.40274,60.821
0.39492,60.235
0.38807,59.844
0.38319,59.452
0.3783,59.257
0.37341,59.452
0.36852,60.039
0.36559,61.995
0.36266,65.906
0.35875,72.36
0.35484,81.16
0.35093,90.548
0.34702,100.13
0.34311,109.13
0.33822,116.95
0.33431,123.4
0.32942,128.29
0.32454,131.42
0.32063,132.99
0.31769,133.38
0.31476,132.99
0.31183,131.42
0.30792,129.66
0.30401,127.51
0.3001,125.16
0.29619,122.62
0.29326,119.88
0.28935,116.75
0.28543,113.43
0.28152,109.91
0.27859,106
0.27468,102.09
0.27273,97.784
0.27077,93.481
0.26784,89.57
0.26491,86.05
0.261,83.116
0.25709,80.769
0.25513,78.814
0.25415,77.249
0.25806,76.271
0.26686,75.489
0.28446,75.098
0.30987,74.707
0.3392,74.511
0.37146,74.511
0.41349,74.511
0.46041,74.511
0.50929,74.511
0.55718,74.511
0.59922,74.316
0.63636,74.12
0.66764,73.924
0.6911,73.729
0.7087,73.338
0.72043,72.947
0.7263,72.36
0.72727,71.969
0.72434,71.382
0.71945,70.795
0.71163,70.209
0.70088,69.622
0.68817,69.035
0.67253,68.644
0.65396,68.057
0.63343,67.471
0.61095,67.08
0.58749,66.493
0.56403,66.102
0.54252,65.515
0.52199,65.124
0.50147,64.537
0.48094,63.95
0.46139,63.364
0.44379,62.777
0.42815,62.19
0.41447,61.799
0.40274,61.213
0.39296,60.821
0.38416,60.235
0.37634,59.844
0.37048,59.257
0.36559,58.866
0.36266,58.67
0.35875,58.475
0.35484,58.866
0.35191,59.648
0.348,61.799
0.34409,66.102
0.34018,72.751
0.33724,81.16
0.33333,90.352
0.32942,99.153
0.32551,107.37
0.32258,114.8
0.31965,120.67
0.31672,124.97
0.31281,127.71
0.3089,129.27
0.30596,129.66
0.30205,128.88
0.29814,127.51
0.29423,125.55
0.2913,123.21
0.28739,120.67
0.28348,117.93
0.28055,114.99
0.27761,111.67
0.27566,108.15
0.2737,104.24
0.27077,100.13
0.26686,96.024
0.26393,91.917
0.261,87.81
0.25806,84.485
0.25415,81.552
0.25024,79.205
0.24731,77.249
0.24536,75.88
0.24536,74.902
0.24927,74.12
0.25806,73.729
0.2737,73.533
0.29814,73.338
0.3304,73.338
0.37048,73.338
0.41544,73.338
0.46432,73.338
0.51222,73.338
0.55718,73.142
0.59824,73.142
0.63343,72.947
0.65787,72.751
0.67644,72.555
0.69208,72.164
0.70283,71.773
0.70968,71.186
0.71261,70.795
0.71065,70.209
0.70577,69.622
0.69697,69.035
0.68524,68.449
0.67058,67.862
0.65298,67.471
0.63441,66.884
0.61681,66.493
0.59531,66.102
0.57185,65.515
0.54839,65.124
0.52493,64.537
0.50244,64.146
0.48094,63.559
0.46139,62.973
0.44379,62.582
0.42815,61.995
0.41447,61.604
0.40469,61.017
0.39687,60.626
0.38905,60.039
0.38123,59.452
0.37537,59.061
0.37048,58.475
0.36559,58.279
0.36168,58.083
0.35777,58.279
0.35386,58.67
0.35093,60.43
0.348,63.755
0.34506,69.426
0.34213,77.054
0.34018,86.05
0.33724,95.046
0.33431,103.46
0.3304,111.08
0.32747,117.73
0.32356,122.82
0.31965,126.34
0.31574,128.29
0.31281,129.07
0.3089,128.88
0.30499,127.71
0.30303,125.95
0.30108,123.99
0.29814,121.45
0.29521,118.9
0.2913,116.17
0.28837,113.04
0.28446,109.52
0.28152,105.8
0.27761,101.89
0.27468,97.784
0.27175,93.481
0.26784,89.374
0.26491,85.854
0.26295,82.725
0.261,80.183
0.25806,78.031
0.25513,76.467
0.25415,75.098
0.25513,74.316
0.26197,73.729
0.27566,73.338
0.29717,73.142
0.32747,73.142
0.36559,73.142
0.40958,73.142
0.45064,73.142
0.48974,73.142
0.53275,72.947
0.57576,72.947
0.61388,72.751
0.64712,72.555
0.67449,72.36
0.69501,71.969
0.71065,71.578
0.72043,71.186
0.72434,70.6
0.72532,70.209
0.72141,69.622
0.71457,69.035
0.70479,68.644
0.69208,68.057
0.67742,67.666
0.65885,67.275
0.63832,66.688
0.61681,66.297
0.59238,65.906
0.56891,65.319
0.54448,64.928
0.52102,64.537
0.49853,63.95
0.47996,63.559
0.46432,62.973
0.44868,62.582
0.43402,61.995
0.42131,61.604
0.40958,61.017
0.3998,60.626
0.39198,60.039
0.38514,59.648
0.3783,59.257
0.37341,58.866
0.36852,58.67
0.36461,58.67
0.36168,59.257
0.35875,60.626
0.35582,63.559
0.35288,68.644
0.34897,76.076
0.34604,84.876
0.34213,94.068
0.33822,102.67
0.33431,110.69
0.3304,117.54
0.32747,123.01
0.32356,126.92
0.32063,129.07
0.31867,130.05
0.31574,130.05
0.31281,128.88
0.30987,127.12
0.30596,125.16
0.30303,122.82
0.29912,120.47
0.29619,117.73
0.29228,114.8
0.28935,111.67
0.28641,108.15
0.2825,104.24
0.28055,100.33
0.27859,96.024
0.27664,91.917
0.2737,88.201
0.26979,85.072
0.26686,82.334
0.26295,80.183
0.26002,78.422
0.25904,77.249
0.261,76.271
0.26686,75.685
0.28055,75.489
0.29717,75.293
0.31965,75.293
0.35288,75.293
0.39296,75.293
0.43891,75.489
0.4868,75.489
0.53568,75.489
0.58065,75.293
0.62072,75.293
0.65591,75.098
0.68328,74.707
0.70479,74.511
0.72043,73.924
0.72923,73.533
0.73314,72.947
0.73412,72.555
0.73216,71.969
0.7263,71.382
0.7175,70.991
0.70577,70.404
0.69208,70.013
0.67449,69.426
0.65591,69.035
0.63441,68.644
0.61193,68.057
0.5914,67.666
0.57087,67.08
0.54936,66.493
0.52786,66.102
0.50733,65.515
0.48876,64.928
0.4741,64.537
0.46237,63.95
0.45064,63.559
0.44086,62.973
0.43206,62.582
0.42522,61.995
0.41838,61.604
0.41447,61.213
0.41056,60.821
0.40665,60.626
0.40371,60.626
0.40078,61.213
0.39785,62.582
0.39492,65.711
0.39198,71.382
0.3871,79.4
0.38416,88.788
0.38123,98.175
0.37732,107.17
0.37439,115.19
0.37243,122.03
0.36852,127.51
0.36559,131.03
0.36168,133.18
0.35875,133.96
0.35582,133.77
0.35288,132.79
0.34897,131.23
0.34604,129.47
0.34311,127.31
0.3392,124.97
0.33724,122.43
0.33529,119.69
0.33236,116.56
0.32845,113.23
0.32551,109.71
0.32258,105.8
0.31965,101.69
0.31672,97.588
0.31281,93.481
0.30987,89.765
0.30596,86.441
0.30401,83.703
0.30303,81.552
0.30401,79.791
0.3089,78.422
0.32942,77.64
0.35288,76.858
0.38416,76.467
0.44379,76.271
0.49071,76.076
0.53861,76.076
0.58553,76.076
0.64614,76.076
0.67546,75.88
0.70088,75.88
0.73314,75.685
0.7478,75.293
0.75855,75.098
0.76442,74.707
0.76637,74.12
0.76442,73.729
0.75855,73.142
0.74976,72.555
0.739,71.969
0.72434,71.382
0.70968,70.795
0.69306,70.209
0.67351,69.622
0.65103,69.035
0.62854,68.644
0.60411,68.057
0.57967,67.666
0.55621,67.08
0.53275,66.688
0.51124,66.102
0.49169,65.515
0.4741,64.928
0.46041,64.342
0.44868,63.755
0.43793,63.168
0.42815,62.777
0.41935,62.19
0.41153,61.604
0.40469,61.213
0.39883,60.626
0.39296,60.235
0.38807,59.844
0.38319,59.452
0.3783,59.257
0.37439,59.257
0.37048,60.039
0.36461,62.19
0.3607,66.297
0.35679,72.947
0.34995,81.552
0.34506,91.134
0.34018,100.52
0.33627,109.32
0.33138,116.95
0.32747,123.4
0.32258,128.1
0.31965,131.03
0.31672,132.59
0.31378,132.99
0.30987,132.4
0.30596,131.03
0.30205,129.07
0.29814,126.92
0.29423,124.58
0.29032,122.03
0.28641,119.1
0.2825,116.17
0.27957,112.84
0.27566,109.13
0.27273,105.41
0.27077,101.11
0.26784,97.001
0.26393,92.699
0.261,88.983
0.26002,85.463
0.26197,82.725
0.26979,80.183
0.28446,78.422
0.30792,77.054
0.34018,75.88
0.38123,75.098
0.42033,74.707
0.46041,74.511
0.50538,74.316
0.55132,74.12
0.59433,74.12
0.63343,74.12
0.66569,74.12
0.6911,73.924
0.71065,73.924
0.72336,73.729
0.73216,73.533
0.73509,73.142
0.73509,72.751
0.73118,72.36
0.72336,71.969
0.71457,71.382
0.70186,70.795
0.68622,70.209
0.66862,69.622
0.64907,69.035
0.62757,68.449
0.60411,67.862
0.57967,67.471
0.55621,66.884
0.53177,66.493
0.51124,65.906
0.49365,65.515
0.47507,64.928
0.45748,64.537
0.44184,63.95
0.42815,63.559
0.41544,62.973
0.40469,62.386
0.39589,61.799
0.38807,61.213
0.38123,60.821
0.37537,60.235
0.37048,59.844
0.36657,59.257
0.36364,58.67
0.3607,58.279
0.35679,58.083
0.35288,58.083
0.34995,58.279
0.34604,58.866
0.34213,61.017
0.33822,64.928
0.33431,71.382
0.32942,79.596
0.32551,88.788
0.32258,97.784
0.32063,106.19
0.31672,113.62
0.31378,119.69
0.30987,124.38
0.30694,127.31
0.30303,128.88
0.3001,129.47
0.29619,128.88
0.29228,127.31
0.28837,125.36
0.28543,123.01
0.28152,120.47
0.27859,117.73
0.27761,114.8
0.27468,111.47
0.27175,107.95
0.26882,104.04
0.26491,99.935
0.26197,95.828
0.25806,91.525
0.25415,87.614
0.2522,84.289
0.25122,81.16
0.25415,78.814
0.261,76.858
0.27273,75.293
0.29326,74.316
0.32258,73.533
0.35973,73.142
0.40371,72.751
0.45064,72.555
0.49951,72.555
0.54741,72.36
0.59042,72.36
0.62854,72.555
0.6608,72.555
0.68622,72.36
0.70283,72.36
0.71261,72.164
0.72043,72.164
0.72434,71.773
0.72434,71.578
0.72043,70.991
0.71261,70.6
0.70283,70.013
0.68915,69.426
0.67253,69.035
0.65298,68.253
0.63148,67.666
0.61193,67.275
0.5914,66.688
0.56891,66.297
0.54545,65.711
0.52199,65.319
0.50049,64.733
0.47996,64.342
0.46041,63.95
0.44379,63.364
0.42913,62.777
0.41642,62.386
0.40567,61.799
0.39687,61.213
0.39003,60.821
0.38514,60.235
0.37928,59.844
0.37439,59.257
0.37048,58.866
0.36657,58.279
0.36266,57.888
0.35973,57.497
0.35679,57.301
0.35288,57.106
0.34995,57.497
0.34702,58.279
0.34311,60.626
0.34018,64.928
0.33627,71.578
0.33236,79.791
0.32942,88.788
0.32551,97.393
0.3216,105.41
0.31867,112.45
0.31476,118.12
0.31085,122.43
0.30792,124.97
0.30499,126.34
0.30108,126.53
0.29912,125.75
0.29717,124.38
0.29521,122.43
0.29228,119.88
0.28837,117.34
0.28543,114.6
0.28152,111.47
0.27859,108.15
0.27566,104.43
0.27175,100.52
0.26882,96.415
0.26491,92.112
0.26295,88.201
0.261,84.485
0.25904,81.356
0.25806,78.618
0.261,76.662
0.26784,74.902
0.2825,73.533
0.30401,72.751
0.33431,72.164
0.37243,71.773
0.41544,71.578
0.46139,71.578
0.50147,71.578
0.53763,71.578
0.57576,71.578
0.60997,71.578
0.64027,71.578
0.66569,71.578
0.68426,71.578
0.69697,71.382
0.70577,70.991
0.7087,70.795
0.70772,70.404
0.70381,69.818
0.69501,69.426
0.68524,68.84
0.67253,68.449
0.65689,67.862
0.6393,67.471
0.61877,66.884
0.59726,66.297
0.5738,65.906
0.55132,65.319
0.52786,64.928
0.50635,64.537
0.48583,63.95
0.46725,63.559
0.45161,62.973
0.43891,62.386
0.42717,61.995
0.41642,61.408
0.40665,60.821
0.39785,60.43
0.39003,59.844
0.38416,59.452
0.37928,58.866
0.37439,58.475
0.37048,57.888
0.36657,57.301
0.36364,56.91
0.3607,56.715
0.35875,56.519
0.35582,56.519
0.35288,56.91
0.34995,58.279
0.34702,61.017
0.34311,66.102
0.3392,73.533
0.33529,82.138
0.33138,91.134
0.32747,99.739
0.32454,107.56
0.3216,114.21
0.31965,119.69
0.31672,123.6
0.31378,126.14
0.31085,127.12
0.30694,127.12
0.30401,125.95
0.3001,124.38
0.29619,122.43
0.29326,120.08
0.28935,117.54
0.28641,114.6
0.2825,111.67
0.28055,108.34
0.27859,104.63
0.27664,100.72
0.2737,96.61
0.26979,92.503
0.26588,88.592
0.26295,84.876
0.26002,81.747
0.26002,79.205
0.26491,77.054
0.27468,75.489
0.29228,74.316
0.31378,73.533
0.34018,72.947
0.37634,72.751
0.41838,72.555
0.4653,72.555
0.51222,72.555
0.55718,72.555
0.59824,72.751
0.63441,72.751
0.66373,72.751
0.68719,72.751
0.70381,72.751
0.71554,72.555
0.72141,72.36
0.72239,72.164
0.72043,71.773
0.71554,71.186
0.70772,70.795
0.69697,70.209
0.68328,69.818
0.66667,69.231
0.64809,68.84
0.62757,68.253
0.60508,67.666
0.58162,67.275
0.56109,66.884
0.54154,66.297
0.52102,65.906
0.50049,65.515
0.48192,64.928
0.46432,64.537
0.44966,63.95
0.43597,63.559
0.42522,62.973
0.41544,62.582
0.40762,61.995
0.40078,61.604
0.39492,61.213
0.39101,60.626
0.38807,60.235
0.38416,59.844
0.38123,59.257
0.3783,59.061
0.37537,58.67
0.37243,58.67
0.3695,58.866
0.36657,59.844
0.36364,62.386
0.3607,67.08
0.35679,73.924
0.35484,82.529
0.35191,91.721
0.34995,100.52
0.34702,108.54
0.34409,115.78
0.34115,121.45
0.33822,125.75
0.33529,128.49
0.33236,129.66
0.32942,129.86
0.32649,129.07
0.32356,127.51
0.32063,125.75
0.31867,123.6
0.31769,121.25
0.31476,118.71
0.31281,115.97
0.30987,112.84
0.30792,109.52
0.30499,106
0.30205,102.09
0.3001,97.979
0.29717,93.872
0.29423,90.157
0.29228,86.636
0.29228,83.703
0.29521,81.16
0.30303,79.4
0.31672,77.836
0.33724,76.858
0.36657,76.076
0.40371,75.489
0.44673,75.293
0.49267,75.098
0.53861,75.098
0.58358,75.098
0.62366,75.098
0.65885,75.098
0.68524,75.098
0.70381,74.902
0.72043,74.511
0.73412,74.12
0.74194,73.729
0.74682,73.338
0.74682,72.751
0.74389,72.36
0.73803,71.773
0.72825,71.186
0.71652,70.6
0.70088,70.013
0.68622,69.426
0.6696,69.035
0.65005,68.644
0.62854,68.057
0.60704,67.666
0.58456,67.275
0.56207,66.688
0.54154,66.102
0.52199,65.711
0.50342,65.124
0.48778,64.537
0.4741,63.95
0.46139,63.364
0.45161,62.777
0.44477,62.19
0.43695,61.604
0.43109,61.017
0.42522,60.43
0.42033,59.844
0.41544,59.452
0.41056,58.866
0.40567,58.475
0.40176,58.083
0.39785,57.888
0.39296,57.888
0.39003,58.475
0.38612,60.039
0.38221,63.755
0.37732,69.622
0.37341,77.836
0.36852,87.223
0.36461,96.61
0.35973,105.61
0.35582,113.43
0.35093,120.08
0.34702,125.16
0.34213,128.49
0.3392,130.44
0.33627,131.03
0.33236,130.64
0.32845,129.47
0.32454,127.71
0.31965,125.55
0.31476,123.4
0.3089,120.86
0.30205,117.93
0.29619,114.99
0.2913,111.86
0.28641,108.34
0.2825,104.43
0.27957,100.52
0.27664,96.415
0.27273,92.308
0.26882,88.396
0.26686,85.072
0.26588,82.138
0.26979,79.791
0.28055,77.836
0.29814,76.271
0.32551,75.293
0.3607,74.511
0.40274,73.924
0.44282,73.533
0.48094,73.533
0.52395,73.338
0.56696,73.338
0.60606,73.338
0.64027,73.338
0.66862,73.338
0.69013,73.142
0.70674,73.142
0.71652,72.947
0.72239,72.555
0.72336,72.164
0.72141,71.773
0.71554,71.186
0.70674,70.6
0.69599,70.013
0.68328,69.426
0.66764,68.84
0.64907,68.253
0.62854,67.862
0.60704,67.275
0.58456,66.688
0.56109,66.297
0.53763,65.906
0.51515,65.319
0.49658,64.928
0.47996,64.342
0.46237,63.95
0.44673,63.364
0.43206,62.777
0.41935,62.19
0.4086,61.604
0.39883,61.213
0.39101,60.626
0.38416,60.039
0.3783,59.648
0.37341,59.061
0.36852,58.67
0.36461,58.083
0.36168,57.692
0.35875,57.301
0.35484,57.106
0.35191,57.106
0.348,57.497
0.34409,58.866
0.34018,61.799
0.33627,66.884
0.33138,74.12
0.32747,82.921
0.32356,92.112
0.31965,100.72
0.31769,108.54
0.31378,114.99
0.31085,120.27
0.30694,123.99
0.30303,126.14
0.3001,126.92
0.29619,126.73
0.29228,125.55
0.28837,123.79
0.28543,121.45
0.28152,119.1
0.27761,116.36
0.27468,113.43
0.27273,110.3
0.27077,106.98
0.26784,103.26
0.26393,99.544
0.261,95.437
0.25709,91.33
0.25415,87.419
0.25122,83.898
0.24829,80.769
0.24829,78.227
0.2522,76.271
0.26002,74.707
0.2737,73.533
0.29521,72.751
0.32454,72.164
0.36266,71.773
0.40567,71.578
0.45259,71.382
0.49951,71.382
0.54448,71.382
0.58456,71.382
0.61975,71.382
0.64809,71.382
0.67058,71.186
0.68524,70.991
0.69404,70.795
0.6999,70.6
0.70186,70.404
0.70088,70.013
0.69599,69.426
0.68719,69.035
0.67644,68.449
0.66178,67.862
0.64516,67.275
0.62659,66.884
0.60508,66.297
0.58553,65.711
0.56598,65.319
0.54448,64.733
0.52297,64.342
0.50049,63.95
0.47996,63.559
0.46139,62.973
0.44379,62.582
0.42815,61.995
0.41544,61.604
0.40371,61.017
0.39394,60.626
0.38514,60.039
0.37928,59.648
0.37439,59.061
0.37048,58.475
0.36559,58.083
0.36168,57.692
0.35777,57.106
0.35484,56.715
0.35093,56.323
0.348,56.128
0.34506,56.128
0.34213,56.519
0.33822,57.692
0.33529,60.039
0.33333,64.537
0.3304,71.382
0.32649,79.596
0.32356,88.396
0.31965,96.61
0.31574,104.24
0.31183,110.69
0.3089,116.17
0.30499,120.08
0.30108,122.43
0.29814,123.6
0.29521,123.6
0.29228,122.62
0.29032,121.06
0.28739,119.1
0.28446,116.56
0.28152,113.82
0.27859,110.89
0.27468,107.76
0.27175,104.24
0.26784,100.52
0.26491,96.61
0.26197,92.503
0.25904,88.396
0.25611,84.485
0.25513,81.16
0.2522,78.422
0.25122,76.076
0.25318,74.316
0.26002,72.751
0.27273,71.773
0.29423,71.186
0.32356,70.6
0.3607,70.404
0.40371,70.209
0.44966,70.209
0.4956,70.209
0.5347,70.209
0.56794,70.209
0.60117,70.209
0.63148,70.209
0.65689,70.209
0.67546,70.013
0.68915,69.818
0.69795,69.622
0.70088,69.231
0.70088,68.84
0.69599,68.449
0.68719,67.862
0.67742,67.471
0.66471,66.884
0.64907,66.493
0.6305,65.906
0.60997,65.515
0.58847,64.928
0.565,64.537
0.54154,64.146
0.51906,63.755
0.49756,63.168
0.47703,62.777
0.45846,62.386
0.44184,61.799
0.42913,61.408
0.41838,60.821
0.4086,60.235
0.3998,59.844
0.39198,59.257
0.38514,58.866
0.37928,58.279
0.37341,57.888
0.3695,57.497
0.36559,56.91
0.36168,56.519
0.35875,56.128
0.35582,55.737
0.35386,55.541
0.35093,55.541
0.348,56.128
0.34506,57.301
0.34213,60.235
0.33822,65.124
0.33431,72.164
0.3304,80.769
0.32747,89.374
0.32356,97.588
0.31965,105.02
0.31769,111.47
0.31476,116.56
0.31281,120.08
0.3089,122.23
0.30596,123.21
0.30303,123.01
0.29912,122.03
0.29619,120.27
0.29228,117.93
0.28935,115.58
0.28543,113.04
0.2825,110.1
0.27859,106.98
0.27664,103.65
0.27468,99.935
0.27273,96.024
0.26979,91.917
0.26686,88.005
0.26295,84.289
0.26002,81.16
0.25709,78.422
0.25709,76.271
0.26002,74.511
0.26882,73.142
0.28446,72.164
0.30499,71.578
0.33138,71.186
0.3695,70.991
0.41349,70.991
0.46139,70.991
0.51026,70.991
0.55718,70.991
0.6002,71.186
0.63734,71.382
0.66862,71.382
0.69404,71.382
0.71261,71.186
0.72532,70.991
0.73118,70.795
0.73216,70.6
0.73118,70.209
0.7263,69.818
0.71848,69.231
0.70674,68.84
0.69306,68.449
0.67546,67.862
0.65591,67.471
0.63441,66.884
0.61095,66.493
0.58749,65.906
0.56598,65.515
0.54643,65.124
0.52493,64.733
0.50538,64.342
0.48583,63.755
0.46921,63.364
0.45357,62.973
0.44086,62.582
0.43011,61.995
0.42033,61.604
0.41251,61.213
0.40567,60.626
0.3998,60.235
0.39589,59.844
0.39296,59.257
0.39003,58.866
0.38612,58.475
0.38319,58.083
0.38025,57.888
0.37732,57.888
0.37439,58.083
0.37146,59.257
0.36852,61.995
0.36559,66.688
0.36168,73.729
0.35875,82.529
0.35679,91.525
0.35386,99.935
0.35093,107.76
0.348,114.6
0.34409,119.88
0.34115,123.99
0.33822,126.34
0.33529,127.51
0.33236,127.51
0.32942,126.73
0.32649,125.16
0.32356,123.21
0.32063,121.06
0.31965,118.51
0.31672,115.97
0.31476,113.23
0.31183,110.1
0.3089,106.78
0.30694,103.06
0.30401,99.348
0.30108,95.241
0.29814,91.33
0.29521,87.81
0.29228,84.681
0.29228,82.138
0.29521,79.987
0.30205,78.227
0.31574,76.858
0.33724,75.88
0.36657,75.293
0.40469,74.902
0.44868,74.707
0.49658,74.707
0.54545,74.707
0.59238,74.707
0.63539,74.707
0.67351,74.707
0.70088,74.707
0.72141,74.511
0.73998,74.316
0.75367,74.12
0.76344,73.729
0.76833,73.338
0.76931,72.751
0.76637,71.969
0.76051,71.382
0.75073,70.795
0.73803,70.013
0.72239,69.426
0.70674,68.84
0.68915,68.449
0.66862,67.862
0.64712,67.471
0.62463,67.08
0.60117,66.688
0.57869,66.102
0.55718,65.711
0.53666,65.319
0.51906,64.733
0.50244,64.146
0.48778,63.559
0.47605,62.973
0.46628,62.386
0.45846,61.799
0.45161,61.408
0.44477,60.821
0.43891,60.235
0.43402,59.844
0.42913,59.257
0.42522,58.866
0.42033,58.475
0.41642,58.083
0.41153,57.888
0.40762,58.083
0.40371,58.866
0.3998,61.213
0.39589,65.711
0.39101,72.36
0.38612,81.16
0.38025,90.352
0.37537,99.348
0.37048,107.56
0.36559,114.8
0.3607,120.67
0.35582,124.97
0.35191,127.71
0.34702,129.07
0.34311,129.27
0.34018,128.49
0.33627,127.12
0.33236,125.16
0.32747,123.01
0.32258,120.67
0.31769,117.93
0.31378,115.19
0.3089,112.06
0.30401,108.74
0.3001,105.22
0.29521,101.5
0.2913,97.393
0.28837,93.286
0.28543,89.374
0.28152,85.854
0.27859,82.921
0.27859,80.378
0.2825,78.227
0.29423,76.662
0.31476,75.489
0.34311,74.707
0.38025,74.12
0.42424,73.729
0.47214,73.533
0.51417,73.338
0.5523,73.338
0.59335,73.338
0.6305,73.338
0.66373,73.338
0.6911,73.142
0.71261,73.142
0.72727,72.751
0.73705,72.555
0.74194,72.164
0.74291,71.773
0.73998,71.382
0.73314,70.795
0.72434,70.404
0.71261,69.818
0.69892,69.035
0.68133,68.449
0.66276,67.862
0.64125,67.471
0.61877,66.884
0.59531,66.297
0.57185,65.906
0.54741,65.515
0.52493,65.124
0.50342,64.537
0.48583,64.146
0.47019,63.559
0.45552,62.973
0.44184,62.582
0.42913,61.995
0.41838,61.408
0.40958,61.017
0.40176,60.43
0.39492,59.844
0.39003,59.452
0.38416,58.866
0.38025,58.475
0.37634,58.083
0.37341,57.692
0.37048,57.497
0.36657,57.301
0.36266,57.301
0.35875,58.083
0.35484,59.648
0.35093,63.168
0.34604,69.035
0.34213,77.054
0.33724,86.05
0.33333,95.046
0.32942,103.46
0.32649,110.69
0.32356,116.95
0.31965,121.64
0.31574,124.77
0.31281,126.53
0.3089,126.92
0.30499,126.34
0.30108,124.97
0.29814,123.01
0.29423,120.67
0.29032,118.12
0.28641,115.38
0.28348,112.45
0.28152,109.13
0.27859,105.8
0.27566,102.09
0.27273,97.979
0.26882,94.068
0.26491,90.157
0.26197,86.245
0.25806,82.921
0.25611,80.183
0.25611,77.836
0.261,75.88
0.26979,74.511
0.28446,73.533
0.30792,72.751
0.34018,72.164
0.38025,71.969
0.4262,71.969
0.47507,71.773
0.52395,71.773
0.56989,71.773
0.61193,71.969
0.64809,71.773
0.67742,71.773
0.6999,71.773
0.71359,71.578
0.72239,71.382
0.72727,70.991
0.72923,70.6
0.72727,70.209
0.72141,69.818
0.71261,69.231
0.69599,68.644
0.67351,68.057
0.652,67.666
0.6305,67.08
0.60899,66.493
0.58847,66.102
0.56794,65.711
0.54643,65.124
0.52493,64.733
0.50342,64.342
0.48289,63.755
0.46432,63.364
0.44673,62.777
0.43206,62.386
0.41935,61.799
0.40762,61.213
0.39785,60.626
0.39003,60.235
0.38416,59.648
0.37928,59.257
0.37537,58.67
0.37048,58.279
0.36755,57.888
0.36364,57.301
0.35973,56.91
0.35679,56.715
0.35386,56.715
0.34995,56.715
0.34702,57.301
0.34311,58.866
0.34018,61.799
0.33822,67.08
0.33431,74.316
0.33138,82.725
0.32747,91.134
0.32356,98.957
0.31965,106
0.31672,112.06
0.31281,116.75
0.3089,119.88
0.30596,121.84
0.30205,122.43
0.29912,122.23
0.29619,121.06
0.29423,119.3
0.29228,116.95
0.28837,114.41
0.28543,111.67
0.28152,108.74
0.27859,105.41
0.27468,101.69
0.27175,97.979
0.26784,93.872
0.26491,89.765
0.261,85.854
0.25904,82.529
0.25709,79.4
0.25513,77.054
0.25513,75.098
0.25806,73.533
0.26491,72.36
0.27957,71.578
0.30205,70.991
0.33236,70.795
0.3695,70.6
0.41153,70.404
0.4565,70.404
0.50244,70.404
0.54057,70.404
0.57185,70.404
0.60313,70.404
0.63148,70.404
0.65494,70.404
0.67253,70.209
0.68524,70.013
0.69208,69.622
0.69501,69.426
0.69306,69.035
0.68817,68.644
0.67937,68.057
0.66862,67.666
0.65591,67.08
0.6393,66.493
0.62072,66.102
0.6002,65.711
0.57771,65.124
0.55523,64.733
0.53275,64.342
0.51124,63.95
0.49071,63.364
0.47116,62.973
0.45357,62.582
0.43891,61.995
0.4262,61.408
0.41642,61.017
0.40762,60.43
0.39883,60.039
0.39198,59.452
0.38514,59.061
0.38025,58.475
0.37537,58.083
0.37146,57.692
0.36755,57.106
0.36461,56.715
0.3607,56.323
0.35875,56.128
0.35679,56.128
0.35386,56.323
0.35093,57.106
0.348,59.257
0.34506,63.168
0.34115,69.231
0.33822,77.249
0.33431,85.854
0.3304,94.263
0.32747,102.09
0.32356,108.93
0.32063,114.6
0.31769,118.9
0.31574,121.64
0.31281,123.21
0.30987,123.6
0.30694,123.01
0.30303,121.64
0.3001,119.69
0.29619,117.34
0.29326,114.8
0.28935,112.06
0.28641,108.93
0.2825,105.61
0.28055,102.09
0.27859,98.175
0.27664,94.263
0.2737,90.157
0.26979,86.245
0.26686,82.921
0.26393,79.987
0.261,77.64
0.26197,75.489
0.26686,74.12
0.27761,72.947
0.29619,72.164
0.32356,71.578
0.35288,71.186
0.38514,70.991
0.4262,70.991
0.47116,70.991
0.51613,70.991
0.56012,71.186
0.59922,71.186
0.63343,71.186
0.66178,71.186
0.68328,71.186
0.6999,70.991
0.70968,70.795
0.71457,70.6
0.71457,70.404
0.71261,70.013
0.70674,69.426
0.69795,69.035
0.68622,68.644
0.67155,68.057
0.65396,67.666
0.63441,67.275
0.6129,66.688
0.59042,66.297
0.56696,65.711
0.54643,65.319
0.52688,64.928
0.50733,64.537
0.48778,64.146
0.47019,63.559
0.45357,63.168
0.43988,62.777
0.42717,62.19
0.41642,61.799
0.40762,61.408
0.3998,61.017
0.39394,60.43
0.38807,60.039
0.38416,59.648
0.38123,59.257
0.3783,58.67
0.37537,58.279
0.37243,58.083
0.3695,57.888
0.36657,58.083
0.36364,58.67
0.3607,60.235
0.35679,63.559
0.35386,69.231
0.35093,76.858
0.348,85.658
0.34604,94.459
0.34311,102.48
0.3392,109.71
0.33627,115.97
0.33333,120.67
0.3304,123.99
0.32649,125.95
0.32356,126.53
0.32063,126.14
0.31769,124.97
0.31476,123.21
0.31183,121.25
0.3089,118.9
0.30792,116.36
0.30499,113.82
0.30303,110.89
0.3001,107.56
0.29717,104.24
0.29521,100.33
0.29228,96.415
0.28935,92.503
0.28641,88.788
0.28348,85.463
0.28152,82.725
0.28152,80.183
0.28446,78.227
0.29228,76.858
0.30694,75.685
0.32845,75.098
0.35875,74.511
0.39589,74.316
0.43891,74.316
0.48485,74.316
0.53177,74.316
0.57576,74.316
0.61681,74.511
0.65103,74.511
0.67644,74.511
0.69501,74.316
0.71163,74.12
0.72434,73.924
0.73216,73.533
0.73607,73.142
0.73705,72.555
0.73314,71.969
0.7263,71.382
0.71652,70.6
0.70381,70.013
0.68915,69.426
0.67351,68.84
0.65591,68.057
0.63636,67.666
0.61486,67.08
0.59335,66.688
0.57185,66.102
0.55034,65.711
0.52981,65.319
0.51124,64.733
0.49462,64.342
0.47996,63.755
0.46725,63.364
0.45552,62.973
0.44673,62.386
0.44086,61.799
0.43402,61.213
0.42913,60.626
0.42424,60.039
0.41935,59.648
0.41544,59.061
0.41153,58.67
0.40762,58.279
0.40371,58.083
0.3998,57.888
0.39589,58.279
0.39198,59.844
0.38905,62.973
0.38514,68.449
0.38123,76.271
0.37634,85.463
0.37146,94.655
0.36755,103.26
0.36266,111.08
0.35777,117.73
0.35288,123.01
0.34897,126.53
0.34409,128.68
0.34018,129.47
0.33627,129.27
0.33333,128.1
0.3304,126.53
0.32649,124.38
0.32258,122.23
0.31769,119.88
0.31281,117.34
0.3089,114.41
0.30401,111.28
0.3001,107.95
0.29521,104.24
0.2913,100.33
0.28739,96.219
0.28446,92.112
0.28055,88.201
0.27761,84.876
0.27468,81.943
0.27566,79.596
0.28152,77.64
0.29423,76.076
0.31574,75.098
0.34702,74.316
0.38514,73.924
0.42913,73.729
0.47703,73.533
0.51906,73.533
0.55718,73.533
0.59629,73.533
0.63245,73.338
0.66373,73.338
0.68915,73.338
0.7087,73.142
0.72239,72.947
0.73021,72.555
0.73412,72.164
0.73412,71.773
0.73021,71.382
0.72336,70.795
0.71457,70.404
0.70283,69.818
0.68817,69.035
0.67155,68.644
0.652,68.057
0.6305,67.471
0.60704,67.08
0.58358,66.688
0.55914,66.102
0.53568,65.711
0.5132,65.124
0.49169,64.733
0.4741,64.146
0.45846,63.559
0.44477,63.168
0.43109,62.582
0.41935,61.995
0.4086,61.408
0.3998,60.821
0.39296,60.235
0.38612,59.844
0.38123,59.452
0.37634,58.866
0.37146,58.475
0.36852,58.083
0.36559,57.692
0.36266,57.497
0.35875,57.497
0.35484,57.888
0.35093,59.257
0.34702,62.19
0.34311,67.275
0.33822,74.707
0.33431,83.507
0.32942,92.699
0.32551,101.11
0.3216,108.93
0.31867,115.38
0.31574,120.67
0.31281,124.19
0.3089,126.34
0.30499,127.31
0.30205,127.12
0.29814,125.95
0.29423,124.38
0.29032,122.23
0.28641,119.88
0.2825,117.34
0.27957,114.6
0.27664,111.47
0.2737,108.15
0.27077,104.63
0.26784,100.72
0.26393,96.806
0.261,92.699
0.25709,88.788
0.25318,85.072
0.24927,81.943
0.24829,79.4
0.25024,77.249
0.25806,75.685
0.27273,74.511
0.2913,73.533
0.31574,72.947
0.34995,72.555
0.39198,72.36
0.43891,72.36
0.4868,72.164
0.5347,72.164
0.57771,72.164
0.61584,72.164
0.64809,72.164
0.67351,72.164
0.69306,71.969
0.70479,71.773
0.71163,71.578
0.71457,71.186
0.71554,70.795
0.71163,70.404
0.70577,69.818
0.69599,69.426
0.68328,68.84
0.66764,68.253
0.65005,67.666
0.62952,67.275
0.60704,66.688
0.58651,66.102
0.56598,65.711
0.54448,65.319
0.52199,64.733
0.49951,64.342
0.47898,63.95
0.46041,63.364
0.44282,62.777
0.42815,62.19
0.41544,61.799
0.40469,61.408
0.39492,60.821
0.3871,60.235
0.38123,59.844
0.37634,59.257
0.37146,58.866
0.36755,58.279
0.36364,57.888
0.35973,57.497
0.35582,57.301
0.35288,57.106
0.34897,57.106
0.34604,57.497
0.34213,58.866
0.3392,61.799
0.33627,66.884
0.33333,73.924
0.3304,82.334
0.32649,90.939
0.32258,99.153
0.31867,106.58
0.31476,112.84
0.31085,117.93
0.30694,121.45
0.30303,123.6
0.3001,124.38
0.29619,124.19
0.29326,123.21
0.29032,121.45
0.28837,119.3
0.28543,116.75
0.2825,114.21
0.27859,111.47
0.27566,108.34
0.27175,105.02
0.26882,101.3
0.26491,97.393
0.26197,93.481
0.25806,89.374
0.25415,85.658
0.25122,82.334
0.25024,79.596
0.24927,77.249
0.25024,75.489
0.25611,74.12
0.26882,72.947
0.28837,72.36
0.31672,71.773
0.35386,71.578
0.39589,71.382
0.44282,71.382
0.49071,71.382
0.53666,71.382
0.5738,71.382
0.60411,71.382
0.63245,71.186
0.65787,71.186
0.6784,70.991
0.69306,70.795
0.70283,70.6
0.70772,70.209
0.70772,69.818
0.70479,69.426
0.69697,69.035
0.68719,68.449
0.67449,67.862
0.6608,67.471
0.64321,66.884
0.62366,66.493
0.60215,65.906
0.57967,65.515
0.55621,64.928
0.53275,64.537
0.51026,64.146
0.48876,63.559
0.46921,63.168
0.45259,62.777
0.43695,62.386
0.42424,61.799
0.41447,61.408
0.40567,60.821
0.39687,60.235
0.38905,59.844
0.38319,59.257
0.37732,58.866
0.37243,58.475
0.36852,58.083
0.36461,57.497
0.3607,57.106
0.35679,56.91
0.35484,56.91
0.35288,57.106
0.34995,57.888
0.34702,59.844
0.34311,63.755
0.3392,70.013
0.33627,78.031
0.33236,86.636
0.32942,95.241
0.32747,103.06
0.32454,109.91
0.3216,115.58
0.31867,119.88
0.31574,122.62
0.31378,124.19
0.31085,124.58
0.30792,123.99
0.30401,122.43
0.30108,120.67
0.29717,118.51
0.29423,115.97
0.29032,113.23
0.28739,110.5
0.28348,107.17
0.28055,103.85
0.27859,100.13
0.27664,96.219
0.2737,92.112
0.27077,88.201
0.26686,84.485
0.26393,81.356
0.261,78.814
0.261,76.662
0.26491,74.902
0.27468,73.729
0.29228,72.751
0.31769,72.164
0.35288,71.773
0.38807,71.578
0.42424,71.578
0.46921,71.382
0.51515,71.382
0.56109,71.382
0.60313,71.382
0.6393,71.382
0.6696,71.382
0.69306,71.186
0.71163,70.991
0.72336,70.795
0.73021,70.6
0.73216,70.209
0.73021,69.818
0.72532,69.231
0.7175,68.84
0.70577,68.253
0.69208,67.666
0.67546,67.275
0.65591,66.688
0.63441,66.297
0.61095,65.711
0.58749,65.319
0.56305,64.733
0.53959,64.342
0.51906,63.95
0.50147,63.559
0.48289,62.973
0.46628,62.582
0.45064,61.995
0.43695,61.408
0.42522,61.017
0.41447,60.626
0.40567,60.039
0.39883,59.648
0.39198,59.257
0.3871,58.67
0.38319,58.279
0.37928,57.888
0.37634,57.301
0.37243,57.106
0.36852,56.91
0.36461,57.106
0.3607,57.888
0.35777,59.452
0.35386,62.973
0.34995,68.644
0.34604,76.467
0.34115,85.267
0.33724,94.068
0.33431,102.48
0.33138,109.91
0.32845,115.97
0.32454,120.86
0.3216,124.19
0.31769,126.14
0.31378,126.92
0.30987,126.73
0.30596,125.55
0.30303,123.99
0.29912,121.84
0.29521,119.49
0.29326,116.95
0.2913,114.41
0.28837,111.47
0.28543,108.34
0.2825,104.82
0.27859,101.11
0.27566,97.001
0.27175,93.09
0.26784,89.179
0.26393,85.854
0.261,82.725
0.261,80.378
0.26295,78.227
0.26979,76.662
0.2825,75.685
0.30401,74.902
0.33333,74.316
0.37146,73.924
0.41642,73.729
0.4653,73.729
0.51515,73.729
0.56305,73.729
0.60704,73.729
0.64516,73.729
0.67742,73.729
0.70088,73.729
0.71652,73.729
0.73021,73.533
0.739,73.142
0.74487,72.947
0.74585,72.36
0.74389,71.969
0.73705,71.578
0.72825,71.186
0.71554,70.6
0.6999,70.209
0.68133,69.622
0.66276,69.035
0.64418,68.644
0.62268,68.057
0.6002,67.666
0.57674,67.275
0.55327,66.884
0.53177,66.297
0.51124,65.906
0.49169,65.319
0.47507,64.733
0.46041,64.342
0.4477,63.755
0.43695,63.364
0.42913,62.973
0.42229,62.386
0.41642,61.799
0.41056,61.408
0.40567,60.821
0.40176,60.43
0.39785,60.039
0.39394,59.844
0.39101,59.648
0.38807,59.648
0.38514,60.235
0.38123,62.19
0.37928,65.906
0.37634,72.164
0.37341,80.378
0.37048,89.57
0.36657,98.761
0.36364,106.98
0.35973,114.41
0.35679,120.67
0.35386,125.55
0.34995,128.68
0.34702,130.44
0.34311,131.03
0.34018,130.64
0.33724,129.27
0.33529,127.71
0.33236,125.55
0.32942,123.4
0.32649,121.06
0.32356,118.51
0.31965,115.58
0.31672,112.65
0.31378,109.13
0.31085,105.61
0.30694,101.69
0.30401,97.588
0.30108,93.677
0.29912,89.961
0.29619,86.636
0.29521,83.703
0.29717,81.356
0.30499,79.596
0.31965,78.227
0.34213,77.249
0.37439,76.662
0.41349,76.076
0.45846,75.88
0.50733,75.685
0.55523,75.489
0.59629,75.489
0.62952,75.293
0.66373,75.293
0.69404,75.098
0.71848,74.902
0.73803,74.707
0.75269,74.316
0.76149,73.924
0.7654,73.533
0.76637,72.947
0.76246,72.36
0.75562,71.969
0.74682,71.382
0.73509,70.795
0.72141,70.209
0.70479,69.622
0.68524,69.035
0.66471,68.449
0.64223,68.057
0.61877,67.471
0.59433,67.08
0.57087,66.688
0.54839,66.102
0.52688,65.711
0.50733,65.124
0.49071,64.537
0.47703,63.95
0.46334,63.364
0.45161,62.973
0.44086,62.386
0.43109,61.799
0.42229,61.213
0.41544,60.821
0.4086,60.235
0.40274,59.844
0.39687,59.452
0.39198,59.061
0.3871,58.67
0.38416,58.67
0.37928,59.061
0.37439,60.43
0.3695,63.364
0.36461,69.035
0.35973,76.662
0.35484,86.05
0.34995,95.437
0.34506,104.43
0.34018,112.45
0.33529,119.1
0.33138,124.38
0.32747,128.1
0.32454,130.25
0.32063,131.23
0.31672,131.03
0.31281,130.05
0.3089,128.49
0.30499,126.34
0.30108,124.19
0.29619,121.84
0.29228,119.1
0.28837,116.36
0.28446,113.23
0.28152,109.71
0.27859,106.19
0.2737,102.28
0.26686,98.175
0.261,94.263
0.25611,90.352
0.25122,86.636
0.24829,83.703
0.24927,81.16
0.25415,79.009
0.26686,77.445
0.28837,76.271
0.31769,75.489
0.34995,74.902
0.38514,74.511
0.42815,74.316
0.47507,74.12
0.52199,73.924
0.56696,73.924
0.60606,73.924
0.6393,73.729
0.66667,73.729
0.68719,73.533
0.70283,73.338
0.71261,72.947
0.71652,72.751
0.71652,72.164
0.71359,71.773
0.7087,71.382
0.70088,70.795
0.69013,70.209
0.67644,69.622
0.6608,69.035
0.64223,68.644
0.6217,68.057
0.59922,67.471
0.57674,67.08
0.55327,66.493
0.53177,65.906
0.51222,65.515
0.49267,64.928
0.47214,64.537
0.45357,63.95
0.43695,63.364
0.42229,62.973
0.40958,62.386
0.39785,61.799
0.38905,61.408
0.38025,60.821
0.37341,60.235
0.36852,59.844
0.36364,59.257
0.35973,58.866
0.35582,58.475
0.35093,58.083
0.34702,57.888
0.34311,57.888
0.3392,58.475
0.33529,60.039
0.33138,63.364
0.32747,69.035
0.32356,76.858
0.31965,85.658
0.31672,94.655
0.31378,102.87
0.30987,110.3
0.30596,116.56
0.30205,121.25
0.29814,124.58
0.29521,126.34
0.2913,127.12
0.28739,126.73
0.28348,125.55
0.28055,123.79
0.27664,121.64
0.27468,119.3
0.27273,116.75
0.26979,114.02
0.26588,110.89
0.26295,107.56
0.25904,104.04
0.25611,100.13
0.2522,96.219
0.24927,92.112
0.24536,88.201
0.24145,84.681
0.23851,81.747
0.23754,79.205
0.23949,77.249
0.24536,75.685
0.25709,74.511
0.27664,73.533
0.30401,72.947
0.34115,72.555
0.38319,72.36
0.43011,72.164
0.47801,72.164
0.52395,72.164
0.56696,72.164
0.60411,72.164
0.63148,71.969
0.652,71.969
0.6696,71.773
0.68328,71.578
0.69208,71.186
0.69697,70.795
0.69795,70.6
0.69501,70.013
0.68915,69.622
0.67937,69.035
0.66667,68.644
0.652,68.057
0.63539,67.471
0.61877,67.08
0.59824,66.493
0.57674,66.102
0.55327,65.711
0.53079,65.124
0.50733,64.537
0.48583,64.146
0.4653,63.755
0.44673,63.168
0.43011,62.777
0.41544,62.19
0.40274,61.604
0.39296,61.213
0.38514,60.626
0.37732,60.235
0.37048,59.648
0.36461,59.257
0.35973,58.67
0.35484,58.279
0.35093,57.692
0.34702,57.301
0.34409,57.106
0.34018,56.91
0.33724,57.106
0.33431,58.083
0.33236,60.039
0.32942,64.146
0.32551,70.404
0.32258,78.422
0.31867,87.419
0.31476,96.024
0.31085,103.85
0.30694,110.89
0.30401,116.75
0.3001,121.06
0.29619,123.99
0.29326,125.55
0.29032,125.95
0.28837,125.36
0.28543,124.19
0.2825,122.43
0.27957,120.27
0.27566,117.93
0.27273,115.19
0.26882,112.45
0.26588,109.32
0.26197,105.8
0.25904,102.09
0.25611,98.175
0.25415,94.068
0.2522,89.961
0.24927,86.245
0.24536,82.921
0.24242,80.183
0.24145,77.836
0.24438,75.88
0.25122,74.511
0.26686,73.533
0.29032,72.751
0.3216,72.164
0.36168,71.969
0.40665,71.773
0.44868,71.773
0.48778,71.773
0.52981,71.773
0.57087,71.773
0.60802,71.773
0.6393,71.773
0.66471,71.773
0.68426,71.578
0.69795,71.382
0.70674,70.991
0.70968,70.6
0.70968,70.209
0.70577,69.818
0.69892,69.231
0.68915,68.84
0.67644,68.253
0.6608,67.666
0.64321,67.275
0.62268,66.688
0.6002,66.297
0.57674,65.906
0.55327,65.319
0.52884,64.733
0.50635,64.342
0.48387,63.95
0.46628,63.364
0.45064,62.973
0.43597,62.386
0.42131,61.995
0.40958,61.408
0.39785,61.017
0.38905,60.43
0.38123,59.844
0.37439,59.452
0.36852,58.866
0.36364,58.475
0.35973,58.083
0.35582,57.692
0.35386,57.301
0.35093,57.106
0.348,57.106
0.34506,57.692
0.34115,59.452
0.33822,62.777
0.33431,68.449
0.3304,76.076
0.32649,84.876
0.32258,93.677
0.31867,101.89
0.31476,109.13
0.31183,115.38
0.30987,120.08
0.30694,123.4
0.30303,125.36
0.3001,126.14
0.29619,125.95
0.29326,124.77
0.28935,123.21
0.28543,121.06
0.2825,118.9
0.27859,116.36
0.27566,113.62
0.27273,110.69
0.27077,107.37
0.26784,104.04
0.26491,100.13
0.26197,96.219
0.25806,92.112
0.25513,88.201
0.25122,84.681
0.24731,81.552
0.24633,79.009
0.24731,77.054
0.25415,75.293
0.26784,74.12
0.28543,73.338
0.3089,72.751
0.34213,72.36
0.38319,72.164
0.42913,71.969
0.47703,71.969
0.52493,71.969
0.56891,71.969
0.61486,71.969
0.65787,71.773
0.68915,71.773
0.71261,71.578
0.72727,71.382
0.73509,71.186
0.73998,70.795
0.74096,70.404
0.739,70.013
0.73314,69.426
0.72434,69.035
0.71261,68.449
0.69697,68.057
0.67937,67.471
0.65982,66.884
0.63734,66.493
0.61388,66.102
0.5914,65.711
0.57087,65.124
0.54839,64.733
0.5259,64.342
0.5044,63.755
0.48485,63.364
0.46628,62.777
0.45064,62.386
0.43597,61.799
0.42424,61.408
0.41447,60.821
0.40567,60.235
0.39883,59.844
0.39394,59.257
0.38807,58.866
0.38416,58.279
0.37928,57.888
0.37537,57.497
0.37146,57.106
0.36755,57.106
0.36461,57.497
0.3607,58.67
0.35679,61.408
0.35288,66.297
0.34897,73.729
0.34604,82.529
0.34311,91.721
0.34018,100.52
0.33627,108.34
0.33236,115.19
0.32845,120.67
0.32551,124.58
0.3216,127.12
0.31769,128.49
0.31476,128.68
0.31085,127.9
0.30694,126.53
0.30499,124.77
0.30303,122.43
0.3001,120.27
0.29717,117.54
0.29326,114.8
0.28935,111.67
0.28641,108.34
0.2825,104.82
0.27957,100.91
0.27566,96.806
0.27175,92.699
0.26784,88.788
0.26491,85.267
0.26295,82.138
0.26295,79.596
0.26588,77.64
0.27468,76.076
0.2913,74.707
0.31672,73.924
0.35191,73.338
0.39394,72.947
0.44184,72.751
0.49267,72.555
0.5435,72.555
0.59042,72.36
0.62854,72.36
0.65787,72.36
0.68622,72.164
0.71065,72.164
0.73021,71.969
0.74389,71.773
0.75171,71.578
0.75562,71.186
0.75562,70.795
0.75171,70.404
0.74389,69.818
0.73314,69.426
0.72043,68.84
0.70577,68.449
0.68817,67.862
0.66862,67.471
0.64614,67.08
0.6217,66.493
0.59726,66.102
0.57185,65.711
0.54741,65.319
0.52395,64.733
0.50244,64.342
0.48192,63.755
0.46432,63.168
0.44966,62.777
0.43793,62.19
0.42717,61.799
0.41642,61.408
0.40762,60.821
0.3998,60.43
0.39296,59.844
0.3871,59.452
0.38123,59.061
0.37732,58.67
0.37243,58.279
0.36852,58.083
0.36559,58.279
0.36364,59.257
0.35973,61.213
0.35679,65.319
0.35288,71.969
0.34995,80.183
0.34604,89.374
0.34213,98.37
0.33822,106.58
0.33431,113.62
0.3304,119.69
0.32649,124.19
0.32258,127.12
0.31965,128.88
0.31769,129.66
0.31476,129.07
0.31183,128.1
0.30792,126.34
0.30499,124.58
0.30205,122.43
0.29814,120.08
0.29521,117.54
0.2913,114.8
0.28837,111.67
0.28543,108.34
0.2825,104.63
0.28152,100.91
0.27859,96.806
0.27566,92.894
0.27175,89.179
0.26882,85.854
0.26784,83.116
0.26979,80.769
0.27761,78.814
0.29326,77.445
0.31769,76.467
0.35093,75.685
0.39101,75.098
0.43109,74.902
0.47116,74.707
0.51711,74.511
0.56403,74.511
0.60802,74.511
0.64712,74.511
0.68133,74.511
0.7087,74.316
0.73021,74.316
0.74585,73.924
0.75562,73.729
0.76149,73.338
0.76246,72.947
0.75953,72.555
0.75464,71.969
0.74585,71.382
0.73509,70.991
0.72239,70.404
0.70577,70.013
0.68719,69.426
0.66667,69.035
0.64418,68.449
0.62072,68.057
0.59726,67.471
0.5738,67.08
0.55327,66.493
0.5347,66.102
0.51613,65.515
0.49756,65.124
0.48094,64.537
0.46628,64.146
0.45357,63.559
0.44184,62.973
0.43304,62.582
0.42522,62.19
0.41838,61.604
0.41251,61.213
0.4086,60.626
0.40469,60.235
0.40078,59.844
0.39785,59.648
0.39394,59.648
0.39003,60.039
0.38612,61.604
0.38221,65.124
0.37928,71.186
0.37537,79.4
0.37146,88.592
0.36755,97.979
0.36364,106.78
0.35973,114.6
0.35777,121.06
0.35386,126.14
0.34995,129.66
0.34702,131.42
0.34311,132.2
0.3392,131.81
0.33627,130.83
0.33236,129.07
0.32845,127.31
0.32454,125.16
0.32063,122.82
0.31769,120.47
0.31574,117.73
0.31281,114.8
0.30987,111.47
0.30694,107.95
0.30303,104.24
0.3001,100.13
0.29619,96.024
0.2913,92.112
0.28837,88.396
0.28543,85.267
0.28739,82.725
0.29326,80.378
0.30401,78.618
0.32063,77.445
0.34702,76.467
0.38123,75.685
0.42424,75.293
0.47116,75.098
0.52102,74.902
0.56891,74.707
0.61388,74.707
0.65396,74.511
0.68719,74.316
0.71359,74.12
0.73216,73.924
0.74389,73.729
0.75269,73.338
0.75855,72.947
0.75953,72.555
0.75855,71.969
0.75367,71.382
0.74585,70.795
0.73509,70.404
0.72141,69.818
0.70479,69.231
0.68622,68.644
0.66569,68.057
0.64516,67.666
0.62561,67.08
0.59922,66.688
0.56989,66.297
0.5435,65.711
0.51906,65.319
0.49658,64.733
0.47703,64.342
0.45846,63.755
0.44184,63.168
0.42815,62.582
0.41544,61.995
0.40665,61.408
0.39883,61.017
0.39101,60.43
0.38416,60.039
0.3783,59.452
0.37243,59.061
0.36755,58.475
0.36266,58.279
0.35777,58.083
0.35288,58.083
0.34897,58.866
0.34409,60.821
0.34115,64.928
0.33724,71.382
0.33333,79.791
0.32942,88.983
0.32454,98.175
0.31965,106.78
0.31574,114.21
0.31085,120.27
0.30694,124.77
0.30303,127.71
0.29912,129.27
0.29521,129.66
0.2913,129.07
0.28837,127.71
0.28543,125.95
0.2825,123.79
0.27859,121.45
0.27566,118.9
0.27175,116.17
0.26784,113.23
0.26393,110.1
0.26002,106.58
0.25611,102.87
0.2522,98.761
0.24829,94.85
0.24536,90.743
0.2434,87.027
0.24047,83.898
0.23851,81.16
0.23949,78.814
0.24536,77.054
0.25709,75.685
0.27859,74.707
0.3089,73.924
0.34702,73.338
0.39198,73.142
0.43988,72.947
0.48974,72.751
0.53079,72.555
0.56598,72.555
0.60215,72.555
0.63343,72.36
0.65982,72.36
0.68035,72.164
0.69599,71.969
0.70577,71.578
0.71065,71.382
0.71163,70.795
0.70968,70.404
0.70283,69.818
0.69501,69.426
0.68426,68.84
0.67058,68.253
0.65494,67.666
0.63636,67.275
0.61486,66.688
0.59335,66.297
0.56989,65.906
0.54643,65.319
0.52297,64.928
0.49951,64.342
0.47801,63.95
0.45846,63.364
0.44184,62.973
0.42815,62.386
0.41544,61.799
0.40274,61.213
0.39198,60.821
0.38221,60.235
0.37439,59.844
0.36657,59.257
0.3607,58.67
0.35582,58.279
0.35093,57.888
0.34702,57.497
0.34311,57.106
0.34115,56.91
0.33724,57.106
0.33431,57.692
0.3304,59.648
0.32747,63.168
0.32356,69.035
0.31965,77.054
0.31574,86.05
0.31183,94.85
0.30792,103.06
0.30401,110.3
0.3001,116.36
0.29717,120.86
0.29521,123.99
0.29228,125.75
0.28837,126.34
0.28543,125.75
0.28152,124.38
0.27859,122.62
0.27468,120.47
0.27077,117.93
0.26686,115.38
0.26393,112.65
0.26002,109.52
0.25709,106
0.25513,102.28
0.2522,98.175
0.24927,94.263
0.24633,90.157
0.24242,86.441
0.23851,83.116
0.23558,80.378
0.23363,78.031
0.2346,76.076
0.24047,74.511
0.25318,73.338
0.27468,72.555
0.29912,72.164
0.32845,71.773
0.36755,71.578
0.41349,71.382
0.46139,71.382
0.50929,71.382
0.55425,71.382
0.59335,71.186
0.62757,71.186
0.65494,71.186
0.67644,70.991
0.6911,70.795
0.6999,70.6
0.70381,70.209
0.70479,69.622
0.70186,69.231
0.69697,68.84
0.68817,68.253
0.67546,67.666
0.6608,67.275
0.64321,66.688
0.62366,66.102
0.60117,65.711
0.57869,65.319
0.55425,64.928
0.53275,64.537
0.5132,63.95
0.49267,63.559
0.47312,62.973
0.45357,62.582
0.43597,61.995
0.42131,61.408
0.40762,61.017
0.39589,60.43
0.38612,60.039
0.3783,59.452
0.37048,59.061
0.36559,58.475
0.36168,58.083
0.35679,57.692
0.35288,57.106
0.34995,56.91
0.34604,56.519
0.34213,56.519
0.3392,56.715
0.33627,57.692
0.33236,60.039
0.32845,64.537
0.32551,71.186
0.3216,79.596
0.31867,88.201
0.31574,96.61
0.31281,104.24
0.30987,110.89
0.30596,116.36
0.30205,120.27
0.29912,122.82
0.29521,124.19
0.29228,124.38
0.28837,123.6
0.28543,122.23
0.28152,120.08
0.27957,117.93
0.27664,115.19
0.2737,112.45
0.27077,109.52
0.26784,106.19
0.26491,102.67
0.261,98.761
0.25806,94.85
0.25415,90.743
0.25122,86.832
0.24731,83.312
0.2434,80.378
0.24047,77.836
0.24047,75.88
0.24242,74.12
0.24927,72.947
0.26197,72.164
0.28348,71.578
0.31281,71.186
0.34995,70.795
0.39394,70.795
0.44086,70.6
0.48876,70.6
0.5347,70.6
0.57674,70.6
0.60899,70.6
0.63441,70.6
0.65787,70.404
0.67742,70.209
0.69208,70.013
0.70088,69.818
0.70577,69.426
0.70674,69.035
0.70283,68.449
0.69501,68.057
0.68426,67.471
0.67058,67.08
0.65396,66.493
0.63734,66.102
0.61877,65.515
0.59824,65.124
0.57576,64.537
0.5523,64.146
0.52884,63.755
0.50635,63.364
0.48485,62.777
0.4653,62.386
0.44673,61.799
0.43109,61.408
0.4174,60.821
0.40567,60.43
0.39785,59.844
0.38905,59.452
0.38221,58.866
0.37537,58.279
0.3695,57.888
0.36461,57.497
0.35973,56.91
0.35582,56.519
0.35777,56.323
0.36266,56.128
0.36364,56.128
0.36266,56.715
0.36168,58.279
0.35973,61.799
0.35582,67.471
0.35288,75.098
0.34897,84.094
0.34506,92.699
0.34115,100.91
0.33724,108.15
0.33333,114.6
0.32942,119.49
0.32551,123.01
0.3216,125.16
0.31965,125.95
0.31672,125.75
0.31378,124.77
0.31085,123.01
0.30792,121.06
0.30401,118.71
0.3001,116.17
0.29717,113.43
0.29326,110.3
0.29032,107.17
0.28641,103.46
0.28348,99.544
0.28055,95.632
0.27859,91.525
0.27566,87.614
0.27175,84.289
0.26784,81.16
0.26588,78.814
0.26491,76.662
0.26979,75.098
0.28055,73.924
0.29912,73.142
0.32649,72.555
0.36364,72.36
0.40762,72.164
0.44966,72.164
0.49071,72.164
0.53666,72.164
0.5826,72.164
0.62463,72.164
0.66276,72.164
0.69404,72.164
0.71945,72.164
0.73803,71.969
0.75073,71.773
0.75855,71.382
0.76149,70.991
0.75953,70.6
0.75464,70.209
0.74682,69.622
0.73509,69.035
0.72141,68.644
0.70381,68.057
0.68426,67.666
0.66276,67.275
0.6393,66.688
0.61486,66.297
0.58944,65.906
0.565,65.515
0.54154,64.928
0.52199,64.537
0.5044,64.146
0.4868,63.559
0.47116,63.168
0.4565,62.777
0.44379,62.19
0.43304,61.799
0.42424,61.408
0.41642,60.821
0.40958,60.43
0.40469,59.844
0.3998,59.452
0.39589,59.061
0.39296,58.67
0.39003,58.279
0.3871,58.279
0.38416,58.475
0.38025,59.844
0.37634,62.582
0.37341,67.666
0.3695,75.098
0.36559,83.898
0.36266,92.894
0.35875,101.5
0.35484,109.13
0.35191,115.97
0.34995,121.25
0.34702,124.97
0.34409,127.31
0.34115,128.49
0.33822,128.49
0.33431,127.51
0.33138,126.14
0.32845,124.19
0.32551,122.03
0.32258,119.69
0.31965,117.34
0.31672,114.6
0.31574,111.47
0.31281,108.15
0.31085,104.43
0.30792,100.72
0.30499,96.61
0.30205,92.503
0.29814,88.788
0.29521,85.463
0.29228,82.725
0.29228,80.378
0.29619,78.618
0.30596,77.249
0.31965,76.271
0.3392,75.489
0.3695,75.098
0.40762,74.902
0.45357,74.707
0.50244,74.902
0.5523,74.902
0.6002,74.902
0.64321,74.902
0.68133,74.902
0.71359,74.707
0.739,74.511
0.75562,74.316
0.7654,73.924
0.77322,73.533
0.7781,72.947
0.7781,72.164
0.77517,71.578
0.76931,70.991
0.75953,70.404
0.74682,69.818
0.73118,69.426
0.71261,68.84
0.69208,68.449
0.6696,67.862
0.64809,67.471
0.62757,67.08
0.60508,66.493
0.58162,66.102
0.55914,65.711
0.53763,65.124
0.51808,64.537
0.50147,63.95
0.48583,63.364
0.47214,62.777
0.46139,62.19
0.45161,61.604
0.44379,61.213
0.43793,60.626
0.43206,60.235
0.42717,59.844
0.42229,59.257
0.4174,58.866
0.41349,58.475
0.40958,58.279
0.40469,58.279
0.40078,59.257
0.39589,61.408
0.39198,65.515
0.3871,72.164
0.38319,80.769
0.37928,90.157
0.37537,99.153
0.37048,107.56
0.36657,114.99
0.36168,121.06
0.35777,125.55
0.35386,128.49
0.34995,130.05
0.34604,130.25
0.34213,129.86
0.33724,128.49
0.33431,126.53
0.33138,124.58
0.32845,122.23
0.32356,119.69
0.31965,117.14
0.31476,114.21
0.31085,110.89
0.30694,107.37
0.30303,103.65
0.29814,99.544
0.29423,95.437
0.28935,91.33
0.28543,87.614
0.2825,84.289
0.28055,81.552
0.28152,79.4
0.28543,77.64
0.29717,76.271
0.31574,75.293
0.34409,74.707
0.38123,74.316
0.4262,73.924
0.4741,73.924
0.52493,73.729
0.5738,73.729
0.6129,73.729
0.64516,73.533
0.67644,73.533
0.70381,73.338
0.7263,73.142
0.74194,72.947
0.75367,72.555
0.75953,72.164
0.76149,71.773
0.75953,71.186
0.75367,70.6
0.74389,70.013
0.73216,69.426
0.71848,69.035
0.70381,68.449
0.68524,67.862
0.66471,67.471
0.64125,66.884
0.61779,66.493
0.59335,65.906
0.56794,65.515
0.54448,65.124
0.52199,64.537
0.50049,64.146
0.48192,63.559
0.46628,62.973
0.45357,62.386
0.44184,61.995
0.43109,61.408
0.42131,60.821
0.41251,60.235
0.40567,59.844
0.39883,59.257
0.39394,58.866
0.38905,58.279
0.38416,58.083
0.38025,57.692
0.37732,57.497
0.37439,57.888
0.37048,58.67
0.36657,61.017
0.36266,65.319
0.35875,71.969
0.35386,80.378
0.34995,89.374
0.34506,97.979
0.34115,106.19
0.33627,113.23
0.33236,118.71
0.32845,122.82
0.32551,125.55
0.32356,126.92
0.32063,127.12
0.31281,126.34
0.30401,124.77
0.29814,122.82
0.29228,120.47
0.28837,117.93
0.28348,115.19
0.27957,112.26
0.27566,108.93
0.27273,105.41
0.26979,101.69
0.26784,97.784
0.26491,93.481
0.261,89.57
0.25806,85.854
0.25415,82.529
0.25024,79.791
0.24829,77.64
0.24927,75.88
0.25513,74.511
0.26784,73.533
0.28837,72.751
0.31769,72.164
0.34897,71.969
0.38319,71.773
0.42522,71.773
0.47214,71.773
0.51808,71.578
0.56207,71.578
0.6002,71.578
0.63343,71.578
0.6608,71.382
0.68035,71.186
0.69501,70.991
0.70479,70.6
0.70772,70.404
0.70772,69.818
0.70381,69.426
0.69795,68.84
0.68817,68.253
0.67644,67.666
0.66178,67.275
0.64418,66.688
0.62366,66.102
0.60215,65.711
0.57869,65.124
0.55523,64.733
0.53177,64.342
0.51124,63.755
0.49267,63.364
0.47312,62.973
0.45552,62.386
0.43793,61.799
0.42326,61.408
0.41056,60.821
0.39883,60.43
0.38905,59.844
0.38123,59.452
0.37439,58.866
0.36852,58.475
0.36461,57.888
0.3607,57.497
0.35777,57.106
0.35386,56.715
0.35093,56.519
0.34702,56.715
0.34409,57.106
0.34018,58.279
0.33627,61.213
0.33333,66.297
0.32942,73.533
0.32551,81.943
0.3216,90.548
0.31867,98.566
0.31574,106
0.31281,112.26
0.3089,117.14
0.30596,120.67
0.30205,122.82
0.29814,123.6
0.29521,123.6
0.2913,122.43
0.28837,120.86
0.28446,118.71
0.28152,116.36
0.27859,113.62
0.27664,110.69
0.2737,107.56
0.27077,104.04
0.26784,100.33
0.26393,96.415
0.261,92.308
0.25806,88.396
0.25415,84.681
0.25024,81.552
0.24731,78.814
0.24438,76.467
0.24438,74.707
0.24633,73.338
0.25318,72.164
0.26588,71.382
0.28641,70.991
0.31574,70.6
0.35288,70.6
0.39589,70.404
0.44184,70.404
0.48876,70.404
0.5347,70.404
0.57576,70.209
0.61193,70.209
0.63832,70.209
0.65787,70.013
0.67449,69.818
0.68817,69.622
0.69599,69.231
0.6999,68.84
0.6999,68.449
0.69599,68.057
0.68817,67.471
0.67644,67.08
0.66178,66.493
0.64516,66.102
0.62561,65.711
0.60606,65.124
0.58749,64.733
0.56598,64.342
0.5435,63.755
0.52102,63.364
0.49853,62.973
0.47801,62.386
0.45846,61.995
0.44184,61.408
0.4262,61.017
0.41251,60.43
0.40176,59.844
0.39296,59.452
0.38612,58.866
0.37928,58.475
0.37341,57.888
0.36755,57.497
0.36364,56.91
0.35875,56.715
0.35484,56.323
0.35191,56.128
0.348,56.128
0.34506,56.519
0.34115,57.692
0.33822,60.235
0.33529,64.733
0.33333,71.578
0.3304,79.791
0.32747,88.396
0.32356,96.61
0.31965,103.85
0.31672,110.3
0.31281,115.38
0.3089,119.3
0.30499,121.64
0.30205,122.82
0.29814,122.82
0.29619,122.03
0.29423,120.47
0.2913,118.32
0.28837,115.97
0.28446,113.43
0.28152,110.5
0.27761,107.37
0.2737,104.04
0.27077,100.52
0.26686,96.61
0.26393,92.503
0.26002,88.592
0.25611,84.681
0.25318,81.356
0.25122,78.422
0.24927,76.076
0.24731,74.316
0.24829,72.751
0.25415,71.773
0.26686,70.991
0.28641,70.6
0.31476,70.209
0.35093,70.013
0.39296,70.013
0.43891,70.013
0.47898,70.013
0.51515,70.013
0.55327,70.013
0.58847,70.013
0.61975,70.013
0.64614,69.818
0.66569,69.622
0.68035,69.426
0.69013,69.035
0.69404,68.84
0.69501,68.253
0.6911,67.862
0.68426,67.471
0.67449,67.08
0.66276,66.493
0.64712,65.906
0.62952,65.515
0.60899,65.124
0.58749,64.537
0.565,64.146
0.54154,63.755
0.51906,63.168
0.49658,62.777
0.47605,62.19
0.4565,61.799
0.44184,61.408
0.42815,60.821
0.41642,60.235
0.40469,59.844
0.39492,59.257
0.38612,58.866
0.3783,58.475
0.37146,57.888
0.36657,57.497
0.36168,56.91
0.35777,56.519
0.35386,56.128
0.35093,55.932
0.348,55.932
0.34604,56.128
0.34213,57.106
0.3392,59.648
0.33627,63.95
0.33236,70.6
0.32845,79.009
0.32454,87.81
0.32063,96.219
0.31769,104.04
0.31378,110.69
0.30987,116.36
0.30694,120.67
0.30499,123.4
0.30205,124.77
0.29814,125.16
0.29521,124.58
0.2913,123.01
0.28837,121.25
0.28446,118.9
0.28055,116.56
0.27761,113.82
0.2737,110.89
0.27077,107.56
0.26784,104.04
0.26686,100.33
0.26393,96.415
0.261,92.112
0.25709,88.201
0.25318,84.485
0.24927,81.16
0.24633,78.422
0.24438,76.271
0.24438,74.511
0.2522,73.142
0.26882,72.164
0.2913,71.382
0.31672,70.795
0.34702,70.6
0.38612,70.404
0.43109,70.404
0.47996,70.404
0.52786,70.404
0.57283,70.404
0.6129,70.404
0.64809,70.209
0.67644,70.209
0.69892,70.013
0.71554,69.818
0.72532,69.622
0.72923,69.231
0.73118,69.035
0.73021,68.449
0.72434,68.057
0.71652,67.471
0.70479,67.08
0.69013,66.688
0.67253,66.102
0.65298,65.711
0.63148,65.124
0.60802,64.733
0.58358,64.342
0.56207,63.755
0.54154,63.364
0.52102,62.973
0.49951,62.386
0.47996,61.799
0.46237,61.408
0.44673,60.821
0.43304,60.235
0.42033,59.844
0.41056,59.257
0.40078,58.866
0.39296,58.279
0.3871,57.888
0.38319,57.301
0.3783,56.91
0.37341,56.519
0.3695,56.128
0.36559,55.932
0.36168,56.128
0.35777,56.91
0.35386,59.061
0.34995,62.973
0.34604,69.231
0.34213,77.445
0.33822,86.245
0.33529,95.046
0.33236,103.06
0.32942,110.3
0.32649,116.36
0.32258,121.06
0.31867,123.99
0.31476,125.95
0.31085,126.53
0.30792,125.95
0.30401,124.77
0.3001,122.82
0.29619,120.67
0.29326,118.12
0.2913,115.38
0.28837,112.65
0.28446,109.52
0.28055,106
0.27761,102.48
0.2737,98.566
0.26979,94.655
0.26588,90.548
0.26197,86.832
0.25806,83.507
0.25415,80.769
0.2522,78.227
0.2522,76.467
0.25611,74.902
0.26491,73.729
0.28152,72.947
0.30596,72.164
0.3392,71.969
0.37928,71.773
0.42424,71.578
0.47214,71.578
0.52004,71.578
0.565,71.578
0.60606,71.578
0.63636,71.578
0.6608,71.773
0.68231,71.578
0.70088,71.382
0.71359,71.186
0.72239,70.991
0.72727,70.6
0.72727,70.209
0.72434,69.818
0.7175,69.231
0.70674,68.84
0.69404,68.253
0.67742,67.862
0.66178,67.471
0.64418,66.884
0.62366,66.493
0.60215,66.102
0.57967,65.515
0.55718,65.124
0.53568,64.537
0.51417,64.146
0.4956,63.559
0.47801,63.168
0.46237,62.582
0.44868,62.19
0.43793,61.604
0.42913,61.213
0.42131,60.626
0.41349,60.235
0.40665,59.844
0.40078,59.452
0.39589,58.866
0.39101,58.475
0.3871,58.279
0.38416,58.083
0.38025,58.083
0.37732,58.475
0.37439,60.235
0.37146,63.755
0.36852,69.622
0.36559,77.64
0.36266,86.636
0.35875,95.632
0.35582,104.04
0.35191,111.47
0.34897,118.12
0.34506,123.21
0.34213,126.92
0.33822,128.88
0.33529,129.86
0.33333,129.47
0.33138,128.29
0.32845,126.53
0.32551,124.38
0.32258,122.03
0.31965,119.49
0.31672,116.75
0.31281,113.82
0.30987,110.69
0.30596,107.17
0.30303,103.46
0.3001,99.544
0.29717,95.241
0.29521,91.134
0.29326,87.419
0.29032,84.094
0.28837,81.16
0.28739,78.814
0.28935,77.054
0.29717,75.489
0.31281,74.511
0.33529,73.729
0.36755,73.338
0.40567,73.142
0.45064,72.947
0.49071,72.947
0.52884,72.947
0.56989,72.947
0.60899,72.947
0.64516,72.947
0.67546,72.947
0.70088,72.751
0.72043,72.555
0.73509,72.164
0.74389,71.773
0.74878,71.382
0.75073,70.795
0.7478,70.209
0.74194,69.622
0.73412,69.035
0.72336,68.449
0.70968,67.862
0.69306,67.471
0.67449,66.884
0.65494,66.493
0.63245,65.906
0.60997,65.515
0.58749,65.124
0.565,64.537
0.54252,64.146
0.52493,63.559
0.50831,62.973
0.49267,62.582
0.47801,61.995
0.46432,61.408
0.45259,61.017
0.44184,60.43
0.43304,59.844
0.42522,59.452
0.41838,58.866
0.41251,58.475
0.40665,57.888
0.40274,57.497
0.39883,57.106
0.39492,57.106
0.39003,57.106
0.38514,58.083
0.38123,60.235
0.37634,64.537
0.37146,71.186
0.36657,79.596
0.36168,88.788
0.35679,97.393
0.35191,105.61
0.34702,112.65
0.34311,118.71
0.34018,123.01
0.33627,125.95
0.33138,127.51
0.32747,127.9
0.32356,127.12
0.31867,125.75
0.31476,123.79
0.31085,121.25
0.30596,118.71
0.30205,115.97
0.29814,113.04
0.29521,109.71
0.29228,106.19
0.28935,102.67
0.28641,98.761
0.2825,94.655
0.27859,90.548
0.27468,86.636
0.27077,83.116
0.26686,79.987
0.26393,77.64
0.26295,75.685
0.26686,73.924
0.27761,72.947
0.29228,71.969
0.31281,71.382
0.34213,70.991
0.38025,70.795
0.42326,70.795
0.46921,70.795
0.51515,70.795
0.55914,70.795
0.59824,70.795
0.63148,70.795
0.65982,70.6
0.68133,70.6
0.69501,70.404
0.70381,70.209
0.71065,69.818
0.71359,69.426
0.71261,69.035
0.70674,68.449
0.6999,68.057
0.68915,67.471
0.67644,67.08
0.6608,66.493
0.64321,65.906
0.62268,65.515
0.60117,64.928
0.58162,64.537
0.56305,64.146
0.54252,63.755
0.52102,63.168
0.50049,62.777
0.48192,62.19
0.46432,61.604
0.4477,61.213
0.43402,60.626
0.42131,60.039
0.41153,59.648
0.40176,59.061
0.39492,58.475
0.39003,58.083
0.38514,57.497
0.38025,57.106
0.37537,56.715
0.37146,56.323
0.36755,55.932
0.36364,55.737
0.35973,55.932
0.35582,56.715
0.35191,58.475
0.348,62.19
0.34409,68.253
0.34115,75.88
0.33822,84.485
0.33529,92.894
0.33138,100.72
0.32747,107.76
0.32356,113.82
0.31965,118.32
0.31672,121.64
0.31281,123.4
0.30987,123.99
0.30596,123.6
0.30303,122.23
0.3001,120.27
0.29814,117.93
0.29521,115.19
0.29228,112.26
0.28837,109.13
0.28543,105.61
0.28152,101.89
0.27761,97.979
0.2737,94.068
0.27077,89.961
0.26686,86.05
0.26393,82.334
0.26002,79.205
0.25709,76.662
0.25611,74.511
0.25611,72.751
0.25806,71.578
0.26588,70.6
0.27957,70.013
0.30205,69.622
0.33138,69.231
0.36852,69.035
0.41056,69.035
0.45552,69.035
0.50147,69.035
0.53861,69.035
0.57087,69.231
0.60313,69.231
0.63245,69.035
0.65591,69.035
0.67449,68.84
0.68817,68.644
0.69697,68.449
0.70088,68.057
0.70088,67.666
0.69697,67.275
0.68915,66.688
0.6784,66.297
0.66569,65.906
0.652,65.319
0.63441,64.928
0.61486,64.537
0.59335,63.95
0.57185,63.559
0.54936,63.168
0.52786,62.777
0.50733,62.19
0.48778,61.799
0.46921,61.213
0.45357,60.626
0.44086,60.235
0.43011,59.648
0.42033,59.257
0.41056,58.67
0.40274,58.279
0.39492,57.692
0.38905,57.301
0.38319,56.715
0.3783,56.323
0.37341,55.932
0.3695,55.541
0.36657,55.346
0.36266,55.346
0.35973,55.346
0.35777,56.128
0.35484,58.083
0.35191,61.604
0.34897,67.471
0.34604,74.902
0.34213,83.116
0.3392,91.33
0.33529,98.761
0.33236,105.41
0.32845,111.08
0.32551,115.58
0.32258,118.71
0.32063,120.47
0.31769,121.06
0.31476,120.47
0.31183,119.1
0.30792,116.95
0.30499,114.6
0.30108,111.86
0.29814,108.93
0.29423,105.61
0.29032,102.28
0.28739,98.566
0.28543,94.655
0.28348,90.548
0.28055,86.441
0.27761,82.921
0.27468,79.596
0.27175,76.858
0.26784,74.511
0.26491,72.751
0.26491,71.186
0.26784,70.209
0.27566,69.426
0.2913,68.84
0.31476,68.449
0.34018,68.253
0.3695,68.253
0.40762,68.253
0.45064,68.253
0.49462,68.253
0.53861,68.253
0.57771,68.253
0.6129,68.253
0.64223,68.253
0.66569,68.253
0.68426,68.057
0.69599,67.862
0.70283,67.666
0.70479,67.275
0.70381,66.884
0.6999,66.493
0.69208,66.102
0.68133,65.711
0.66764,65.124
0.652,64.733
0.63343,64.342
0.6129,63.95
0.5914,63.364
0.56891,62.973
0.54643,62.582
0.52786,62.19
0.51026,61.604
0.49267,61.213
0.47605,60.626
0.46041,60.235
0.44673,59.648
0.435,59.257
0.42424,58.67
0.41447,58.279
0.40665,57.888
0.3998,57.301
0.39394,56.91
0.39003,56.519
0.3871,55.932
0.38319,55.541
0.38025,55.346
0.37732,55.15
0.37439,55.15
0.37048,55.541
0.36755,56.715
0.36461,59.648
0.36168,64.537
0.35777,71.382
0.35484,79.596
0.35093,88.005
0.348,96.024
0.34604,103.26
0.34311,109.71
0.34018,114.8
0.33627,118.71
0.33333,121.25
0.3304,122.43
0.32649,122.43
0.32356,121.64
0.31965,119.88
0.31672,117.93
0.31281,115.38
0.31085,112.65
0.3089,109.52
0.30596,106.39
0.30205,102.87
0.29912,99.153
0.29619,95.046
0.29228,90.939
0.28935,87.027
0.28641,83.116
0.2825,79.791
0.27859,77.054
0.27566,74.902
0.2737,73.142
0.27468,71.773
0.27957,70.6
0.28935,69.818
0.30694,69.231
0.33138,69.035
0.36461,68.84
0.40469,68.84
0.44966,68.84
0.4956,68.84
0.54154,68.84
0.58456,68.84
0.62366,68.84
0.65298,68.84
0.67449,68.84
0.69501,68.644
0.71163,68.644
0.72336,68.253
0.73021,68.057
0.73216,67.666
0.73118,67.275
0.72532,66.884
0.71652,66.297
0.70381,65.906
0.68915,65.515
0.67058,64.928
0.652,64.537
0.63343,64.146
0.6129,63.755
0.59042,63.168
0.56696,62.973
0.54448,62.386
0.52395,61.995
0.50342,61.408
0.48485,61.017
0.46921,60.43
0.45552,60.039
0.44379,59.452
0.43402,59.061
0.4262,58.475
0.41838,58.279
0.41153,57.692
0.40469,57.301
0.39883,56.91
0.39394,56.519
0.39003,56.128
0.38514,55.932
0.38123,55.932
0.37732,56.128
0.37439,57.106
0.37048,59.452
0.36755,63.755
0.36559,70.209
0.36266,78.227
0.35875,87.027
0.35484,95.241
0.35093,102.87
0.34702,109.52
0.34311,115.19
0.3392,119.69
0.33627,122.62
0.33236,123.99
0.32845,124.38
0.32551,123.79
0.32356,122.23
0.32063,120.27
0.31769,117.73
0.31378,115.19
0.31085,112.45
0.30694,109.32
0.30303,106.19
0.29912,102.67
0.29521,98.957
0.29228,95.046
0.28837,90.939
0.28446,87.223
0.2825,83.703
0.28055,80.769
0.27761,78.227
0.27468,76.271
0.27468,74.707
0.27761,73.533
0.28739,72.555
0.30401,71.969
0.32942,71.578
0.36364,71.382
0.40469,71.382
0.45161,71.382
0.49462,71.578
0.53372,71.578
0.57674,71.773
0.61877,71.773
0.65591,71.773
0.68817,71.773
0.71457,71.773
0.73412,71.578
0.7478,71.382
0.7566,70.991
0.76051,70.6
0.75953,70.209
0.75464,69.622
0.7478,69.231
0.73705,68.84
0.72336,68.253
0.70674,67.862
0.68817,67.471
0.66764,66.884
0.64516,66.493
0.6217,66.102
0.59726,65.711
0.57478,65.319
0.5523,64.733
0.53177,64.342
0.51417,63.755
0.50049,63.364
0.48583,62.777
0.47312,62.386
0.46139,61.799
0.45161,61.408
0.44379,60.821
0.43597,60.43
0.43011,59.844
0.42522,59.452
0.42131,59.061
0.4174,58.67
0.41349,58.279
0.41056,58.279
0.4086,58.475
0.40567,59.452
0.40274,61.604
0.3998,66.102
0.39687,72.947
0.39296,81.356
0.39003,90.352
0.38612,99.153
0.38319,107.17
0.37928,114.41
0.37634,120.47
0.37341,124.97
0.37146,127.9
0.36852,129.47
0.36559,129.66
0.36266,128.88
0.35875,127.31
0.35582,125.36
0.35191,123.01
0.34897,120.67
0.34506,117.93
0.34213,115.19
0.33822,112.26
0.33529,108.93
0.33333,105.41
0.33138,101.69
0.32747,97.784
0.32454,93.677
0.32063,89.961
0.31672,86.441
0.31378,83.312
0.31085,80.965
0.30987,78.814
0.31378,77.249
0.32356,75.88
0.34213,75.098
0.36364,74.316
0.39003,73.924
0.42717,73.729
0.47116,73.533
0.52004,73.533
0.56891,73.533
0.61584,73.533
0.65885,73.533
0.69599,73.338
0.72727,73.142
0.75171,72.947
0.77028,72.751
0.78104,72.36
0.78592,71.969
0.78886,71.578
0.78886,70.991
0.78495,70.6
0.7781,70.013
0.76833,69.426
0.75464,69.035
0.739,68.449
0.72043,68.057
0.6999,67.471
0.67742,67.08
0.65396,66.688
0.63245,66.102
0.61193,65.711
0.58944,65.319
0.56696,64.733
0.54643,64.146
0.5259,63.559
0.50831,62.973
0.49169,62.386
0.47703,61.799
0.4653,61.408
0.45455,60.821
0.44477,60.235
0.43793,59.844
0.43109,59.257
0.42522,58.866
0.41935,58.279
0.41447,58.083
0.4086,57.888
0.40371,57.888
0.39883,58.279
0.39394,59.844
0.38905,63.364
0.38416,69.035
0.37928,77.054
0.37439,85.854
0.37048,94.85
0.36657,103.26
0.36266,110.89
0.35777,117.34
0.35386,122.43
0.34897,126.14
0.34506,128.29
0.34018,129.07
0.33627,128.68
0.33138,127.51
0.32747,125.75
0.32356,123.6
0.32063,121.25
0.31769,118.71
0.31378,115.78
0.30987,112.65
0.30596,109.32
0.30205,105.8
0.29717,102.09
0.29326,97.979
0.28935,93.872
0.28446,89.961
0.27957,86.245
0.27566,82.921
0.27077,80.378
0.26979,78.227
0.27077,76.467
0.27566,75.098
0.28739,74.12
0.30694,73.338
0.33529,72.947
0.37243,72.751
0.41642,72.555
0.4653,72.555
0.51515,72.36
0.56403,72.36
0.60802,72.36
0.64321,72.36
0.67058,72.36
0.69501,72.36
0.71652,72.164
0.73216,71.969
0.74291,71.578
0.74878,71.186
0.75073,70.795
0.7478,70.404
0.74194,69.818
0.73216,69.426
0.71945,68.84
0.70381,68.449
0.68719,67.862
0.66862,67.275
0.64809,66.884
0.62561,66.297
0.60117,65.906
0.57771,65.515
0.55327,64.928
0.52981,64.537
0.50831,63.95
0.48876,63.364
0.47019,62.777
0.45455,62.19
0.44184,61.604
0.43206,61.213
0.42229,60.626
0.41349,60.039
0.40567,59.648
0.39883,59.061
0.39198,58.67
0.3871,58.279
0.38221,57.888
0.37732,57.497
0.37341,57.301
0.3695,57.497
0.36559,58.279
0.36266,60.235
0.3607,63.95
0.35679,70.013
0.35386,77.836
0.34409,86.636
0.33333,95.241
0.32551,103.26
0.31965,110.3
0.31476,116.36
0.31085,121.06
0.30694,123.99
0.30303,125.75
0.3001,126.34
0.29814,125.95
0.29521,124.58
0.29228,122.62
0.28837,120.47
0.28543,117.93
0.28152,115.19
0.27761,112.06
0.2737,108.93
0.27077,105.41
0.26686,101.5
0.26295,97.588
0.26002,93.481
0.25709,89.374
0.25513,85.658
0.2522,82.334
0.24927,79.596
0.24633,77.249
0.24536,75.489
0.24633,74.12
0.25318,73.142
0.26686,72.555
0.28837,72.164
0.31867,71.773
0.35582,71.578
0.39296,71.578
0.43011,71.578
0.47312,71.578
0.51613,71.578
0.55816,71.578
0.59531,71.578
0.62659,71.578
0.65298,71.578
0.67155,71.382
0.68524,70.991
0.69404,70.795
0.69795,70.404
0.69795,70.013
0.69306,69.426
0.68622,69.035
0.67644,68.449
0.66373,67.862
0.64712,67.471
0.62952,66.884
0.60899,66.493
0.58749,66.102
0.56403,65.711
0.54057,65.124
0.51808,64.733
0.4956,64.146
0.47703,63.755
0.46139,63.168
0.44477,62.777
0.43011,62.19
0.41642,61.604
0.40469,61.213
0.39394,60.626
0.38514,60.235
0.3783,59.648
0.37146,59.257
0.36559,58.67
0.3607,58.279
0.35679,57.692
0.35386,57.497
0.35093,57.301
0.348,57.301
0.34506,57.692
0.34115,58.866
0.33822,61.604
0.33529,66.102
0.33138,73.142
0.32845,81.356
0.32454,89.961
0.32063,97.979
0.31769,105.41
0.31476,111.86
0.31281,117.34
0.30987,121.25
0.30694,123.6
0.30401,124.77
0.3001,124.97
0.29717,123.99
0.29423,122.43
0.29032,120.27
0.28739,117.73
0.28348,115.19
0.28055,112.26
0.27761,109.13
0.27566,105.61
0.2737,102.09
0.26979,97.979
0.26686,94.068
0.26393,89.961
0.261,86.05
0.25709,82.725
0.25318,79.791
0.25024,77.445
0.24829,75.489
0.24829,73.924
0.25318,72.947
0.261,72.164
0.27468,71.578
0.29619,71.382
0.32649,71.186
0.36461,71.186
0.40762,71.186
0.45357,71.186
0.49951,71.186
0.5435,71.186
0.5826,71.186
0.61681,71.186
0.64516,71.186
0.66471,71.186
0.67742,70.991
0.68817,70.6
0.69404,70.404
0.69697,69.818
0.69501,69.426
0.69013,69.035
0.68133,68.449
0.6696,68.057
0.65396,67.471
0.63636,67.08
0.61681,66.493
0.59531,66.102
0.57478,65.711
0.55523,65.319
0.53372,64.733
0.51222,64.342
0.49071,63.755
0.47019,63.364
0.45259,62.777
0.43597,62.386
0.42131,61.799
0.40958,61.408
0.39883,60.821
0.38905,60.43
0.38221,59.844
0.37732,59.452
0.37146,59.061
0.36657,58.475
0.36266,58.083
0.35875,57.692
0.35484,57.497
0.35191,57.497
0.34897,57.888
0.34506,58.866
0.34213,61.408
0.3392,65.906
0.33529,72.751
0.33333,80.965
0.3304,89.765
0.32747,97.979
0.32454,105.8
0.32063,112.84
0.31769,118.51
0.31378,122.82
0.31085,125.55
0.30694,126.92
0.30401,127.12
0.3001,126.53
0.29717,125.16
0.29423,123.21
0.29228,121.06
0.29032,118.51
0.28641,115.78
0.28348,112.65
0.27957,109.52
0.27664,105.8
0.2737,102.09
0.26979,97.979
0.26686,93.872
0.26295,89.765
0.26002,86.05
0.25611,82.921
0.25415,80.183
0.25318,78.031
0.25318,76.271
0.25611,74.902
0.26393,73.924
0.27859,73.338
0.30108,72.947
0.33236,72.555
0.37146,72.36
0.41544,72.36
0.46237,72.36
0.50929,72.36
0.54936,72.36
0.5826,72.36
0.61584,72.36
0.64516,72.164
0.6696,72.164
0.68915,71.773
0.70283,71.578
0.71163,71.186
0.71554,70.795
0.71554,70.404
0.71065,70.013
0.70283,69.622
0.69208,69.035
0.67937,68.644
0.66471,68.253
0.64712,67.666
0.62757,67.275
0.60508,66.884
0.58162,66.297
0.55816,65.906
0.5347,65.319
0.51124,64.733
0.49071,64.342
0.47116,63.755
0.45357,63.364
0.43891,62.777
0.42717,62.19
0.41642,61.799
0.40665,61.213
0.39687,60.821
0.38905,60.235
0.38221,59.844
0.37634,59.257
0.37048,58.67
0.36657,58.279
0.36168,58.083
0.35777,58.083
0.35386,58.475
0.35093,59.648
0.34897,62.19
0.34506,67.08
0.34213,74.12
0.3392,82.725
0.33529,91.721
0.33236,100.33
0.32845,108.34
0.32551,115.19
0.3216,120.86
0.31769,125.16
0.31476,127.71
0.31183,129.27
0.30987,129.47
0.30694,128.88
0.30401,127.31
0.3001,125.55
0.29717,123.21
0.29326,120.86
0.28935,118.12
0.28543,115.19
0.2825,112.06
0.27859,108.74
0.27761,105.02
0.27761,101.11
0.27664,97.001
0.27566,92.894
0.27273,88.983
0.26882,85.463
0.26588,82.529
0.26295,79.987
0.26197,78.031
0.26491,76.467
0.27468,75.293
0.2913,74.511
0.31769,73.924
0.35288,73.533
0.38807,73.533
0.4262,73.338
0.47116,73.142
0.52004,73.142
0.56794,73.338
0.61193,73.338
0.65103,73.338
0.68328,73.142
0.70968,73.142
0.72923,72.947
0.74291,72.751
0.75073,72.36
0.75464,72.164
0.75367,71.773
0.74878,71.382
0.74096,70.795
0.73021,70.404
0.71652,69.818
0.6999,69.426
0.68133,68.84
0.65982,68.449
0.63636,67.862
0.61193,67.471
0.58749,67.08
0.56207,66.493
0.54057,66.102
0.52102,65.515
0.50049,65.124
0.48192,64.537
0.46334,64.146
0.4477,63.559
0.43402,63.168
0.42229,62.582
0.41153,62.19
0.40274,61.604
0.39492,61.213
0.38905,60.821
0.38319,60.43
0.37928,60.039
0.37537,59.844
0.37146,59.844
0.36852,60.235
0.36461,61.604
0.3607,64.733
0.35679,70.209
0.35386,77.836
0.34995,86.832
0.34702,96.024
0.34311,104.63
0.3392,112.65
0.33724,119.49
0.33431,124.97
0.33138,128.88
0.32845,131.42
0.32454,132.4
0.3216,132.4
0.31769,131.62
0.31476,130.05
0.31085,128.29
0.30792,126.14
0.30401,123.79
0.30108,121.06
0.29814,118.12
0.29619,115.19
0.29423,111.86
0.2913,108.34
0.28837,104.43
0.28543,100.33
0.28152,96.219
0.27859,92.308
0.27468,88.788
0.27175,85.658
0.26979,83.116
0.27077,81.16
0.27664,79.596
0.28641,78.422
0.30205,77.64
0.32649,77.054
0.35973,76.662
0.40176,76.662
0.44868,76.467
0.49951,76.467
0.54936,76.467
0.59726,76.662
0.64027,76.467
0.6784,76.467
0.7087,76.467
0.73021,76.271
0.74487,75.88
0.7566,75.685
0.76442,75.293
0.76735,74.902
0.76735,74.316
0.76344,73.729
0.7566,73.338
0.74682,72.751
0.73314,72.164
0.7175,71.773
0.69795,71.382
0.67742,70.795
0.65787,70.404
0.63734,69.818
0.61486,69.426
0.5914,68.84
0.56794,68.449
0.54545,67.862
0.52493,67.275
0.50538,66.688
0.48876,66.102
0.47312,65.711
0.46041,65.124
0.44966,64.733
0.44086,64.146
0.43402,63.755
0.42717,63.168
0.42131,62.777
0.41642,62.19
0.41153,61.799
0.40762,61.408
0.40371,61.604
0.3998,62.19
0.39687,63.95
0.39296,67.471
0.38905,73.729
0.38514,81.943
0.38221,91.33
0.37928,100.72
0.37634,109.71
0.37243,117.73
0.36852,124.38
0.36461,129.47
0.3607,132.79
0.35679,134.75
0.35288,135.33
0.34995,134.94
0.34604,133.77
0.34213,132.01
0.3392,130.05
0.33724,127.71
0.33333,125.36
0.3304,122.62
0.32649,119.69
0.32258,116.36
0.31867,113.04
0.31574,109.32
0.31183,105.41
0.30792,101.3
0.30401,97.001
0.3001,93.09
0.29619,89.374
0.29326,86.245
0.29228,83.703
0.29326,81.552
0.29814,79.987
0.30987,78.814
0.32942,77.836
0.35777,77.249
0.39492,76.858
0.43793,76.662
0.4868,76.662
0.53568,76.662
0.58456,76.662
0.62268,76.467
0.65494,76.467
0.68524,76.271
0.71163,76.076
0.73314,75.88
0.7478,75.489
0.75855,75.293
0.76344,74.902
0.7654,74.316
0.76246,73.729
0.7566,73.142
0.74682,72.555
0.73412,71.969
0.72043,71.382
0.70577,70.991
0.68719,70.404
0.66569,69.818
0.64321,69.231
0.61975,68.84
0.59433,68.253
0.56989,67.666
0.54545,67.275
0.52199,66.688
0.50049,66.102
0.48094,65.711
0.4653,65.124
0.45259,64.537
0.43988,63.95
0.42815,63.364
0.4174,62.777
0.4086,62.386
0.40078,61.799
0.39492,61.408
0.38905,60.821
0.38319,60.43
0.3783,60.235
0.37341,60.235
0.3695,60.626
0.36657,62.386
0.36364,65.711
0.35973,71.578
0.35582,79.596
0.35093,88.788
0.34702,98.37
0.34213,107.37
0.33724,115.38
0.33236,122.23
0.32845,127.51
0.32356,131.23
0.31965,133.38
0.31672,134.16
0.31378,133.96
0.31085,132.79
0.30694,131.23
0.30303,129.07
0.29912,126.53
0.29521,123.99
0.2913,121.25
0.28739,118.12
0.28348,114.8
0.27957,111.28
0.27566,107.56
0.27175,103.46
0.26979,99.348
0.26784,95.046
0.26491,91.134
0.261,87.614
0.25806,84.485
0.25611,82.138
0.25611,80.183
0.261,78.618
0.27175,77.445
0.2913,76.662
0.31965,76.076
0.35777,75.88
0.39492,75.685
0.43402,75.489
0.48094,75.489
0.52884,75.293
0.57576,75.293
0.61388,75.293
0.64321,75.098
0.66862,74.902
0.68915,74.707
0.70479,74.511
0.71457,74.12
0.71945,73.729
0.72043,73.338
0.71848,72.751
0.71261,72.164
0.70381,71.773
0.69306,71.186
0.6784,70.6
0.66178,70.013
0.64321,69.622
0.62268,69.035
0.6002,68.644
0.57674,68.057
0.5523,67.471
0.52884,67.08
0.50831,66.493
0.48974,65.906
0.47116,65.515
0.45357,64.928
0.43695,64.342
0.42229,63.755
0.4086,63.168
0.39785,62.582
0.38807,61.995
0.38025,61.604
0.37341,61.017
0.36755,60.626
0.36266,60.039
0.35875,59.648
0.35582,59.452
0.35191,59.257
0.348,59.452
0.34409,60.235
0.34018,62.19
0.33724,65.906
0.33333,71.969
0.32942,79.987
0.32551,88.983
0.3216,97.784
0.31769,106.19
0.31476,113.43
0.31183,119.69
0.3089,124.58
0.30499,127.71
0.30205,129.47
0.29814,130.05
0.29521,129.47
0.2913,128.1
0.28739,126.34
0.28446,123.99
0.28055,121.45
0.27664,118.51
0.27468,115.58
0.27273,112.26
0.26979,108.74
0.26686,104.82
0.26393,100.91
0.26002,96.61
0.25709,92.308
0.25415,88.396
0.25024,85.072
0.24731,82.138
0.24438,79.791
0.24242,77.836
0.24438,76.467
0.25024,75.293
0.26002,74.707
0.27761,74.12
0.30303,73.729
0.33724,73.729
0.3783,73.533
0.42424,73.533
0.47214,73.533
0.51906,73.533
0.56207,73.533
0.60117,73.533
0.63343,73.338
0.65689,73.338
0.67253,73.142
0.68622,72.751
0.69501,72.555
0.70088,72.164
0.70186,71.773
0.69892,71.186
0.69208,70.6
0.68231,70.209
0.6696,69.622
0.65396,69.035
0.63539,68.644
0.61388,68.057
0.59433,67.471
0.57478,67.08
0.5523,66.688
0.52981,66.102
0.50635,65.711
0.48485,65.124
0.46432,64.537
0.44575,64.146
0.43011,63.559
0.41544,62.973
0.40274,62.582
0.39198,61.995
0.38416,61.408
0.37732,61.017
0.37146,60.43
0.36559,60.039
0.3607,59.648
0.35679,59.061
0.35191,58.866
0.34897,58.67
0.34506,58.67
0.34213,59.061
0.33822,60.235
0.33529,62.777
0.33236,67.471
0.32942,74.511
0.32747,83.116
0.32551,92.112
0.3216,100.91
0.31867,108.93
0.31476,115.78
0.31183,121.45
0.30792,125.55
0.30499,128.1
0.30108,129.27
0.29717,129.47
0.29423,128.68
0.2913,127.12
0.28935,124.97
0.28739,122.62
0.28446,120.08
0.28055,117.34
0.27761,114.21
0.27468,110.69
0.27077,106.98
0.26784,103.06
0.26491,98.957
0.26197,94.655
0.25904,90.548
0.25611,86.832
0.25318,83.507
0.2522,80.965
0.25024,78.618
0.24927,76.858
0.25122,75.685
0.25904,74.707
0.2737,74.12
0.29619,73.729
0.32649,73.533
0.36559,73.338
0.40958,73.338
0.45748,73.338
0.49951,73.338
0.53666,73.338
0.57576,73.338
0.61193,73.338
0.64418,73.142
0.6696,72.947
0.69013,72.751
0.70381,72.555
0.71261,72.164
0.71652,71.773
0.71554,71.186
0.71065,70.795
0.70283,70.209
0.69208,69.622
0.67937,69.231
0.66373,68.644
0.64516,68.253
0.62366,67.666
0.60117,67.275
0.57771,66.688
0.55327,66.297
0.52981,65.711
0.50635,65.319
0.48485,64.733
0.46432,64.342
0.44868,63.755
0.435,63.168
0.42229,62.777
0.41056,62.19
0.3998,61.604
0.39101,61.213
0.38319,60.626
0.37634,60.039
0.37048,59.648
0.36559,59.257
0.3607,58.866
0.35679,58.67
0.35288,58.475
0.35093,58.67
0.348,59.648
0.34604,61.604
0.34311,65.711
0.3392,72.164
0.33627,80.183
0.33236,89.179
0.32845,97.979
0.32454,106.19
0.32063,113.62
0.31672,119.88
0.31281,124.58
0.31085,127.71
0.30792,129.47
0.30596,130.05
0.30303,129.66
0.29912,128.29
0.29619,126.53
0.29228,124.38
0.28935,121.84
0.28543,119.3
0.2825,116.36
0.27859,113.23
0.27566,109.71
0.27273,106
0.27077,101.89
0.26882,97.784
0.26588,93.481
0.26295,89.374
0.26002,85.854
0.25611,82.725
0.25318,80.183
0.2522,78.227
0.25318,76.662
0.25904,75.489
0.27273,74.902
0.29326,74.316
0.31769,74.12
0.34604,73.924
0.38514,73.924
0.43011,73.924
0.47801,73.924
0.5259,74.12
0.57087,74.12
0.61193,74.12
0.64614,74.12
0.67449,74.12
0.69697,73.924
0.71261,73.729
0.72239,73.533
0.72727,73.142
0.72727,72.555
0.72434,72.164
0.71848,71.773
0.7087,71.186
0.69697,70.6
0.68133,70.209
0.66373,69.622
0.64321,69.231
0.62072,68.84
0.59726,68.253
0.57674,67.862
0.55914,67.471
0.54154,66.884
0.52102,66.297
0.50049,65.906
0.48094,65.319
0.46334,64.928
0.4477,64.342
0.43402,63.755
0.42229,63.364
0.41251,62.973
0.40371,62.386
0.39687,61.995
0.39198,61.408
0.38807,61.017
0.38416,60.626
0.38025,60.43
0.37634,60.235
0.37341,60.43
0.37048,61.213
0.36755,63.168
0.36461,67.08
0.36168,73.533
0.35875,81.943
0.35582,91.33
0.35191,100.52
0.34995,109.13
0.348,116.75
0.34506,123.4
0.34213,128.29
0.3392,131.62
0.33627,133.38
0.33333,133.96
0.3304,133.38
0.32649,132.2
0.32258,130.44
0.31965,128.29
0.31672,125.95
0.31476,123.4
0.31378,120.67
0.31183,117.73
0.3089,114.41
0.30694,110.89
0.30401,107.17
0.30108,103.06
0.29912,98.957
0.29619,94.85
0.29326,90.939
0.29032,87.419
0.28739,84.681
0.28641,82.334
0.28837,80.574
0.29423,79.205
0.30499,78.227
0.32356,77.64
0.35191,77.054
0.3871,76.858
0.43109,76.858
0.47898,77.054
0.52884,77.054
0.57869,77.249
0.62463,77.249
0.66471,77.054
0.69599,77.054
0.71848,76.858
0.739,76.467
0.75562,76.076
0.76735,75.685
0.77419,75.098
0.77713,74.511
0.77615,73.729
0.77126,73.142
0.76246,72.36
0.75073,71.773
0.73607,70.991
0.71945,70.6
0.70186,70.013
0.68328,69.426
0.66276,69.035
0.6393,68.449
0.61584,68.057
0.5914,67.471
0.56794,67.08
0.54643,66.493
0.5259,65.906
0.50733,65.319
0.49071,64.733
0.47703,64.146
0.46628,63.559
0.45748,62.973
0.44868,62.386
0.44184,61.995
0.435,61.408
0.42913,60.821
0.42424,60.43
0.41935,60.039
0.41447,59.844
0.41056,59.844
0.40665,60.235
0.40274,61.995
0.39883,65.711
0.39492,71.578
0.39198,79.791
0.38807,89.374
0.38319,98.957
0.3783,107.76
0.37341,115.97
0.36852,122.82
0.36461,128.1
0.35973,131.62
0.35484,133.57
0.35093,134.35
0.34604,133.96
0.34311,132.79
0.34018,131.03
0.33627,128.88
0.33236,126.53
0.32747,124.19
0.32356,121.45
0.31867,118.51
0.31378,115.19
0.30987,111.86
0.30499,107.95
0.30108,104.04
0.29619,99.739
0.2913,95.632
0.28837,91.525
0.28543,87.81
0.28152,84.681
0.27859,82.138
0.27761,79.987
0.27957,78.422
0.28935,77.054
0.30596,76.271
0.33138,75.685
0.36657,75.293
0.4086,75.098
0.4565,74.902
0.49951,74.902
0.53861,74.902
0.58162,74.707
0.6217,74.707
0.65787,74.707
0.68817,74.511
0.71163,74.316
0.72923,73.924
0.74096,73.729
0.7478,73.338
0.74976,72.751
0.7478,72.164
0.74194,71.578
0.73412,70.991
0.72336,70.6
0.70968,70.013
0.69404,69.426
0.67546,69.035
0.65494,68.449
0.63245,67.862
0.60899,67.471
0.58456,66.884
0.55914,66.493
0.53568,65.906
0.51222,65.515
0.48778,64.928
0.46921,64.342
0.4565,63.755
0.44282,63.168
0.42913,62.582
0.4174,62.19
0.40762,61.604
0.39883,61.017
0.39101,60.626
0.38416,60.039
0.3783,59.648
0.37341,59.257
0.36852,58.67
0.36461,58.475
0.36168,58.475
0.35875,59.061
0.35484,60.43
0.35191,63.559
0.348,69.035
0.34409,76.662
0.34018,85.854
0.33627,95.241
0.33236,104.24
0.32845,112.26
0.32356,119.3
0.32063,124.77
0.31867,128.68
0.31574,131.03
0.31085,131.81
0.30694,131.62
0.30401,130.44
0.30108,128.68
0.29717,126.53
0.29326,124.19
0.29032,121.45
0.28641,118.71
0.2825,115.58
0.27957,112.06
0.27664,108.34
0.27566,104.43
0.27273,100.33
0.26979,96.024
0.26686,91.917
0.26393,88.005
0.26002,84.485
0.25709,81.552
0.25415,79.205
0.25318,77.445
0.25709,75.88
0.26588,74.902
0.27957,74.12
0.3001,73.729
0.32942,73.533
0.36852,73.338
0.41349,73.338
0.46334,73.338
0.5132,73.338
0.56207,73.338
0.60606,73.338
0.64516,73.338
0.67644,73.142
0.70186,73.142
0.71848,72.751
0.72825,72.555
0.73509,72.164
0.73803,71.773
0.73705,71.186
0.73216,70.6
0.72434,70.013
0.71359,69.426
0.69892,69.035
0.68231,68.449
0.66276,67.862
0.64125,67.275
0.61779,66.884
0.58944,66.297
0.55914,65.906
0.53763,65.319
0.52102,64.733
0.49658,64.342
0.47507,63.755
0.45943,63.168
0.44379,62.777
0.42717,62.19
0.41251,61.604
0.40371,61.213
0.39394,60.626
0.38612,60.039
0.38025,59.648
0.37537,59.061
0.3695,58.67
0.36559,58.279
0.36168,57.888
0.35679,57.692
0.34995,57.692
0.34506,58.083
0.34115,59.257
0.33724,61.995
0.33333,66.688
0.33138,73.533
0.32845,81.943
0.32551,90.743
0.32258,99.348
0.31867,107.17
0.31476,114.02
0.31183,119.49
0.30792,123.4
0.30499,125.75
0.30108,126.92
0.29814,126.73
0.29521,125.75
0.29228,123.99
0.29032,122.03
0.28837,119.49
0.28446,116.95
0.28152,114.02
0.27859,110.69
0.27468,107.37
0.27175,103.65
0.26882,99.544
0.26588,95.437
0.26197,91.134
0.25904,87.223
0.25611,83.703
0.25415,80.769
0.2522,78.422
0.2522,76.467
0.25318,74.902
0.25904,73.729
0.27077,72.947
0.29032,72.36
0.31769,72.164
0.35288,71.969
0.39394,71.969
0.43891,71.969
0.48485,71.969
0.52395,72.164
0.55816,72.164
0.5914,72.164
0.6217,71.969
0.64712,71.969
0.66667,71.773
0.68133,71.578
0.69013,71.186
0.69404,70.795
0.69404,70.404
0.69013,69.818
0.68231,69.426
0.67155,68.84
0.65885,68.253
0.64418,67.666
0.62757,67.275
0.60802,66.688
0.58651,66.297
0.56403,65.906
0.54057,65.319
0.51808,64.733
0.4956,64.342
0.47507,63.95
0.4565,63.364
0.43988,62.973
0.42717,62.386
0.41642,61.799
0.40567,61.408
0.39589,60.821
0.38807,60.43
0.38123,59.844
0.37537,59.452
0.37048,58.866
0.36559,58.279
0.36168,57.888
0.35875,57.497
