1.9071,68.919
1.8387,68.284
1.7801,67.698
1.7292,67.258
1.6852,67.551
1.6481,69.31
1.6178,73.803
1.5914,81.472
1.5699,91.192
1.5513,100.62
1.5298,107.75
1.5064,112.1
1.4809,114.88
1.4536,116.98
1.4262,118.89
1.3998,120.5
1.3744,121.67
1.3509,122.55
1.3284,122.94
1.3069,122.84
1.2884,122.26
1.2747,121.04
1.263,119.47
1.2483,117.57
1.2326,115.32
1.216,112.88
1.1994,110.29
1.1828,107.55
1.1681,104.58
1.1525,101.45
1.1359,98.225
1.1193,95.051
1.1026,91.973
1.089,89.238
1.0772,87.04
1.0655,85.379
1.0626,84.158
1.0792,83.23
1.1281,82.547
1.219,82.058
1.3558,81.618
1.5337,81.228
1.7419,80.788
1.9629,80.3
2.1799,79.811
2.3793,79.323
2.5327,78.883
2.65,78.444
2.7517,77.906
2.8328,77.418
2.8935,76.978
2.9345,76.49
2.957,76.05
2.9648,75.562
2.9609,75.073
2.9443,74.536
2.914,74.097
2.871,73.608
2.8221,73.168
2.7644,72.729
2.695,72.387
2.6158,71.947
2.5269,71.557
2.4321,71.117
2.3333,70.677
2.2336,70.238
2.1349,69.847
2.0381,69.505
1.9482,69.163
1.8671,68.724
1.7947,68.284
1.739,67.844
1.694,67.307
1.653,66.721
1.6178,66.672
1.5865,67.844
1.5601,71.41
1.5367,78.053
1.5132,87.284
1.4917,97.004
1.4702,104.82
1.4467,109.95
1.4213,113.12
1.3998,115.42
1.3803,117.47
1.3587,119.18
1.3363,120.5
1.3128,121.38
1.2903,122.01
1.2708,122.11
1.2522,121.62
1.2356,120.5
1.219,118.98
1.2033,117.18
1.1867,115.17
1.1701,112.78
1.1574,110.24
1.1496,107.55
1.1398,104.67
1.1271,101.6
1.1017,98.372
1.0684,95.197
1.043,92.12
1.0196,89.434
0.99707,87.187
0.97752,85.379
0.96872,84.061
0.9824,83.035
1.0166,82.351
1.0802,81.814
1.1896,81.374
1.3451,80.886
1.5376,80.446
1.7527,79.909
1.9746,79.469
2.1877,78.981
2.3783,78.492
2.5386,78.004
2.6647,77.613
2.7595,77.174
2.828,76.685
2.869,76.197
2.8895,75.757
2.9003,75.318
2.9013,74.78
2.8895,74.292
2.8631,73.852
2.825,73.364
2.7761,72.924
2.7165,72.485
2.6461,72.094
2.567,71.752
2.479,71.41
2.3939,71.068
2.3118,70.629
2.219,70.189
2.1202,69.749
2.0235,69.31
1.9316,68.919
1.8485,68.626
1.7742,68.284
1.7087,67.844
1.652,67.356
1.6051,66.819
1.566,66.379
1.5318,66.428
1.5073,67.991
1.4868,72.045
1.4633,79.225
1.4399,88.603
1.4184,97.932
1.3959,105.16
1.3724,109.8
1.3509,112.68
1.3294,114.93
1.306,116.93
1.2825,118.54
1.259,119.81
1.2405,120.55
1.2239,120.89
1.2043,120.74
1.1857,120.11
1.1681,118.98
1.1496,117.42
1.1329,115.61
1.1173,113.56
1.1036,111.17
1.0909,108.53
1.0792,105.75
1.0694,102.82
1.0606,99.74
1.0557,96.467
1.0499,93.292
1.0381,90.313
1.0215,87.626
1.001,85.477
0.98143,83.865
0.97165,82.742
0.9824,81.814
1.0264,81.13
1.1114,80.544
1.2444,80.104
1.4194,79.665
1.5943,79.176
1.7722,78.737
1.9775,78.297
2.1828,77.858
2.3695,77.418
2.5279,76.978
2.654,76.636
2.7478,76.246
2.8143,75.806
2.8602,75.415
2.8866,75.073
2.8964,74.634
2.8886,74.243
2.869,73.755
2.8397,73.315
2.8016,72.778
2.7537,72.289
2.695,71.85
2.6256,71.508
2.5464,71.117
2.4565,70.726
2.3597,70.287
2.26,69.847
2.1584,69.359
2.0577,68.821
1.9707,68.284
1.8944,67.796
1.8172,67.307
1.7458,66.916
1.6813,66.477
1.6256,65.988
1.5787,65.5
1.5386,65.06
1.5044,65.109
1.4761,66.233
1.4526,69.603
1.4311,76.05
1.4145,84.989
1.3998,94.562
1.3822,102.57
1.3627,107.85
1.3412,111.12
1.3177,113.37
1.2942,115.17
1.2708,116.74
1.2483,118.01
1.2268,118.74
1.2072,119.03
1.1887,118.94
1.1701,118.3
1.1574,117.13
1.1457,115.61
1.13,113.86
1.1114,111.85
1.0938,109.56
1.0772,107.07
1.0606,104.43
1.044,101.6
1.0283,98.616
1.0137,95.637
0.99902,92.56
0.9824,89.678
0.9697,87.187
0.95797,85.184
0.9433,83.67
0.93157,82.595
0.93353,81.912
0.96188,81.374
1.0274,80.984
1.1378,80.544
1.2952,80.153
1.4927,79.811
1.7146,79.372
1.9443,78.981
2.1632,78.59
2.3392,78.248
2.477,77.906
2.6012,77.613
2.7019,77.223
2.7752,76.881
2.824,76.49
2.8524,76.099
2.8641,75.66
2.8612,75.318
2.8436,74.976
2.8123,74.634
2.7703,74.194
2.7224,73.755
2.6686,73.364
2.6031,72.973
2.5288,72.533
2.4457,72.192
2.3568,71.752
2.263,71.215
2.1672,70.726
2.0723,70.091
1.9804,69.603
1.8944,69.114
1.8182,68.626
1.7537,68.089
1.7048,67.551
1.6667,67.063
1.6305,66.623
1.5982,66.623
1.5709,67.844
1.5474,71.361
1.5259,77.809
1.5044,86.698
1.4839,95.979
1.4643,103.7
1.4448,108.82
1.4252,111.85
1.4096,114.05
1.3949,116
1.3783,117.67
1.3617,119.03
1.3451,119.86
1.3304,120.3
1.3187,120.16
1.3069,119.62
1.2952,118.54
1.2835,117.18
1.2698,115.42
1.2542,113.51
1.2385,111.22
1.2268,108.87
1.217,106.28
1.2053,103.5
1.1935,100.47
1.1818,97.444
1.1681,94.367
1.1505,91.436
1.131,88.799
1.1095,86.552
1.0899,84.94
1.0802,83.719
1.0899,82.937
1.1193,82.302
1.1779,81.814
1.2815,81.277
1.4301,80.788
1.6188,80.3
1.8338,79.811
2.0606,79.323
2.2805,78.786
2.478,78.297
2.6452,77.858
2.7771,77.418
2.8759,76.978
2.9453,76.539
2.9844,76.05
3.002,75.464
3.0088,74.976
3.0039,74.487
2.9892,73.999
2.9648,73.51
2.9306,72.973
2.8856,72.485
2.8299,71.996
2.7634,71.508
2.6882,70.97
2.6022,70.531
2.5191,70.091
2.4379,69.749
2.347,69.359
2.2512,69.066
2.1574,68.675
2.0684,68.382
1.9873,68.04
1.915,67.698
1.8514,67.258
1.7977,66.819
1.7527,66.281
1.7243,65.793
1.7077,65.402
1.6901,65.695
1.6716,67.698
1.6491,72.436
1.6256,80.251
1.6022,89.824
1.5797,98.909
1.5552,105.7
1.5308,109.85
1.5083,112.49
1.4858,114.44
1.4633,116.25
1.4418,117.81
1.4233,118.98
1.4066,119.81
1.3871,120.11
1.3656,120.06
1.3441,119.37
1.3216,118.2
1.2991,116.54
1.2786,114.73
1.26,112.63
1.2424,110.24
1.2287,107.6
1.216,104.87
1.2043,102.13
1.1975,99.105
1.1926,96.076
1.1848,92.95
1.174,90.069
1.1613,87.529
1.1466,85.428
1.1329,83.865
1.129,82.693
1.1447,81.814
1.1906,81.179
1.2776,80.739
1.4066,80.446
1.5464,80.055
1.7019,79.616
1.8935,79.127
2.0997,78.541
2.3001,78.053
2.48,77.564
2.6305,76.978
2.7488,76.49
2.8387,76.05
2.9022,75.611
2.9443,75.171
2.9697,74.683
2.9804,74.243
2.9756,73.755
2.957,73.217
2.9296,72.68
2.8935,72.192
2.8465,71.752
2.7889,71.215
2.7214,70.873
2.6452,70.482
2.5621,70.091
2.4731,69.749
2.3793,69.31
2.2845,68.919
2.2004,68.528
2.1222,68.089
2.0401,67.698
1.9619,67.307
1.8895,66.965
1.826,66.623
1.7713,66.184
1.7253,65.598
1.6862,65.109
1.654,64.914
1.6266,65.549
1.6012,68.04
1.5806,73.51
1.563,81.814
1.5425,91.436
1.522,99.886
1.5015,105.8
1.479,109.51
1.4545,111.95
1.4301,113.86
1.4066,115.57
1.3851,116.98
1.3646,118.11
1.3441,118.74
1.3236,118.89
1.3069,118.54
1.2923,117.67
1.2737,116.35
1.2551,114.64
1.2366,112.68
1.2199,110.63
1.2063,108.29
1.1935,105.75
1.1808,103.06
1.1691,100.23
1.1584,97.297
1.1476,94.22
1.1398,91.192
1.132,88.359
1.1173,86.063
1.1007,84.256
1.088,82.84
1.086,81.863
1.1056,81.13
1.1574,80.544
1.2483,80.055
1.3812,79.616
1.5533,79.176
1.7527,78.737
1.9648,78.248
2.1486,77.809
2.306,77.369
2.4624,76.978
2.6002,76.539
2.7136,76.197
2.8006,75.757
2.8622,75.22
2.9022,74.683
2.9247,74.194
2.9296,73.657
2.9198,73.168
2.8983,72.68
2.868,72.192
2.828,71.752
2.7781,71.312
2.7185,70.873
2.651,70.433
2.5758,69.994
2.4936,69.603
2.4057,69.261
2.3148,68.87
2.2219,68.479
2.13,68.089
2.042,67.747
1.9619,67.405
1.8974,67.112
1.8426,66.819
1.7889,66.428
1.741,65.988
1.6989,65.5
1.6628,64.865
1.6325,64.572
1.607,65.012
1.5836,67.161
1.5611,72.192
1.5376,80.153
1.5161,89.727
1.4985,98.47
1.4809,104.82
1.4594,108.68
1.436,111.17
1.4135,113.17
1.39,114.93
1.3685,116.44
1.347,117.47
1.3255,118.25
1.303,118.59
1.2815,118.5
1.261,117.76
1.2414,116.44
1.2268,114.69
1.217,112.73
1.2063,110.53
1.1955,108.24
1.1838,105.7
1.175,103.11
1.1672,100.37
1.1584,97.444
1.1496,94.367
1.1408,91.387
1.1281,88.603
1.1114,86.308
1.0978,84.549
1.088,83.182
1.0821,82.156
1.0938,81.374
1.1339,80.69
1.2131,80.104
1.3353,79.567
1.4966,79.03
1.6901,78.492
1.9013,77.906
2.1144,77.32
2.3148,76.734
2.4897,76.246
2.6188,75.806
2.7126,75.318
2.7937,74.878
2.8563,74.438
2.8974,73.901
2.9208,73.51
2.9296,72.973
2.9247,72.533
2.9062,72.045
2.8749,71.605
2.8328,71.117
2.7801,70.677
2.7234,70.238
2.6618,69.847
2.5885,69.407
2.5083,69.066
2.4233,68.724
2.3353,68.431
2.2434,68.089
2.1535,67.796
2.0674,67.356
1.9853,66.965
1.9101,66.526
1.8416,66.135
1.782,65.695
1.737,65.305
1.7009,64.865
1.6667,64.425
1.6364,63.986
1.608,63.595
1.5806,63.79
1.5543,65.353
1.5279,69.359
1.5015,76.294
1.4761,85.379
1.4506,94.562
1.4252,101.79
1.4037,106.53
1.3861,109.41
1.3675,111.51
1.347,113.32
1.3255,114.93
1.303,116.2
1.2815,116.98
1.261,117.23
1.2414,116.98
1.2219,116.25
1.2033,115.13
1.1838,113.61
1.1662,111.95
1.1544,109.95
1.1466,107.75
1.1378,105.36
1.129,102.82
1.1183,100.18
1.1085,97.249
1.0978,94.22
1.085,91.241
1.0714,88.408
1.0547,85.917
1.0362,83.914
1.0205,82.449
1.0147,81.472
1.0215,80.935
1.0489,80.446
1.1095,80.007
1.2111,79.616
1.3578,79.127
1.5425,78.59
1.7527,78.199
1.9717,77.809
2.1848,77.418
2.3763,77.027
2.5386,76.636
2.6676,76.197
2.7537,75.806
2.8094,75.415
2.8514,75.073
2.8778,74.634
2.8905,74.194
2.8886,73.755
2.8749,73.364
2.8485,72.973
2.8113,72.68
2.7634,72.387
2.7058,72.045
2.6403,71.654
2.5738,71.312
2.5034,70.873
2.4203,70.482
2.3294,70.091
2.2336,69.652
2.1378,69.261
2.0459,68.821
1.9619,68.382
1.8866,67.942
1.8211,67.503
1.7664,67.063
1.7195,66.526
1.6852,66.037
1.6579,65.598
1.6325,65.5
1.608,66.477
1.5865,69.554
1.566,75.562
1.5464,84.256
1.5269,93.732
1.5073,101.74
1.4878,107.16
1.4682,110.39
1.4497,112.39
1.4301,114
1.4154,115.47
1.4018,116.69
1.3871,117.47
1.3715,117.86
1.3587,117.86
1.346,117.37
1.3324,116.49
1.3177,115.13
1.303,113.32
1.2884,111.32
1.2737,109.17
1.263,106.82
1.259,104.28
1.2571,101.69
1.2512,99.007
1.2424,96.174
1.2326,93.292
1.2209,90.508
1.2053,87.919
1.1848,85.819
1.1642,84.11
1.1515,82.84
1.1535,81.912
1.1808,81.228
1.2454,80.69
1.3304,80.251
1.4418,79.86
1.5992,79.421
1.7879,79.03
1.9951,78.59
2.2043,78.199
2.3978,77.76
2.566,77.223
2.7048,76.734
2.8133,76.246
2.8915,75.806
2.9453,75.22
2.9736,74.731
2.9824,74.243
2.9834,73.803
2.9746,73.364
2.9541,72.924
2.9228,72.387
2.8817,71.801
2.8309,71.312
2.7713,70.726
2.7019,70.238
2.6246,69.798
2.5425,69.359
2.4565,68.968
2.3763,68.675
2.3011,68.382
2.2199,68.089
2.1378,67.796
2.0596,67.405
1.9892,67.112
1.9277,66.819
1.8749,66.428
1.8289,65.988
1.7889,65.402
1.7556,64.914
1.7253,64.474
1.7009,64.621
1.6794,65.94
1.6549,69.554
1.6305,76.246
1.607,85.233
1.5846,94.611
1.5611,102.18
1.5386,107.12
1.5152,110.09
1.4907,112.24
1.4673,114.1
1.4428,115.76
1.4174,116.98
1.3988,117.86
1.3832,118.3
1.3666,118.3
1.348,117.81
1.3294,116.74
1.3128,115.22
1.2962,113.51
1.2786,111.51
1.2639,109.31
1.2502,106.87
1.2385,104.28
1.2268,101.6
1.219,98.763
1.2141,95.734
1.2063,92.657
1.1975,89.678
1.1848,86.991
1.1681,84.793
1.1505,83.035
1.1388,81.912
1.1417,81.13
1.1691,80.544
1.2346,80.104
1.3431,79.811
1.4936,79.421
1.65,79.03
1.8143,78.541
2.0108,78.053
2.2151,77.613
2.4076,77.223
2.5767,76.783
2.7155,76.294
2.824,75.855
2.9042,75.366
2.9589,74.78
2.9912,74.243
3.0068,73.755
3.0068,73.217
2.9932,72.729
2.9697,72.24
2.9365,71.752
2.8944,71.312
2.8426,70.873
2.781,70.384
2.7087,69.994
2.6295,69.603
2.5435,69.261
2.4516,68.87
2.3568,68.431
2.261,68.089
2.1769,67.747
2.1017,67.356
2.0254,67.063
1.9531,66.721
1.8876,66.477
1.8299,66.135
1.782,65.598
1.7429,65.06
1.7097,64.474
1.6804,64.23
1.654,64.865
1.6305,67.307
1.6109,72.631
1.5934,80.739
1.5738,90.166
1.5523,98.665
1.5288,104.67
1.5044,108.29
1.479,110.68
1.4526,112.49
1.4262,114.1
1.4008,115.61
1.3763,116.79
1.3529,117.42
1.3314,117.57
1.3157,117.32
1.3021,116.64
1.2854,115.42
1.2708,113.81
1.2561,111.85
1.2414,109.75
1.2268,107.41
1.2121,105.01
1.1984,102.43
1.1857,99.691
1.174,96.76
1.1623,93.732
1.1535,90.801
1.1447,88.115
1.1329,85.721
1.1193,83.914
1.1065,82.595
1.1007,81.716
1.1153,81.032
1.1603,80.446
1.2444,79.909
1.3715,79.567
1.5386,79.176
1.7341,78.688
1.9443,78.199
2.1281,77.76
2.2893,77.223
2.4516,76.734
2.5953,76.197
2.7136,75.66
2.8055,75.22
2.871,74.731
2.9159,74.243
2.9443,73.803
2.957,73.364
2.9531,72.778
2.9365,72.24
2.9101,71.752
2.8739,71.312
2.828,70.873
2.7713,70.433
2.7058,69.994
2.6334,69.603
2.5533,69.31
2.4673,68.919
2.3754,68.626
2.2815,68.235
2.1896,67.942
2.1026,67.6
2.0196,67.258
1.9501,66.916
1.8925,66.672
1.8377,66.428
1.7879,66.037
1.7439,65.549
1.7048,65.012
1.6696,64.572
1.6403,64.377
1.6139,65.305
1.5875,68.284
1.5591,74.292
1.5122,82.937
1.4624,92.218
1.4282,100.13
1.3978,105.41
1.3685,108.68
1.3412,110.88
1.3157,112.78
1.2923,114.64
1.2698,116.1
1.2473,117.18
1.2248,117.67
1.2043,117.67
1.1857,117.18
1.173,116.3
1.1632,114.98
1.1515,113.37
1.1398,111.36
1.1281,109.17
1.1163,106.87
1.1046,104.43
1.0929,101.79
1.0821,99.007
1.0723,96.076
1.0635,93.097
1.0538,90.362
1.0391,87.822
1.0254,85.673
1.0137,84.012
1.001,82.791
0.99804,81.912
1.0147,81.179
1.0645,80.593
1.1574,80.104
1.2952,79.665
1.4751,79.225
1.6843,78.737
1.9071,78.248
2.1271,77.76
2.3069,77.223
2.4526,76.734
2.5894,76.246
2.7048,75.757
2.7957,75.22
2.8602,74.731
2.9032,74.194
2.9296,73.755
2.9413,73.217
2.9374,72.729
2.9189,72.289
2.8876,71.85
2.8446,71.41
2.7947,70.97
2.738,70.531
2.6696,70.091
2.5914,69.749
2.5064,69.407
2.4164,69.066
2.3236,68.675
2.2307,68.284
2.1398,67.991
2.0528,67.698
1.9697,67.356
1.8944,67.063
1.8338,66.819
1.783,66.477
1.7341,66.184
1.6911,65.793
1.654,65.305
1.6217,64.718
1.5924,64.279
1.565,64.621
1.5396,66.477
1.5152,70.97
1.4888,78.297
1.4624,87.48
1.436,96.223
1.4145,102.82
1.3949,106.92
1.3715,109.41
1.346,111.41
1.3206,113.32
1.2962,114.93
1.2717,116.25
1.2483,117.13
1.2258,117.47
1.2063,117.37
1.1906,116.69
1.1769,115.57
1.1681,114.1
1.1613,112.29
1.1525,110.19
1.1417,107.85
1.131,105.5
1.1193,103.01
1.1075,100.23
1.0958,97.297
1.0841,94.22
1.0733,91.192
1.0626,88.261
1.0489,85.624
1.0332,83.475
1.0225,82.009
1.0196,80.935
1.0254,80.153
1.0547,79.616
1.1193,79.127
1.2278,78.786
1.3793,78.444
1.5679,78.053
1.7801,77.613
2.001,77.174
2.2121,76.734
2.4008,76.294
2.5445,75.855
2.653,75.464
2.7478,75.122
2.8221,74.731
2.8739,74.292
2.9052,73.852
2.9208,73.413
2.9228,72.973
2.912,72.533
2.8905,72.192
2.8563,71.752
2.8104,71.312
2.7537,70.824
2.6931,70.433
2.6276,70.042
2.5494,69.652
2.4604,69.31
2.3646,68.87
2.2659,68.431
2.1652,67.991
2.0665,67.551
1.9717,67.063
1.8847,66.526
1.8055,66.135
1.737,65.695
1.6852,65.353
1.6452,65.012
1.61,64.572
1.5806,64.035
1.5562,63.742
1.5337,64.132
1.5122,66.037
1.4897,70.677
1.4663,78.199
1.4438,87.48
1.4223,96.369
1.3988,103.06
1.3744,107.26
1.3539,109.75
1.3353,111.51
1.3128,112.93
1.2913,114.2
1.2708,115.22
1.2493,115.86
1.2278,116.05
1.2082,115.66
1.1896,114.88
1.1711,113.66
1.1544,112.19
1.1369,110.44
1.1241,108.43
1.1144,106.28
1.1007,103.94
1.086,101.3
1.0704,98.616
1.0547,95.783
1.0391,92.999
1.0235,90.215
1.0059,87.724
0.98534,85.624
0.96481,83.914
0.94721,82.791
0.93939,82.009
0.94624,81.423
0.97654,80.984
1.0401,80.544
1.1457,80.104
1.2962,79.665
1.4858,79.225
1.7019,78.883
1.9286,78.444
2.1476,78.053
2.3451,77.662
2.5122,77.32
2.6452,76.929
2.7341,76.539
2.7918,76.246
2.8338,75.904
2.8602,75.562
2.8719,75.122
2.87,74.683
2.8553,74.292
2.8289,73.852
2.7908,73.51
2.7429,73.071
2.6862,72.68
2.6207,72.192
2.5464,71.752
2.4741,71.312
2.4008,70.873
2.3177,70.433
2.2287,69.945
2.1388,69.359
2.0508,68.87
1.9668,68.479
1.8915,68.089
1.828,67.796
1.7742,67.405
1.7292,66.916
1.6911,66.379
1.6618,65.842
1.6393,66.135
1.6188,67.844
1.5982,72.24
1.5777,79.567
1.5562,88.799
1.5347,97.786
1.5122,104.58
1.4897,108.82
1.4663,111.41
1.4438,113.51
1.4233,115.32
1.4066,116.74
1.393,117.81
1.3783,118.54
1.3646,118.98
1.3509,118.94
1.3363,118.35
1.3216,117.42
1.306,116.05
1.2903,114.3
1.2747,112.24
1.259,110.05
1.2434,107.75
1.2278,105.36
1.216,102.72
1.2063,99.935
1.1945,97.004
1.1818,93.927
1.1662,91.045
1.1486,88.506
1.13,86.405
1.1144,84.94
1.1065,83.719
1.1144,82.84
1.1496,82.156
1.2229,81.57
1.3167,81.13
1.437,80.69
1.6051,80.251
1.8065,79.762
2.0235,79.176
2.2395,78.541
2.4477,78.053
2.6325,77.564
2.7761,77.174
2.8847,76.881
2.9619,76.441
3.0147,75.904
3.0489,75.366
3.0616,74.878
3.0596,74.438
3.0508,73.999
3.0323,73.559
3.0039,72.924
2.9668,72.289
2.9198,71.654
2.8631,71.166
2.7957,70.824
2.7185,70.531
2.6334,70.287
2.5425,70.042
2.4575,69.652
2.3744,69.31
2.2854,68.87
2.1975,68.528
2.1134,68.284
2.0352,67.991
1.9658,67.551
1.9052,67.112
1.8534,66.623
1.8104,65.988
1.7742,65.5
1.7429,65.402
1.7136,66.623
1.6891,70.189
1.6676,76.685
1.6442,85.673
1.6207,95.197
1.5973,102.91
1.5738,107.99
1.5484,111.07
1.522,113.17
1.4956,114.98
1.4682,116.64
1.4418,118.01
1.4145,118.98
1.393,119.77
1.3763,119.91
1.3558,119.47
1.3363,118.45
1.3177,116.98
1.2991,115.22
1.2805,113.32
1.2649,111.22
1.2512,109.12
1.2385,106.72
1.2268,104.18
1.2151,101.35
1.2014,98.421
1.1896,95.441
1.1789,92.413
1.1613,89.727
1.1408,87.431
1.1183,85.673
1.0987,84.354
1.0899,83.426
1.1036,82.693
1.1535,82.156
1.2473,81.814
1.3871,81.423
1.566,80.886
1.7419,80.349
1.9169,79.86
2.1163,79.372
2.3128,78.883
2.4888,78.297
2.6364,77.858
2.7527,77.369
2.8387,76.881
2.8974,76.343
2.9335,75.855
2.9531,75.366
2.957,74.927
2.9472,74.341
2.9267,73.852
2.8964,73.315
2.8573,72.778
2.8094,72.436
2.7527,72.045
2.6872,71.752
2.6129,71.361
2.5318,70.873
2.4457,70.433
2.3558,70.091
2.263,69.798
2.1701,69.505
2.0899,69.261
2.0176,68.968
1.9453,68.724
1.8778,68.382
1.8172,67.844
1.7654,67.307
1.7214,66.721
1.6823,66.623
1.65,67.6
1.6217,70.726
1.5963,76.881
1.5718,85.575
1.5484,94.904
1.5288,102.62
1.5132,107.75
1.4966,110.92
1.479,113.22
1.4604,115.32
1.4409,117.18
1.4184,118.74
1.3939,119.86
1.3705,120.45
1.347,120.5
1.3236,120.11
1.3011,119.33
1.2825,118.06
1.2678,116.35
1.2502,114.44
1.2326,112.39
1.2141,110.05
1.1955,107.6
1.1799,105.01
1.1662,102.18
1.1544,99.154
1.1447,96.174
1.1359,93.243
1.1261,90.508
1.1124,88.164
1.1017,86.356
1.0938,85.135
1.0909,84.158
1.1065,83.377
1.1515,82.742
1.2346,82.253
1.3607,81.814
1.5269,81.374
1.7243,80.886
1.9384,80.3
2.1505,79.86
2.347,79.372
2.5015,78.932
2.6217,78.346
2.7312,77.809
2.8201,77.32
2.8866,76.783
2.9345,76.294
2.9668,75.855
2.9853,75.415
2.9883,74.976
2.9765,74.536
2.9511,74.048
2.914,73.608
2.8661,73.12
2.8123,72.631
2.7517,72.24
2.6784,71.85
2.5963,71.508
2.5083,71.068
2.4164,70.677
2.3226,70.384
2.2307,69.945
2.1417,69.505
2.0567,69.066
1.9775,68.528
1.9062,68.04
1.8495,67.796
1.8055,67.503
1.7644,67.258
1.7273,67.6
1.694,69.652
1.6647,73.852
1.6383,80.153
1.6139,88.261
1.5904,96.76
1.566,104.04
1.5396,109.31
1.5122,112.73
1.4858,114.64
1.4643,115.61
1.4457,116.98
1.4233,119.67
1.4008,122.5
1.3783,123.72
1.3558,123.23
1.3343,122.11
1.3128,120.99
1.2923,119.37
1.2727,117.18
1.2542,115.13
1.2375,113.37
1.2248,111.32
1.2151,108.39
1.2023,105.06
1.1877,101.74
1.174,98.177
1.1593,94.074
1.1437,90.41
1.1261,88.506
1.1056,88.164
1.086,88.701
1.0723,89.385
1.0733,89.092
1.0938,86.259
1.1408,81.228
1.2287,78.199
1.3607,79.372
1.5337,82.156
1.737,82.498
1.955,80.495
2.1691,79.421
2.3646,80.153
2.5327,80.153
2.6696,78.102
2.7742,76.343
2.8504,76.783
2.8954,77.76
2.9179,77.174
2.9326,75.611
2.9365,75.073
2.9316,75.757
2.9159,76.294
2.8905,76.099
2.8563,75.611
2.8104,75.073
2.7517,74.487
2.6804,73.755
2.5982,72.778
2.5191,71.947
2.4399,71.166
2.349,70.384
2.2512,69.359
2.1525,68.284
2.0567,67.258
1.9668,66.184
1.8837,65.158
1.8123,64.865
1.7507,65.598
1.697,67.258
1.653,69.652
1.6168,73.901
1.5904,81.13
1.5689,90.557
1.5464,99.789
1.5239,107.12
1.5015,112.44
1.478,116.3
1.4536,119.13
1.4282,120.94
1.4027,122.01
1.3793,122.5
1.3558,122.84
1.3324,123.04
1.2991,122.6
1.261,121.62
1.2336,120.35
1.2121,119.42
1.1935,118.54
1.1769,116.98
1.1613,114.34
1.1447,110.88
1.1281,107.16
1.1105,104.04
1.0938,101.94
1.0772,100.33
1.0606,97.932
1.0479,94.318
1.0352,90.557
1.0156,87.871
0.99218,86.161
0.9697,84.989
0.95699,84.11
0.96481,83.719
1.0049,83.914
1.0841,84.403
1.2082,84.549
1.3754,83.816
1.5738,82.547
1.7595,81.716
1.9335,81.423
2.1173,81.032
2.2884,80.446
2.434,80.007
2.5513,79.86
2.6383,79.762
2.6979,79.176
2.7351,78.444
2.7546,77.564
2.7595,76.685
2.7517,75.904
2.7331,75.464
2.7058,75.464
2.6716,75.415
2.6276,74.927
2.5748,74.048
2.5112,73.51
2.437,73.364
2.3529,73.12
2.263,72.533
2.1691,72.094
2.0743,71.752
1.9814,71.117
1.8925,70.042
1.8192,68.87
1.7566,68.186
1.697,68.089
1.6442,68.528
1.6012,69.407
1.567,71.557
1.5396,76.539
1.5171,84.989
1.4976,95.197
1.477,104.38
1.4565,110.92
1.437,114.93
1.4174,117.81
1.4018,120.16
1.3881,122.26
1.3724,123.72
1.3539,124.75
1.3333,125.29
1.3128,125.58
1.2923,125.63
1.2717,125.29
1.2512,124.06
1.2307,121.72
1.2111,119.42
1.1926,118.06
1.1789,117.18
1.1691,115.91
1.1574,114.05
1.1447,111.32
1.132,107.95
1.1163,104.38
1.0997,101.3
1.0811,98.567
1.0616,95.637
1.0401,92.364
1.0196,89.531
1.0039,87.871
1.0049,86.943
1.0254,86.356
1.0723,85.917
1.1603,85.624
1.2923,85.477
1.4643,85.379
1.6657,85.282
1.8798,85.038
2.087,84.158
2.2757,82.791
2.437,81.667
2.566,81.179
2.6647,81.13
2.7292,80.788
2.7703,80.153
2.8016,79.665
2.8211,79.421
2.8289,79.03
2.827,78.444
2.8133,77.809
2.7869,77.76
2.7507,78.102
2.7038,78.492
2.6452,78.346
2.5758,77.613
2.4966,76.734
2.4184,76.246
2.3402,76.001
2.2532,75.611
2.1603,74.731
2.0655,73.657
1.9736,72.778
1.8886,72.533
1.8113,72.436
1.7419,71.947
1.6833,70.97
1.6315,70.189
1.5865,70.677
1.5533,73.657
1.5269,80.055
1.4995,89.238
1.4712,99.105
1.4438,107.26
1.4174,112.78
1.391,116.54
1.3636,119.47
1.3382,122.01
1.3138,124.02
1.2903,125.82
1.2669,127.48
1.2454,129
1.2287,130.12
1.2141,130.51
1.1975,129.68
1.1799,127.92
1.1613,125.97
1.1427,124.11
1.1241,122.26
1.1046,120.06
1.087,117.32
1.0704,113.76
1.0547,109.85
1.0391,106.14
1.0283,102.67
1.0196,99.251
1.0039,95.783
0.98534,93.097
0.96481,91.485
0.94819,90.41
0.94135,89.287
0.95308,88.115
0.99413,87.187
1.0723,86.698
1.1935,86.308
1.3548,85.721
1.5455,84.94
1.7234,83.865
1.8895,82.84
2.0665,82.302
2.2336,82.156
2.3763,82.107
2.4927,81.716
2.5826,81.179
2.6471,80.69
2.6931,80.349
2.7234,80.055
2.74,79.469
2.7429,78.932
2.7341,78.59
2.7146,78.492
2.6833,78.444
2.6403,78.102
2.5865,77.76
2.523,77.32
2.4497,76.636
2.3695,75.757
2.2815,75.171
2.1877,75.415
2.0899,76.294
1.9932,77.174
1.9081,77.32
1.8328,76.246
1.7556,74.243
1.6833,72.045
1.6188,70.238
1.563,69.407
1.5142,69.798
1.4731,72.094
1.4389,77.418
1.4086,86.112
1.3812,96.565
1.3548,105.75
1.3294,111.76
1.3109,115.37
1.2942,118.3
1.2747,121.28
1.2532,124.16
1.2317,126.6
1.2102,128.7
1.1896,130.17
1.1701,131
1.1505,131
1.132,130.41
1.1124,129.49
1.0948,128.07
1.0831,125.87
1.0743,123.28
1.0616,120.99
1.0459,118.89
1.0283,116.35
1.0098,113.12
0.99022,109.51
0.97165,105.94
0.95503,102.38
0.93646,98.763
0.91789,95.441
0.89834,92.755
0.87879,90.801
0.86804,89.385
0.87097,88.359
0.89345,87.626
0.94819,86.991
1.0411,86.356
1.174,85.721
1.3431,85.233
1.5357,84.745
1.737,84.158
1.9316,83.67
2.1075,83.182
2.2571,82.693
2.3656,82.253
2.4438,81.814
2.5112,81.472
2.564,81.13
2.6031,80.69
2.6285,80.251
2.6403,79.762
2.6393,79.323
2.6256,78.883
2.6002,78.346
2.5611,77.906
2.5103,77.564
2.4506,77.174
2.39,76.783
2.3255,76.441
2.2473,76.001
2.1603,75.562
2.0665,75.171
1.9717,74.731
1.9159,74.341
1.8827,73.999
1.826,73.559
1.7634,72.924
1.7038,72.24
1.651,71.557
1.6119,71.166
1.5806,71.752
1.5503,74.292
1.521,79.909
1.4946,88.554
1.4692,98.567
1.4457,107.31
1.4223,113.56
1.3988,117.62
1.3754,120.74
1.3539,123.67
1.3324,126.36
1.3109,128.61
1.2952,130.32
1.2815,131.39
1.2649,131.73
1.2473,131.54
1.2307,130.8
1.2131,129.63
1.1965,127.97
1.1799,125.92
1.1623,123.62
1.1437,121.18
1.1251,118.5
1.1056,115.47
1.0938,112.29
1.086,108.87
1.0753,105.31
1.0616,101.69
1.0459,98.177
1.0274,95.002
1.0068,92.315
0.98729,90.215
0.97654,88.75
0.9824,87.626
1.0166,86.796
1.087,86.161
1.1994,85.721
1.3255,85.379
1.4692,84.989
1.6491,84.549
1.8436,84.061
2.0362,83.572
2.2111,83.133
2.3617,82.84
2.4829,82.742
2.5758,82.595
2.6432,82.302
2.6901,81.814
2.7214,81.374
2.7351,80.935
2.7361,80.495
2.7292,80.007
2.7116,79.567
2.6833,79.323
2.6452,79.127
2.5973,78.737
2.5396,78.297
2.4702,77.809
2.392,77.223
2.306,76.636
2.2141,75.904
2.1193,75.318
2.0362,74.731
1.9599,74.194
1.8768,73.657
1.7947,73.12
1.7175,72.631
1.6481,72.094
1.5885,71.996
1.5376,72.778
1.4946,75.806
1.4604,82.009
1.433,91.045
1.4125,101.06
1.3969,109.61
1.3842,115.47
1.3685,119.37
1.3509,122.45
1.3333,125.38
1.3157,128.07
1.2981,130.12
1.2805,131.49
1.262,132.17
1.2444,132.32
1.2278,131.78
1.2121,130.8
1.1965,129.39
1.1857,127.48
1.1779,125.29
1.1662,122.75
1.1525,120.01
1.1369,116.98
1.1212,113.86
1.1075,110.49
1.0958,107.07
1.0821,103.5
1.0655,99.984
1.0469,96.614
1.0235,93.732
1.0049,91.632
0.99022,90.117
0.97752,89.043
0.97654,88.31
1.002,87.724
1.0645,87.284
1.1691,86.991
1.3157,86.552
1.4936,86.112
1.6901,85.673
1.8876,85.282
2.0733,84.94
2.2375,84.549
2.3617,84.158
2.4536,83.865
2.5318,83.475
2.5904,83.035
2.6315,82.595
2.6559,82.107
2.6637,81.618
2.6588,81.13
2.6413,80.544
2.6139,80.055
2.5777,79.567
2.5327,79.127
2.4848,78.737
2.4321,78.297
2.3685,77.809
2.2952,77.223
2.2131,76.636
2.1241,76.001
2.0332,75.415
1.9423,74.927
1.8543,74.341
1.7713,73.852
1.697,73.315
1.6334,72.729
1.5875,72.436
1.5543,72.729
1.523,74.78
1.4966,79.665
1.4741,87.822
1.4565,97.932
1.4418,107.55
1.4282,114.64
1.4135,119.33
1.3988,122.79
1.3812,126.12
1.3627,129.29
1.3431,131.93
1.3294,133.78
1.3177,134.91
1.3021,135.3
1.2845,135.05
1.2659,134.37
1.2483,133.2
1.2317,131.54
1.216,129.49
1.2004,127.04
1.1848,124.36
1.1691,121.48
1.1544,118.45
1.1466,115.22
1.1408,111.8
1.131,108.24
1.1202,104.62
1.1095,101.01
1.0958,97.591
1.0782,94.66
1.0577,92.364
1.0411,90.752
1.0362,89.482
1.0557,88.701
1.1105,87.968
1.2063,87.48
1.3177,87.04
1.4506,86.601
1.6237,86.161
1.8152,85.819
2.0078,85.379
2.1857,84.94
2.3412,84.549
2.4682,84.11
2.5679,83.816
2.6432,83.426
2.696,83.133
2.7302,82.742
2.7458,82.302
2.7478,81.814
2.741,81.277
2.7243,80.788
2.696,80.251
2.6579,79.762
2.6119,79.323
2.5562,78.786
2.4917,78.346
2.4194,77.906
2.3402,77.418
2.2561,76.978
2.1681,76.539
2.088,76.099
2.0127,75.66
1.9326,75.318
1.8534,74.78
1.7781,74.292
1.7107,73.657
1.654,73.12
1.609,72.729
1.5718,73.12
1.5406,75.318
1.5142,80.593
1.4917,89.287
1.4761,99.74
1.4643,109.26
1.4506,116.05
1.436,120.5
1.4194,124.11
1.3998,127.68
1.3783,131.05
1.3568,133.78
1.3363,135.74
1.3187,136.86
1.304,137.2
1.2893,136.81
1.2737,135.79
1.262,134.37
1.2512,132.56
1.2366,130.36
1.2219,127.87
1.2072,124.99
1.1906,122.01
1.174,118.89
1.1584,115.47
1.1427,112
1.1281,108.29
1.1153,104.62
1.1017,100.91
1.0929,97.444
1.0841,94.416
1.0704,92.071
1.0577,90.362
1.0567,89.092
1.0772,88.261
1.129,87.529
1.219,87.187
1.348,86.796
1.5112,86.503
1.697,86.112
1.8895,85.673
2.0753,85.282
2.2737,84.94
2.4712,84.549
2.6285,84.158
2.7498,83.816
2.8416,83.426
2.9071,83.035
2.9511,82.693
2.9756,82.253
2.9824,81.716
2.9746,81.228
2.9541,80.69
2.9208,80.153
2.8807,79.616
2.8319,79.127
2.7703,78.688
2.6989,78.248
2.6188,77.858
2.5308,77.418
2.437,76.978
2.3392,76.49
2.2385,76.05
2.1388,75.611
2.043,75.171
1.9541,74.634
1.8749,74.048
1.8133,73.364
1.7644,72.729
1.7195,72.289
1.6823,72.68
1.652,74.976
1.6266,80.349
1.6031,89.092
1.5816,99.495
1.5621,108.73
1.5445,115.32
1.5269,119.62
1.5083,123.18
1.4927,126.75
1.478,130.12
1.4585,132.81
1.4379,134.76
1.4184,135.88
1.3998,136.23
1.3822,135.93
1.3646,134.91
1.347,133.49
1.3275,131.54
1.3079,129.29
1.2903,126.7
1.2747,123.72
1.2639,120.69
1.2561,117.47
1.2454,114.25
1.2326,110.73
1.218,107.07
1.2023,103.35
1.1848,99.789
1.1652,96.467
1.1457,93.634
1.1261,91.387
1.1134,89.678
1.1173,88.506
1.1408,87.626
1.1896,86.991
1.2766,86.503
1.4057,86.063
1.5748,85.624
1.7713,85.233
1.9804,84.793
2.1867,84.354
2.3763,83.914
2.5406,83.572
2.6745,83.23
2.7781,82.937
2.8553,82.595
2.9052,82.156
2.9345,81.814
2.9541,81.374
2.9629,80.886
2.9589,80.3
2.9394,79.762
2.9081,79.225
2.8641,78.786
2.8094,78.346
2.7458,77.858
2.6745,77.418
2.5943,76.978
2.5171,76.539
2.4399,76.099
2.3519,75.611
2.2571,75.122
2.1603,74.634
2.0674,74.243
1.9814,73.852
1.9032,73.413
1.8348,72.778
1.7752,72.192
1.7234,71.605
1.6823,71.215
1.65,71.801
1.6276,74.243
1.61,79.811
1.5904,88.554
1.5709,98.763
1.5523,107.85
1.5347,114.34
1.5171,118.74
1.4976,122.35
1.4761,125.92
1.4536,129.24
1.4321,131.88
1.4125,133.64
1.3969,134.52
1.3851,134.61
1.3695,134.17
1.3529,133.2
1.3363,131.68
1.3196,129.63
1.304,127.19
1.2874,124.55
1.2708,121.72
1.2542,118.69
1.2375,115.37
1.2209,112
1.2092,108.48
1.2004,104.92
1.1877,101.3
1.173,97.786
1.1584,94.611
1.1417,91.925
1.1241,89.922
1.1114,88.408
1.1134,87.382
1.1408,86.503
1.2033,85.819
1.3089,85.282
1.4555,84.842
1.608,84.5
1.7713,84.061
1.9668,83.67
2.1691,83.426
2.3617,83.23
2.5308,82.986
2.6706,82.693
2.781,82.351
2.8661,82.058
2.9286,81.716
2.9697,81.374
2.9932,80.984
2.998,80.593
2.9902,80.251
2.9726,79.86
2.9423,79.421
2.8993,79.03
2.8456,78.688
2.7801,78.248
2.7058,77.76
2.6237,77.223
2.5327,76.636
2.436,76.001
2.3382,75.318
2.2405,74.683
2.1554,74.097
2.0792,73.608
2.001,73.071
1.9267,72.485
1.8592,71.85
1.7996,71.312
1.7498,70.824
1.7087,70.873
1.6755,72.24
1.6481,76.197
1.6246,83.621
1.6031,93.536
1.5865,103.6
1.5728,111.56
1.5582,116.79
1.5425,120.55
1.5259,123.87
1.5093,127.14
1.4927,129.73
1.4751,131.63
1.4585,132.61
1.4418,132.81
1.4291,132.32
1.4174,131.29
1.4047,129.88
1.3969,127.97
1.3891,125.72
1.3763,123.23
1.3587,120.5
1.3392,117.62
1.3196,114.54
1.3001,111.36
1.2815,108.04
1.2639,104.62
1.2463,101.11
1.2287,97.688
1.2082,94.562
1.1916,92.071
1.1769,90.166
1.1584,88.799
1.1457,87.822
1.1505,87.138
1.1857,86.601
1.2639,86.112
1.3891,85.721
1.5562,85.282
1.7566,84.989
1.9746,84.598
2.1945,84.305
2.3998,84.012
2.5601,83.67
2.6843,83.377
2.7947,82.986
2.8837,82.693
2.9521,82.253
2.999,81.863
3.0264,81.472
3.0381,81.032
3.0332,80.593
3.0147,80.153
2.9853,79.616
2.9443,79.03
2.8974,78.444
2.8446,77.809
2.7801,77.223
2.7048,76.685
2.6217,76.099
2.5327,75.464
2.4389,74.878
2.3451,74.292
2.2522,73.803
2.1632,73.315
2.0811,72.778
2.0068,72.24
1.9433,71.654
1.8954,71.117
1.8592,70.824
1.826,71.068
1.7967,72.875
1.7693,77.369
1.7449,85.282
1.7224,95.49
1.7019,105.41
1.6843,112.78
1.6676,117.62
1.653,121.13
1.6393,124.31
1.6295,127.29
1.6207,129.83
1.608,131.54
1.5914,132.42
1.5738,132.61
1.5562,132.22
1.5396,131.39
1.5034,130.07
1.4555,128.26
1.4233,125.97
1.3978,123.58
1.3763,120.99
1.3578,118.25
1.3441,115.32
1.3333,112.19
1.3196,108.87
1.3021,105.5
1.2825,101.99
1.262,98.567
1.2395,95.295
1.216,92.56
1.1945,90.313
1.1789,88.701
1.176,87.529
1.1984,86.747
1.2434,86.112
1.3177,85.624
1.4399,85.184
1.6051,84.793
1.8065,84.403
2.0303,84.012
2.2561,83.572
2.4682,83.133
2.6559,82.693
2.8113,82.302
2.9326,82.009
3.0225,81.618
3.085,81.228
3.1212,80.739
3.1388,80.251
3.1486,79.762
3.1486,79.225
3.1359,78.737
3.1105,78.297
3.0753,77.858
3.0283,77.369
2.9697,76.881
2.9003,76.343
2.8201,75.904
2.7283,75.562
2.6413,75.122
2.5533,74.683
2.4526,74.243
2.348,73.852
2.2454,73.51
2.1486,73.12
2.0606,72.631
1.9824,72.045
1.9169,71.361
1.8631,70.726
1.8172,70.287
1.7791,70.433
1.7478,71.947
1.7263,76.099
1.7097,83.719
1.6921,93.878
1.6716,103.84
1.6481,111.56
1.6246,116.49
1.6022,120.01
1.5797,123.23
1.5572,126.31
1.5357,128.8
1.5142,130.61
1.4936,131.68
1.479,132.07
1.4673,131.73
1.4526,130.85
1.437,129.53
1.4194,127.73
1.4008,125.48
1.3812,122.99
1.3607,120.35
1.3402,117.57
1.3196,114.64
1.3011,111.41
1.2825,108.09
1.2688,104.67
1.259,101.16
1.2454,97.737
1.2278,94.562
1.2072,91.876
1.1857,89.824
1.1681,88.164
1.1603,86.991
1.173,86.112
1.219,85.477
1.3069,85.038
1.4418,84.696
1.6217,84.305
1.8035,83.914
1.9873,83.572
2.1984,83.035
2.4086,82.595
2.5992,82.107
2.7615,81.667
2.8915,81.277
2.9892,80.886
3.0606,80.446
3.1114,80.007
3.1447,79.567
3.1613,79.127
3.1603,78.59
3.1437,78.102
3.1173,77.564
3.0802,77.027
3.0313,76.539
2.9717,76.099
2.9032,75.66
2.8231,75.22
2.7331,74.78
2.6364,74.341
2.5337,73.901
2.4282,73.51
2.3226,73.12
2.2307,72.729
2.1486,72.289
2.0655,71.801
1.9883,71.166
1.9218,70.531
1.8671,69.994
1.8221,69.603
1.7859,69.798
1.7576,71.654
1.7341,76.441
1.7136,84.5
1.6931,94.513
1.6735,103.94
1.6549,110.92
1.6334,115.37
1.61,118.69
1.5875,121.72
1.565,124.6
1.5406,126.95
1.5152,128.51
1.4907,129.39
1.4673,129.53
1.4457,129.24
1.4262,128.31
1.4086,126.85
1.3939,125.04
1.3803,122.84
1.3636,120.5
1.347,117.86
1.3294,115.13
1.3109,112.1
1.2923,108.97
1.2737,105.7
1.2561,102.23
1.2375,98.812
1.219,95.441
1.1984,92.413
1.1818,89.873
1.1672,87.871
1.1496,86.405
1.1408,85.379
1.1535,84.549
1.2004,84.012
1.2903,83.572
1.4272,83.133
1.608,82.742
1.8211,82.351
2.0518,81.912
2.2805,81.57
2.4917,81.179
2.654,80.788
2.7781,80.349
2.8886,80.007
2.9775,79.567
3.043,79.127
3.089,78.688
3.1163,78.199
3.1271,77.662
3.1222,77.174
3.1036,76.685
3.0714,76.197
3.0264,75.757
2.9746,75.22
2.9169,74.78
2.8465,74.341
2.7654,73.901
2.6764,73.413
2.5797,72.973
2.477,72.485
2.3734,72.045
2.2708,71.654
2.1701,71.312
2.0743,70.873
1.9863,70.384
1.9091,69.749
1.8504,68.968
1.8045,68.284
1.7625,67.844
1.7253,68.431
1.694,70.97
1.6676,76.734
1.6442,85.673
1.6227,95.93
1.6031,104.92
1.5826,111.17
1.5611,115.17
1.5396,118.25
1.522,121.04
1.5064,123.58
1.4858,125.48
1.4653,126.75
1.4448,127.29
1.4262,127.29
1.4086,126.7
1.39,125.63
1.3695,124.11
1.349,122.16
1.3284,119.86
1.3089,117.37
1.2893,114.69
1.2747,111.85
1.2561,108.87
1.2414,105.75
1.2258,102.47
1.2023,99.105
1.1857,95.734
1.1662,92.608
1.1437,89.824
1.1212,87.529
1.1026,85.868
1.0987,84.696
1.1144,83.816
1.1593,83.133
1.2483,82.595
1.3871,82.156
1.5699,81.863
1.7869,81.472
2.0215,81.179
2.2522,80.788
2.4643,80.495
2.6471,80.153
2.7947,79.86
2.9071,79.616
2.9863,79.323
3.0323,78.981
3.0557,78.737
3.0684,78.346
3.0704,78.004
3.0616,77.613
3.0411,77.174
3.0068,76.734
2.9599,76.294
2.9013,75.904
2.8309,75.464
2.7488,74.976
2.6579,74.487
2.5709,73.901
2.4487,73.364
2.2981,72.68
2.1711,72.045
2.0587,71.41
1.957,70.824
1.8661,70.287
1.7859,69.749
1.7165,69.261
1.6569,68.675
1.6061,68.235
1.563,68.382
1.5279,69.945
1.5044,74.194
1.4868,81.667
1.4682,91.436
1.4506,101.11
1.434,108.68
1.4174,113.56
1.3998,116.88
1.3812,119.57
1.3636,122.01
1.347,123.92
1.3304,125.19
1.3138,125.72
1.3021,125.72
1.2913,125.24
1.2776,124.26
1.263,122.79
1.2483,120.99
1.2346,118.89
1.2219,116.49
1.2082,113.9
1.1916,111.17
1.173,108.24
1.1535,105.16
1.1261,101.99
1.1105,98.665
1.0978,95.441
1.0723,92.315
1.0489,89.531
1.0254,87.382
1.0088,85.819
1.0117,84.696
1.0469,83.914
1.1251,83.377
1.2502,82.986
1.4213,82.693
1.6276,82.449
1.8221,82.058
2.0049,81.716
2.2004,81.374
2.3842,81.032
2.5415,80.739
2.6667,80.349
2.7586,79.909
2.8221,79.421
2.8622,78.883
2.8827,78.346
2.8856,77.858
2.8739,77.418
2.8504,76.929
2.8162,76.49
2.7458,76.05
2.6882,75.611
2.6227,75.122
2.5103,74.634
2.4233,74.097
2.3294,73.559
2.2307,73.071
2.132,72.533
2.0352,71.996
1.9423,71.557
1.8661,71.068
1.8035,70.629
1.7449,70.189
1.6931,69.749
1.65,69.163
1.6158,68.626
1.5885,68.186
1.567,68.284
1.5474,69.945
1.521,74.194
1.5034,81.716
1.4868,91.534
1.4663,101.3
1.4487,108.82
1.4301,113.61
1.4106,116.79
1.391,119.47
1.3734,121.87
1.3558,123.87
1.3392,125.19
1.3226,125.92
1.306,126.12
1.2893,125.72
1.2727,124.85
1.261,123.58
1.2512,121.82
1.2405,119.77
1.2287,117.32
1.217,114.73
1.2033,112.05
1.1887,109.17
1.172,106.24
1.1525,103.16
1.13,100.03
1.1085,96.858
1.0919,93.683
1.085,90.752
1.0948,88.31
1.1281,86.405
1.1984,85.135
1.3118,84.158
1.4702,83.475
1.6647,83.035
1.8807,82.595
2.1026,82.253
2.3128,81.863
2.4995,81.423
2.653,80.984
2.7722,80.544
2.8504,80.104
2.8993,79.665
2.9345,79.225
2.955,78.883
2.9599,78.444
2.9511,78.004
2.9296,77.613
2.8974,77.125
2.8534,76.636
2.7996,76.099
2.738,75.611
2.6667,75.073
2.5953,74.487
2.523,73.999
2.4379,73.51
2.346,73.12
2.2502,72.729
2.1544,72.289
2.0606,71.947
1.9726,71.557
1.8915,71.166
1.8192,70.824
1.7566,70.433
1.7038,69.994
1.6618,69.407
1.6325,68.821
1.609,68.089
1.5855,67.698
1.5611,67.6
1.5367,68.87
1.5142,72.533
1.4936,79.567
1.4731,89.092
1.4526,99.056
1.4311,106.92
1.4076,112.1
1.3842,115.57
1.3675,118.35
1.3548,120.94
1.3402,123.04
1.3245,124.6
1.3089,125.63
1.2933,125.97
1.2766,125.82
1.259,124.99
1.2405,123.72
1.2219,122.06
1.2043,120.06
1.1877,117.76
1.173,115.22
1.1642,112.54
1.1574,109.66
1.1466,106.68
1.132,103.55
1.1144,100.33
1.0948,97.004
1.0753,93.683
1.0626,90.655
1.0655,88.164
1.0968,86.308
1.1672,84.842
1.2835,83.816
1.4164,83.035
1.5709,82.498
1.7664,82.107
1.9804,81.716
2.1926,81.374
2.3851,80.984
2.5484,80.544
2.6813,80.104
2.782,79.665
2.8543,79.225
2.9032,78.786
2.9326,78.444
2.9462,78.053
2.9443,77.613
2.9286,77.174
2.9022,76.685
2.8622,76.197
2.8104,75.66
2.7478,75.122
2.6764,74.683
2.5982,74.243
2.5152,73.803
2.4252,73.413
2.3284,73.071
2.2287,72.631
2.1388,72.192
2.0567,71.654
1.9717,71.215
1.8905,70.824
1.8152,70.433
1.7507,70.042
1.696,69.603
1.651,69.114
1.6149,68.479
1.5846,67.844
1.5572,67.405
1.5327,67.698
1.5112,69.505
1.4966,74.097
1.4829,81.912
1.4653,91.68
1.4467,101.06
1.4272,108.04
1.4066,112.49
1.3871,115.57
1.3695,118.25
1.3519,120.6
1.3343,122.55
1.3138,123.87
1.2923,124.7
1.2757,124.85
1.261,124.55
1.2434,123.67
1.2248,122.31
1.2072,120.5
1.1916,118.35
1.1779,116
1.1642,113.51
1.1515,110.83
1.1388,107.95
1.1251,104.82
1.1105,101.5
1.0929,98.177
1.0782,94.806
1.0674,91.632
1.0596,88.799
1.0674,86.552
1.1026,84.842
1.1779,83.572
1.2972,82.693
1.4633,82.058
1.6667,81.57
1.8866,81.179
2.1065,80.886
2.3128,80.495
2.4741,80.104
2.5982,79.665
2.7107,79.323
2.8006,78.932
2.868,78.541
2.914,78.199
2.9413,77.76
2.9511,77.32
2.9472,76.783
2.9296,76.343
2.8983,75.855
2.8543,75.415
2.7986,74.976
2.74,74.536
2.6764,74.097
2.5992,73.657
2.5132,73.217
2.4194,72.875
2.3206,72.436
2.2199,71.996
2.1212,71.557
2.0264,71.117
1.9384,70.677
1.8583,70.238
1.7879,69.798
1.7341,69.407
1.6921,68.968
1.653,68.431
1.6197,67.796
1.5914,67.161
1.565,66.916
1.5425,67.796
1.522,70.824
1.5015,76.978
1.4809,86.112
1.4604,96.076
1.4399,104.43
1.4233,110
1.4086,113.56
1.391,116.3
1.3724,118.69
1.3548,120.79
1.3382,122.35
1.3216,123.48
1.303,124.02
1.2825,123.87
1.2649,123.18
1.2483,122.01
1.2317,120.3
1.2151,118.25
1.2023,115.91
1.1926,113.51
1.1799,110.88
1.1662,107.99
1.1505,105.01
1.1339,101.89
1.1173,98.616
1.0997,95.295
1.0811,92.071
1.0684,89.092
1.0704,86.601
1.0978,84.696
1.1466,83.23
1.2258,82.156
1.3529,81.374
1.522,80.739
1.7214,80.251
1.9384,79.811
2.1544,79.372
2.3558,78.981
2.5298,78.541
2.6716,78.102
2.781,77.76
2.8602,77.369
2.913,76.978
2.9413,76.685
2.9521,76.343
2.9521,76.001
2.9404,75.611
2.9159,75.171
2.8788,74.78
2.8299,74.487
2.7693,74.097
2.697,73.803
2.6158,73.413
2.5288,73.071
2.434,72.68
2.3451,72.24
2.261,71.752
2.1681,71.215
2.0723,70.677
1.9785,70.091
1.8895,69.554
1.8104,69.066
1.7419,68.528
1.6833,68.04
1.6354,67.551
1.5973,66.965
1.565,66.428
1.5376,66.037
1.5181,66.281
1.5015,68.284
1.4829,72.973
1.4624,80.886
1.4409,90.606
1.4194,99.886
1.3988,106.87
1.3803,111.32
1.3627,114.25
1.3451,116.54
1.3255,118.74
1.3069,120.5
1.2933,121.82
1.2805,122.35
1.2639,122.35
1.2502,121.72
1.2366,120.6
1.2219,119.03
1.2043,117.13
1.1867,114.93
1.1672,112.63
1.1476,110.09
1.1281,107.51
1.1105,104.72
1.0929,101.94
1.0802,98.909
1.0674,95.734
1.0489,92.511
1.0303,89.482
1.0186,86.943
1.0244,84.793
1.0587,83.377
1.132,82.449
1.2512,82.009
1.4164,81.667
1.6158,81.423
1.8358,81.13
2.0323,80.739
2.2082,80.251
2.3871,79.665
2.5464,79.225
2.6745,78.932
2.7693,78.737
2.8348,78.541
2.8739,78.346
2.8915,78.102
2.8935,77.858
2.8817,77.467
2.8583,77.027
2.824,76.685
2.784,76.246
2.738,75.806
2.6804,75.415
2.6119,74.976
2.5337,74.634
2.4467,74.243
2.3529,73.852
2.2551,73.51
2.1574,72.973
2.0616,72.387
1.9697,71.654
1.8856,71.068
1.8182,70.384
1.7644,69.847
1.7126,69.359
1.6676,68.87
1.6315,68.284
1.6022,67.796
1.5777,67.747
1.5552,69.066
1.5337,72.924
1.5152,80.007
1.4976,89.531
1.4809,99.251
1.4663,107.07
1.4565,112.05
1.4477,115.17
1.436,117.42
1.4223,119.42
1.4057,121.13
1.3881,122.31
1.3715,122.94
1.3558,123.04
1.3421,122.6
1.3314,121.67
1.3216,120.25
1.3128,118.5
1.3079,116.49
1.3021,114.25
1.2903,111.8
1.2766,109.26
1.262,106.48
1.2463,103.55
1.2287,100.57
1.2072,97.444
1.1818,94.367
1.1574,91.436
1.1427,88.799
1.1457,86.552
1.1769,84.793
1.2317,83.572
1.3187,82.693
1.4585,82.107
1.6403,81.716
1.8514,81.423
2.0753,81.13
2.2933,80.593
2.4917,80.104
2.6588,79.616
2.7918,79.127
2.8915,78.688
2.9609,78.297
2.999,77.906
3.0147,77.613
3.0196,77.223
3.0127,76.881
2.9932,76.343
2.9629,75.855
2.9218,75.366
2.871,74.878
2.8113,74.292
2.7429,73.803
2.6676,73.315
2.5846,72.778
2.4966,72.387
2.4145,71.996
2.3343,71.654
2.2473,71.312
2.1593,70.873
2.0733,70.433
1.9932,70.042
1.9198,69.603
1.8543,69.114
1.7977,68.626
1.7507,68.089
1.7116,67.551
1.6794,67.112
1.6579,67.112
1.6413,68.431
1.6246,72.289
1.608,79.372
1.5894,88.847
1.5679,98.616
1.5445,106.28
1.52,111.22
1.4946,114.44
1.4692,116.98
1.4457,119.33
1.4242,121.18
1.4057,122.6
1.3891,123.58
1.3695,123.92
1.348,123.62
1.3294,122.7
1.3118,121.28
1.2952,119.67
1.2786,117.67
1.262,115.37
1.2463,112.88
1.2326,110.29
1.2209,107.51
1.2092,104.58
1.2004,101.45
1.1896,98.323
1.1711,95.099
1.1486,91.973
1.131,89.189
1.1281,86.796
1.1515,85.038
1.2131,83.719
1.3177,82.791
1.4682,82.107
1.6569,81.667
1.869,81.277
2.0616,80.984
2.2336,80.593
2.4115,80.153
2.5738,79.762
2.7067,79.323
2.8104,78.786
2.8876,78.346
2.9404,78.053
2.9726,77.613
2.9892,77.174
2.9892,76.685
2.9736,76.197
2.9443,75.66
2.9062,75.122
2.8592,74.634
2.8025,74.194
2.7361,73.755
2.6608,73.364
2.5787,72.924
2.4897,72.485
2.3949,72.094
2.2962,71.752
2.1975,71.361
2.1017,70.922
2.0117,70.531
1.9374,70.189
1.8759,69.798
1.8162,69.359
1.7634,68.821
1.7185,68.235
1.6813,67.6
1.65,67.161
1.6256,67.307
1.6041,69.066
1.5826,73.51
1.5611,81.13
1.5376,90.801
1.5152,100.23
1.4976,107.26
1.4829,111.66
1.4643,114.64
1.4438,117.03
1.4213,119.33
1.3978,121.04
1.3744,122.31
1.3529,122.94
1.3324,123.04
1.3118,122.7
1.2933,121.72
1.2757,120.35
1.262,118.54
1.2493,116.44
1.2356,114.2
1.2229,111.76
1.2102,109.12
1.1984,106.38
1.1838,103.45
1.1662,100.37
1.1457,97.249
1.1241,94.123
1.1056,91.094
1.0968,88.359
1.1065,86.161
1.1359,84.5
1.1935,83.279
1.2952,82.449
1.4418,81.814
1.6276,81.374
1.8377,80.984
2.0538,80.593
2.262,80.153
2.4506,79.762
2.6109,79.323
2.74,78.883
2.8368,78.444
2.8983,78.004
2.9345,77.564
2.9599,77.027
2.9726,76.636
2.9726,76.197
2.9599,75.757
2.9335,75.22
2.8935,74.78
2.8416,74.341
2.7791,73.901
2.7077,73.51
2.6276,73.071
2.5415,72.631
2.4604,72.192
2.3812,71.801
2.2913,71.361
2.1965,70.922
2.1036,70.433
2.0137,69.994
1.9296,69.554
1.8534,69.114
1.7879,68.675
1.7331,68.186
1.6882,67.6
1.652,67.063
1.6266,66.819
1.6061,67.551
1.5846,70.482
1.5621,76.49
1.5386,85.428
1.5152,95.295
1.4936,103.74
1.4721,109.31
1.4516,112.78
1.433,115.37
1.4154,117.67
1.3969,119.62
1.3783,120.99
1.3636,121.82
1.349,122.26
1.3294,122.11
1.3089,121.57
1.2884,120.45
1.2688,118.94
1.2522,117.13
1.2375,114.93
1.2239,112.63
1.2111,110.05
1.1984,107.41
1.1848,104.58
1.174,101.55
1.1623,98.421
1.1437,95.246
1.1212,92.12
1.1007,89.238
1.0909,86.747
1.1036,84.842
1.1486,83.475
1.2356,82.498
1.3685,81.667
1.5445,81.13
1.7507,80.739
1.9717,80.349
2.1623,79.909
2.3265,79.567
2.4888,79.03
2.6325,78.59
2.7478,78.199
2.8338,77.76
2.8925,77.369
2.9326,76.978
2.957,76.539
2.9648,76.099
2.958,75.611
2.9384,75.122
2.9081,74.536
2.87,74.097
2.8211,73.608
2.7595,73.168
2.6862,72.778
2.6041,72.436
2.5142,72.094
2.4194,71.752
2.3206,71.312
2.2219,70.873
2.1261,70.433
2.0352,69.945
1.9501,69.505
1.8807,69.114
1.824,68.675
1.7703,68.186
1.7234,67.6
1.6823,67.063
1.6471,66.526
1.6197,66.428
1.5963,67.6
1.5718,71.117
1.5474,77.809
1.5239,86.943
1.5015,96.467
1.4848,104.23
1.4702,109.36
1.4526,112.63
1.433,115.08
1.4115,117.18
1.392,118.98
1.3734,120.3
1.3539,121.13
1.3343,121.38
1.3138,120.99
1.2923,120.16
1.2717,118.94
1.2522,117.37
1.2385,115.37
1.2287,113.12
1.218,110.73
1.2063,108.19
1.1945,105.36
1.1808,102.43
1.1652,99.349
1.1457,96.321
1.1241,93.097
1.1026,90.117
1.088,87.382
1.089,85.135
1.1075,83.426
1.1505,82.107
1.2336,81.179
1.3617,80.495
1.5318,80.007
1.7341,79.616
1.9531,79.225
2.1701,78.883
2.3715,78.541
2.5435,78.248
2.6823,77.906
2.7879,77.564
2.8534,77.174
2.8925,76.783
2.9198,76.49
2.9335,76.099
2.9335,75.757
2.9198,75.366
2.8964,74.976
2.8622,74.634
2.8162,74.243
2.7595,73.852
2.6911,73.51
2.6129,73.071
2.5259,72.68
2.4428,72.289
2.3617,71.801
2.2688,71.215
2.1711,70.677
2.0743,70.042
1.9814,69.407
1.8935,68.87
1.8143,68.284
1.7312,67.747
1.651,67.161
1.5914,66.672
1.5474,66.233
1.5161,66.379
1.4927,67.747
1.4702,71.654
1.4497,78.737
1.4311,88.261
1.4135,97.737
1.3939,105.26
1.3734,110
1.3519,112.88
1.3304,115.08
1.3109,116.88
1.2923,118.3
1.2747,119.23
1.261,119.67
1.2483,119.57
1.2297,118.98
1.2092,118.06
1.1887,116.74
1.1691,115.08
1.1515,113.07
1.1349,110.88
1.1183,108.48
1.1017,105.94
1.0841,103.11
1.0655,100.03
1.0518,97.004
1.0391,93.927
1.0186,90.997
0.99511,88.31
0.97458,86.063
0.96774,84.305
0.98631,83.133
1.043,82.253
1.1447,81.618
1.2942,81.179
1.4858,80.886
1.7058,80.544
1.9355,80.251
2.13,79.86
2.2952,79.469
2.4555,79.127
2.5914,78.737
2.697,78.444
2.7732,78.102
2.8221,77.76
2.8475,77.223
2.8553,76.734
2.8495,76.294
2.8289,75.904
2.7967,75.562
2.7576,75.22
2.7116,74.731
2.6549,74.194
2.5885,73.657
2.5132,73.168
2.4291,72.631
2.3382,71.85
2.2424,71.166
2.1437,70.677
2.0479,70.482
1.956,70.287
1.871,69.749
1.7967,68.919
1.739,68.04
1.695,67.551
1.653,67.307
1.6149,66.916
1.5846,66.477
1.5601,66.916
1.5396,69.603
1.521,75.611
1.5034,84.5
1.4858,94.416
1.4682,103.06
1.4487,109.12
1.4321,112.88
1.4174,115.32
1.3998,117.32
1.3803,119.03
1.3617,120.55
1.3431,121.67
1.3255,122.11
1.3109,121.82
1.2972,120.94
1.2815,119.86
1.2649,118.5
1.2483,116.79
1.2317,114.69
1.2199,112.24
1.2092,109.61
1.1955,106.97
1.1799,104.38
1.1632,101.69
1.1437,98.665
1.1212,95.637
1.0978,92.511
1.0772,89.629
1.0684,87.04
1.0831,85.135
1.1329,83.719
1.2063,82.742
1.3109,82.107
1.4682,81.618
1.6657,81.179
1.8876,80.788
2.1173,80.446
2.3363,80.007
2.5318,79.567
2.696,79.03
2.826,78.541
2.9228,78.053
2.9902,77.613
3.0342,77.125
3.0547,76.685
3.0567,76.294
3.0469,75.855
3.0254,75.415
2.9922,74.878
2.9482,74.341
2.8944,73.852
2.8319,73.364
2.7605,72.924
2.6804,72.485
2.5914,72.094
2.4956,71.752
2.4047,71.312
2.3177,70.873
2.2229,70.433
2.1281,69.994
2.0371,69.652
1.9511,69.359
1.8739,68.968
1.8084,68.431
1.7537,67.796
1.7097,67.161
1.6725,66.672
1.6413,66.868
1.6139,68.431
1.5924,72.631
1.5728,80.104
1.5503,89.971
1.5269,99.74
1.5024,107.07
1.477,111.61
1.4526,114.44
1.4301,116.69
1.4086,118.69
1.3871,120.3
1.3656,121.38
1.3441,122.06
1.3275,122.35
1.3128,122.11
1.2942,121.28
1.2727,120.06
1.2512,118.45
1.2317,116.54
1.2131,114.34
1.1955,112
1.1799,109.36
1.1672,106.48
1.1544,103.5
1.1408,100.42
1.1241,97.297
1.1095,94.123
1.0958,91.045
1.0821,88.359
1.0782,86.161
1.0997,84.5
1.1584,83.23
1.262,82.351
1.4125,81.667
1.6061,81.179
1.827,80.788
2.0596,80.495
2.2845,80.055
2.4643,79.616
2.6061,79.127
2.7351,78.688
2.8416,78.297
2.9247,77.906
2.9834,77.564
3.0205,77.125
3.0411,76.685
3.045,76.197
3.0323,75.611
3.0059,75.073
2.9677,74.536
2.9169,74.097
2.8612,73.657
2.7977,73.217
2.7234,72.924
2.6393,72.485
2.5474,72.094
2.4506,71.752
2.349,71.361
2.2454,70.873
2.1427,70.287
2.0459,69.847
1.958,69.554
1.8788,69.261
1.8162,68.821
1.7654,68.04
1.7195,67.307
1.6784,66.721
1.6422,66.721
1.61,67.698
1.5806,70.629
1.5543,76.685
1.5288,85.819
1.5034,95.881
1.478,104.14
1.4536,109.41
1.435,112.68
1.4194,115.13
1.4008,117.32
1.3803,119.03
1.3578,120.45
1.3363,121.43
1.3138,122.06
1.2923,122.01
1.2717,121.23
1.2512,120.11
1.2317,118.59
1.2131,116.88
1.1955,114.69
1.1828,112.24
1.173,109.61
1.1613,106.82
1.1496,103.84
1.1349,100.72
1.1173,97.591
1.0958,94.562
1.0723,91.534
1.0538,88.75
1.0489,86.308
1.0665,84.403
1.1183,83.133
1.1926,82.107
1.2981,81.423
1.4555,80.984
1.651,80.593
1.871,80.3
2.0978,79.909
2.3128,79.616
2.5024,79.225
2.6598,78.883
2.784,78.444
2.8778,78.004
2.9423,77.613
2.9814,77.125
2.9961,76.539
2.9717,76.001
2.9335,75.464
2.9062,75.073
2.8729,74.634
2.8299,74.097
2.7781,73.559
2.7175,72.973
2.6491,72.485
2.5709,71.996
2.4839,71.557
2.39,71.215
2.303,70.922
2.2199,70.531
2.13,70.042
2.0401,69.603
1.955,69.163
1.8759,68.87
1.8045,68.479
1.7439,68.04
1.6931,67.551
1.65,67.063
1.6158,66.623
1.5885,66.721
1.563,68.431
1.5425,72.68
1.5249,80.104
1.5044,89.678
1.4829,99.105
1.4624,106.28
1.4409,110.88
1.4184,113.66
1.3949,115.76
1.3705,117.57
1.348,119.13
1.3265,120.25
1.306,120.99
1.2913,121.18
1.2796,120.94
1.2639,120.16
1.2463,118.94
1.2287,117.32
1.2121,115.37
1.1965,113.17
1.1808,110.83
1.1672,108.24
1.1544,105.5
1.1408,102.47
1.1251,99.349
1.1075,96.174
1.0938,93.048
1.0831,90.166
1.0723,87.675
1.0723,85.673
1.0938,84.061
1.1466,82.791
1.2405,81.716
1.3783,80.935
1.5543,80.3
1.7556,79.86
1.9687,79.421
2.1789,79.03
2.349,78.541
2.4848,78.004
2.6129,77.418
2.7204,76.929
2.8035,76.343
2.8622,75.855
2.8974,75.366
2.914,74.878
2.9159,74.438
2.9052,73.999
2.8817,73.559
2.8475,73.168
2.8016,72.778
2.7507,72.387
2.694,71.947
2.6246,71.557
2.5455,71.215
2.4575,70.922
2.3627,70.629
2.263,70.238
2.1632,69.847
2.0665,69.505
1.9746,68.968
1.8905,68.479
1.8162,67.942
1.7586,67.503
1.7126,66.965
1.6696,66.477
1.6325,65.94
1.6012,65.402
1.5738,65.5
1.5484,66.916
1.522,70.922
1.4936,78.053
1.4653,87.48
1.4379,97.102
1.4106,104.67
1.3822,109.51
1.3597,112.44
1.3402,114.64
1.3187,116.54
1.2972,118.2
1.2776,119.37
1.26,120.06
1.2434,120.16
1.2278,119.81
1.2121,119.03
1.1965,117.86
1.1808,116.25
1.1642,114.34
1.1515,112.24
1.1417,110
1.1271,107.41
1.1105,104.72
1.0929,101.94
1.0762,98.909
1.0577,95.881
1.0371,92.755
1.0156,89.824
0.99902,87.187
0.99609,85.135
1.0176,83.621
1.0762,82.547
1.1574,81.814
1.2669,81.13
1.4252,80.593
1.6197,80.153
1.8856,79.762
2.1271,79.372
2.2913,78.981
2.4497,78.59
2.5846,78.297
2.6921,78.053
2.7713,77.809
2.827,77.467
2.8583,77.125
2.871,76.734
2.8729,76.294
2.8631,75.855
2.8416,75.464
2.8074,75.122
2.7615,74.683
2.7048,74.341
2.6403,74.048
2.567,73.755
2.4829,73.315
2.3939,72.875
2.3011,72.387
2.216,71.947
2.1349,71.41
2.0469,70.873
1.9589,70.384
1.8768,69.798
1.8025,69.359
1.738,68.87
1.6833,68.382
1.6383,67.942
1.6022,67.6
1.5728,68.089
1.5474,70.433
1.5288,75.757
1.5122,84.061
1.4917,93.781
1.4702,102.67
1.4506,108.97
1.433,112.73
1.4154,115.13
1.3969,116.93
1.3773,118.5
1.3578,119.67
1.3392,120.35
1.3226,120.5
1.3099,120.25
1.3011,119.47
1.2903,118.35
1.2786,116.88
1.2669,115.08
1.2542,113.07
1.2424,110.88
1.2307,108.48
1.218,105.94
1.2053,103.11
1.1916,100.18
1.175,97.053
1.1544,93.976
1.1359,91.045
1.1193,88.359
1.1046,86.063
1.1026,84.305
1.1281,83.035
1.1906,82.253
1.2972,81.618
1.4477,81.179
1.6354,80.886
1.8465,80.593
2.0635,80.251
2.2708,79.86
2.434,79.372
2.5611,78.883
2.6755,78.346
2.7664,77.906
2.8328,77.467
2.8768,77.027
2.9003,76.636
2.9081,76.197
2.9032,75.611
2.8866,75.122
2.8592,74.683
2.8201,74.243
2.7722,73.803
2.7204,73.364
2.6628,72.924
2.5934,72.485
2.5161,72.045
2.4321,71.654
2.3421,71.312
2.2473,70.873
2.1535,70.384
2.0635,69.945
1.9804,69.505
1.9062,69.114
1.8416,68.675
1.7908,68.186
1.7507,67.698
1.7136,67.161
1.6804,66.721
1.65,66.819
1.6207,68.04
1.5934,71.801
1.5679,78.786
1.5435,88.31
1.5191,98.177
1.4956,105.94
1.4721,110.88
1.4506,113.86
1.434,116.2
1.4203,118.2
1.4027,119.86
1.3803,121.04
1.3587,121.72
1.3402,122.01
1.3226,121.82
1.306,121.18
1.2893,120.06
1.2737,118.5
1.2581,116.74
1.2414,114.69
1.2268,112.39
1.216,109.8
1.2043,107.07
1.1926,104.23
1.1789,101.25
1.1623,98.177
1.1417,95.002
1.1193,91.973
1.1134,89.189
1.1202,86.845
1.1398,85.135
1.1935,83.816
1.2903,82.84
1.4066,82.107
1.5474,81.57
1.7341,81.13
1.9472,80.69
2.1662,80.251
2.3744,79.86
2.5582,79.421
2.7097,79.03
2.8299,78.541
2.9208,78.053
2.9844,77.613
3.0264,77.174
3.045,76.734
3.0459,76.294
3.0362,75.806
3.0156,75.366
2.9844,74.878
2.9413,74.341
2.8876,73.901
2.825,73.51
2.7537,73.071
2.6735,72.631
2.5865,72.24
2.4927,71.947
2.3949,71.557
2.305,71.117
2.2239,70.677
2.1388,70.287
2.0528,69.945
1.9726,69.554
1.9003,69.066
1.8368,68.431
1.784,67.796
1.741,67.307
1.7038,67.112
1.6716,68.089
1.6422,71.312
1.6188,77.613
1.5992,86.601
1.5777,96.369
1.5533,104.58
1.5279,110
1.5034,113.32
1.479,115.66
1.4545,117.76
1.4301,119.47
1.4047,120.79
1.3812,121.67
1.3607,122.11
1.3431,122.06
1.3304,121.48
1.3177,120.5
1.3001,119.18
1.2805,117.47
1.261,115.47
1.2434,113.12
1.2287,110.53
1.2151,107.85
1.2033,105.01
1.1916,101.99
1.1779,98.86
1.1603,95.686
1.1447,92.56
1.131,89.678
1.1202,87.284
1.1241,85.477
1.1564,84.061
1.2268,82.986
1.3431,82.156
1.5044,81.57
1.7009,81.13
1.9169,80.739
2.1349,80.3
2.3402,79.86
2.52,79.421
2.653,78.981
2.7507,78.541
2.8358,78.102
2.9013,77.662
2.9472,77.32
2.9756,76.929
2.9873,76.441
2.9853,75.904
2.9707,75.415
2.9433,74.976
2.9022,74.487
2.8495,73.901
2.7928,73.559
2.7302,73.168
2.654,72.875
2.5679,72.485
2.477,72.045
2.3812,71.605
2.2835,71.117
2.1848,70.629
2.089,70.238
2,69.847
1.9179,69.505
1.8446,68.968
1.781,68.479
1.7322,67.942
1.6931,67.356
1.6569,67.161
1.6237,67.991
1.5934,71.068
1.566,77.223
1.5406,86.259
1.5161,95.979
1.4936,104.14
1.4692,109.56
1.4428,112.98
1.4154,115.42
1.392,117.62
1.3724,119.42
1.3529,120.89
1.3343,121.82
1.3157,122.31
1.2972,122.26
1.2786,121.62
1.261,120.6
1.2454,119.18
1.2287,117.37
1.2131,115.22
1.1975,112.93
1.1857,110.49
1.1769,107.85
1.1642,105.06
1.1486,101.99
1.13,98.86
1.1095,95.686
1.087,92.608
1.0674,89.824
1.0587,87.48
1.0704,85.624
1.1124,84.256
1.1955,83.182
1.3216,82.351
1.4614,81.716
1.6178,81.277
1.8143,80.886
2.0283,80.495
2.2375,80.055
2.4262,79.567
2.5865,79.127
2.7146,78.59
2.8123,78.199
2.8827,77.76
2.9296,77.32
2.957,76.881
2.9648,76.441
2.9589,76.001
2.9433,75.464
2.9179,74.976
2.8827,74.487
2.8377,74.048
2.782,73.608
2.7165,73.217
2.6413,72.875
2.5562,72.533
2.4633,72.24
2.3666,71.801
2.2659,71.361
2.175,70.873
2.0929,70.433
2.0068,70.042
1.9238,69.603
1.8465,69.163
1.7791,68.626
1.7214,68.04
1.6725,67.503
1.6334,67.258
1.6002,67.991
1.5718,70.97
1.5464,76.978
1.5269,85.819
1.5093,95.49
1.4907,103.7
1.4702,109.12
1.4477,112.49
1.4233,114.93
1.3978,117.03
1.3734,118.94
1.35,120.35
1.3284,121.28
1.3079,121.72
1.2884,121.57
1.2688,120.94
1.2542,119.91
1.2434,118.54
1.2307,116.74
1.216,114.69
1.2004,112.44
1.1848,110.05
1.1711,107.36
1.1554,104.38
1.1378,101.11
1.1183,97.737
1.0978,94.513
1.0753,91.436
1.0596,88.75
1.0528,86.503
1.0557,84.549
1.0831,82.986
1.1457,81.863
1.2532,81.032
1.4057,80.495
1.5934,80.055
1.8045,79.762
2.0254,79.469
2.2375,79.176
2.4282,78.786
2.5885,78.297
2.7028,77.858
2.782,77.564
2.8475,77.223
2.8954,76.929
2.9247,76.49
2.9384,76.05
2.9374,75.66
2.9208,75.318
2.8905,74.927
2.8475,74.536
2.7947,74.194
2.7331,73.755
2.6696,73.217
2.6012,72.778
2.5191,72.485
2.4262,72.094
2.3265,71.752
2.2239,71.166
2.1212,70.629
2.0205,69.994
1.9257,69.359
1.8397,68.724
1.7634,68.186
1.6979,67.698
1.6432,67.161
1.6022,66.819
1.5709,66.672
1.5406,67.503
1.5142,70.482
1.4917,76.685
1.4702,85.624
1.4487,95.246
1.4282,103.31
1.4066,108.73
1.3851,112.1
1.3627,114.34
1.3402,116.35
1.3236,118.01
1.3089,119.23
1.2766,120.01
1.2405,120.16
1.217,119.86
1.1965,118.98
1.1779,117.76
1.1603,116.2
1.1427,114.3
1.1261,112.1
1.1105,109.75
1.0948,107.12
1.0792,104.23
1.0684,101.16
1.0606,97.981
1.0459,95.051
1.0264,92.315
1.002,89.531
0.97849,86.943
0.96188,84.696
0.96188,83.133
0.99218,82.156
1.0616,81.57
1.1779,81.13
1.3372,80.935
1.5015,80.788
1.6725,80.69
1.8729,80.446
2.0772,80.055
2.2678,79.665
2.4321,79.421
2.563,79.127
2.6618,78.737
2.7302,78.248
2.7713,77.809
2.7908,77.369
2.7937,76.978
2.782,76.636
2.7586,76.294
2.7263,75.904
2.6843,75.611
2.6325,75.22
2.5709,74.878
2.4995,74.438
2.4203,73.901
2.3333,73.364
2.2395,72.778
2.1427,72.192
2.0469,71.557
1.9531,71.068
1.8729,70.629
1.8045,70.238
1.739,69.798
1.6804,69.31
1.6295,68.724
1.5885,68.186
1.5552,67.942
1.5279,68.528
1.5054,71.215
1.4839,76.978
1.4624,85.673
1.4418,95.49
1.4223,103.99
1.4086,109.85
1.3969,113.51
1.3832,115.91
1.3695,118.01
1.3539,119.81
1.3392,121.23
1.3255,122.31
1.3109,122.79
1.2962,122.75
1.2825,122.11
1.2688,121.13
1.2542,119.77
1.2434,118.06
1.2336,116.05
1.2209,113.76
1.2072,111.32
1.1935,108.82
1.1799,105.99
1.1662,102.87
1.1496,99.544
1.131,96.418
1.1105,93.683
1.0909,91.192
1.0782,88.75
1.0841,86.552
1.1105,84.94
1.1672,83.865
1.2659,83.23
1.4096,82.693
1.5924,82.156
1.8025,81.716
2.0225,81.374
2.2366,80.935
2.4291,80.349
2.5924,79.811
2.7243,79.372
2.8231,78.981
2.8837,78.59
2.9179,78.102
2.9423,77.564
2.957,76.978
2.958,76.441
2.9453,76.001
2.9208,75.611
2.8847,75.22
2.8377,74.878
2.781,74.438
2.7136,73.999
2.6373,73.51
2.5611,73.071
2.4839,72.631
2.3959,72.24
2.3011,71.85
2.2033,71.41
2.1075,70.97
2.0176,70.531
1.9355,70.238
1.8622,69.847
1.7996,69.359
1.7468,68.724
1.7019,68.089
1.6628,67.698
1.6334,67.942
1.609,69.798
1.5816,74.536
1.5543,82.449
1.5279,92.364
1.4946,101.74
1.4653,108.68
1.4438,112.98
1.4213,115.66
1.3988,117.81
1.3783,119.86
1.3578,121.57
1.3402,122.79
1.3245,123.43
1.3079,123.58
1.2903,123.23
1.2717,122.5
1.2532,121.38
1.2366,119.81
1.219,117.76
1.2014,115.42
1.1857,112.93
1.172,110.39
1.1593,107.7
1.1447,104.72
1.132,101.6
1.1202,98.421
1.1007,95.197
1.0792,92.071
1.0626,89.238
1.0587,86.943
1.0772,85.135
1.129,83.816
1.2229,82.84
1.3627,82.156
1.5425,81.716
1.7498,81.374
1.9394,81.032
2.1153,80.69
2.3021,80.251
2.4751,79.811
2.6227,79.372
2.741,78.932
2.8299,78.444
2.8905,77.906
2.9286,77.467
2.9501,77.027
2.955,76.636
2.9453,76.197
2.912,75.66
2.8749,75.171
2.8436,74.683
2.7977,74.194
2.739,73.803
2.6686,73.413
2.5885,73.071
2.4995,72.68
2.4037,72.387
2.303,72.045
2.2004,71.654
2.1007,71.166
2.0049,70.726
1.9238,70.238
1.8543,69.798
1.7859,69.31
1.7126,68.724
1.654,68.089
1.6149,67.551
1.5806,67.356
1.5513,68.235
1.5249,71.41
1.4995,77.662
1.4751,86.601
1.4516,96.321
1.4282,104.38
1.4076,109.8
1.3891,113.12
1.3666,115.57
1.3431,117.67
1.3206,119.57
1.2991,121.13
1.2747,122.16
1.2532,122.75
1.2366,122.75
1.218,122.26
1.1994,121.23
1.1818,119.86
1.1691,118.11
1.1593,116.05
1.1486,113.76
1.1369,111.22
1.1251,108.63
1.1134,105.75
1.1007,102.67
1.086,99.544
1.0694,96.321
1.0489,93.195
1.0293,90.166
1.0186,87.626
1.0264,85.721
1.0528,84.354
1.1075,83.279
1.2063,82.449
1.3519,81.814
1.5347,81.472
1.7429,81.228
1.9609,80.788
2.174,80.153
2.3666,79.567
2.5288,79.127
2.6569,78.883
2.7537,78.59
2.8152,78.199
2.8524,77.613
2.8798,76.978
2.8964,76.49
2.9013,76.05
2.8935,75.66
2.8739,75.171
2.8407,74.683
2.7937,74.194
2.7361,73.755
2.6676,73.315
2.5885,72.875
2.5005,72.485
2.4164,72.192
2.3343,71.801
2.2424,71.312
2.1476,70.824
2.0528,70.384
1.9609,69.994
1.8739,69.652
1.7947,69.359
1.7243,69.066
1.6755,68.626
1.6432,67.991
1.6119,67.356
1.5875,66.965
1.567,67.503
1.5455,69.798
1.523,75.073
1.5005,83.279
1.478,93.243
1.4536,102.18
1.4282,108.48
1.4037,112.24
1.3812,114.73
1.3597,116.98
1.3392,118.98
1.3177,120.6
1.3001,121.67
1.2845,122.26
1.2669,122.45
1.2483,122.06
1.2307,121.23
1.2141,120.01
1.1975,118.25
1.1818,116.2
1.1672,113.9
1.1535,111.51
1.1408,108.92
1.129,106.19
1.1212,103.16
1.1144,100.18
1.1017,97.053
1.0841,93.976
1.0635,90.997
1.0459,88.408
1.0411,86.503
1.0606,85.135
1.1183,84.061
1.2199,83.133
1.3636,82.351
1.5455,81.667
1.7566,81.13
1.9501,80.69
2.1271,80.153
2.3441,79.811
2.5288,79.421
2.6471,78.981
2.7488,78.492
2.828,78.053
2.8856,77.613
2.9208,77.174
2.9384,76.734
2.9423,76.294
2.9326,75.806
2.911,75.415
2.8798,75.122
2.8377,74.731
2.7849,74.341
2.7224,73.901
2.6266,73.413
2.5103,72.875
2.4272,72.387
2.3607,71.947
2.2766,71.654
2.1867,71.361
2.0958,70.97
2.0068,70.531
1.914,70.091
1.8407,69.652
1.7898,69.163
1.739,68.675
1.6843,68.089
1.6393,67.503
1.6109,66.965
1.5846,66.819
1.5543,67.551
1.5269,70.433
1.5034,76.343
1.4819,85.135
1.4653,94.806
1.4457,103.01
1.4301,108.48
1.4145,111.8
1.3881,114.2
1.3597,116.3
1.3353,118.2
1.3138,119.77
1.2933,120.79
1.2717,121.38
1.2561,121.38
1.2434,120.94
1.2268,120.01
1.2102,118.5
1.1935,116.69
1.1789,114.49
1.1652,112.1
1.1525,109.61
1.1408,106.97
1.129,104.14
1.1163,101.11
1.1007,97.884
1.0821,94.66
1.0626,91.534
1.0518,88.701
1.0538,86.308
1.0723,84.354
1.1232,82.937
1.216,81.912
1.3539,81.228
1.5318,80.788
1.737,80.446
1.955,80.104
2.1672,79.762
2.3587,79.372
2.523,78.932
2.6422,78.492
2.7263,78.102
2.7957,77.76
2.8475,77.369
2.8817,76.978
2.8993,76.685
2.9032,76.246
2.8935,75.806
2.87,75.366
2.8338,74.927
2.7849,74.487
2.7253,74.048
2.6559,73.559
2.5865,73.168
2.5142,72.875
2.4301,72.533
2.3382,72.192
2.2414,71.752
2.1417,71.312
2.044,70.726
1.9511,70.189
1.8661,69.603
1.7889,69.066
1.7214,68.528
1.6628,68.089
1.6197,67.698
1.5875,67.161
1.5562,66.721
1.5279,66.526
1.5034,67.161
1.4809,69.603
1.4604,74.976
1.4399,83.377
1.4174,93.097
1.3949,101.79
1.3734,107.95
1.3529,111.61
1.3343,114
1.3206,115.86
1.3079,117.42
1.2913,118.69
1.2727,119.57
1.2532,120.01
1.2336,119.81
1.2141,119.03
1.1965,118.01
1.1799,116.69
1.1642,114.98
1.1505,112.93
1.1369,110.53
1.1271,107.99
1.1193,105.36
1.1075,102.57
1.0919,99.593
1.0714,96.467
1.0489,93.439
1.0254,90.508
1.0078,87.871
1.0039,85.819
1.0254,84.256
1.085,83.23
1.1877,82.498
1.3363,82.009
1.4936,81.618
1.6628,81.277
1.8651,80.984
2.0762,80.593
2.2766,80.251
2.4526,79.909
2.5973,79.567
2.7077,79.127
2.7869,78.737
2.8387,78.346
2.869,78.004
2.8798,77.662
2.8749,77.32
2.8573,76.929
2.8319,76.636
2.7977,76.246
2.7537,75.855
2.7009,75.415
2.6364,74.976
2.563,74.536
2.48,74.048
2.3891,73.51
2.2933,72.924
2.1965,72.436
2.1026,71.947
2.0225,71.361
1.9521,70.873
1.8817,70.433
1.8172,69.994
1.7615,69.505
1.7146,68.968
1.6755,68.431
1.6442,67.796
1.6197,67.356
1.5992,67.503
1.5806,68.919
1.563,72.875
1.5474,79.86
1.5318,89.189
1.5142,98.616
1.4966,106.04
1.478,110.92
1.4585,113.9
1.4409,116.2
1.4242,118.11
1.4076,119.81
1.392,120.99
1.3754,121.72
1.3587,122.01
1.3431,121.87
1.3314,121.28
1.3216,120.35
1.3089,118.98
1.2942,117.13
1.2786,114.98
1.263,112.68
1.2493,110.19
1.2356,107.6
1.2209,104.82
1.2043,101.74
1.1857,98.616
1.1672,95.49
1.1535,92.413
1.1486,89.629
1.1564,87.284
1.1887,85.575
1.2571,84.354
1.3675,83.475
1.521,82.791
1.7097,82.253
1.9189,81.863
2.1349,81.423
2.3412,80.935
2.5239,80.446
2.6774,80.007
2.7859,79.469
2.8612,78.981
2.9228,78.492
2.9668,78.102
2.9951,77.76
3.0088,77.32
3.0088,76.929
2.9961,76.441
2.9717,76.001
2.9384,75.464
2.8954,74.927
2.8407,74.438
2.782,73.901
2.7185,73.413
2.6403,72.973
2.5513,72.68
2.4565,72.387
2.3578,71.996
2.2581,71.605
2.1593,71.166
2.0655,70.824
1.9804,70.482
1.9062,70.189
1.8416,69.749
1.7869,69.31
1.7458,68.821
1.7136,68.284
1.6823,67.747
1.654,67.405
1.6285,68.04
1.6041,70.629
1.5797,76.099
1.5543,84.598
1.5279,94.416
1.5024,103.16
1.477,109.31
1.4526,113.07
1.435,115.57
1.4184,117.67
1.3988,119.57
1.3803,121.13
1.3617,122.31
1.3421,122.99
1.3226,123.18
1.304,122.79
1.2864,122.01
1.2688,120.69
1.2532,118.98
1.2375,116.98
1.2219,114.78
1.2121,112.39
1.2053,109.8
1.1955,107.07
1.1828,104.14
1.1672,101.01
1.1505,97.688
1.1339,94.513
1.1212,91.485
1.1193,88.847
1.1408,86.747
1.1975,85.135
1.2972,84.012
1.4154,83.182
1.5582,82.547
1.7458,82.009
1.957,81.618
2.172,81.179
2.3754,80.788
2.5543,80.3
2.7009,79.811
2.8162,79.323
2.9022,78.883
2.9629,78.492
3.0029,78.053
3.0215,77.613
3.0225,77.174
3.0147,76.734
2.9961,76.294
2.9658,75.806
2.9257,75.366
2.8749,74.878
2.8123,74.438
2.738,73.999
2.654,73.608
2.5621,73.217
2.4653,72.875
2.3675,72.485
2.2805,72.094
2.1994,71.654
2.1144,71.215
2.0303,70.824
1.9521,70.384
1.8817,69.994
1.8192,69.554
1.7644,69.066
1.7175,68.431
1.6764,67.796
1.6413,67.356
1.6119,67.551
1.5894,69.31
1.5709,73.657
1.5494,81.179
1.5259,90.655
1.5005,99.789
1.4751,106.68
1.4506,110.92
1.4272,113.66
1.4047,115.86
1.3842,118.01
1.3666,119.81
1.349,121.18
1.3304,122.01
1.3157,122.26
1.303,122.06
1.2854,121.43
1.2669,120.35
1.2493,118.79
1.2336,116.93
1.2199,114.78
1.2072,112.44
1.1945,109.95
1.1828,107.16
1.1691,104.38
1.1525,101.3
1.1388,98.177
1.1261,95.051
1.1095,91.925
1.0958,89.043
1.0997,86.747
1.1339,84.989
1.2082,83.816
1.3265,82.937
1.4858,82.253
1.6794,81.667
1.8925,81.228
2.1095,80.788
2.3138,80.349
2.4731,79.86
2.5973,79.323
2.7097,78.786
2.8025,78.346
2.8719,77.906
2.9208,77.467
2.9511,77.125
2.9638,76.685
2.9619,76.246
2.9472,75.806
2.9198,75.318
2.8817,74.78
2.8387,74.292
2.7889,73.852
2.7273,73.51
2.6549,73.168
2.5728,72.778
2.4829,72.485
2.3851,72.094
2.2825,71.654
2.1799,71.215
2.0821,70.824
1.9902,70.287
1.9062,69.847
1.8309,69.407
1.7713,69.066
1.7253,68.675
1.6823,68.186
1.6442,67.6
1.6119,67.161
1.5836,67.161
1.5582,68.528
1.5337,72.289
1.5083,79.225
1.4819,88.408
1.4555,97.786
1.4282,105.26
1.4057,110
1.3871,112.98
1.3666,115.22
1.348,117.32
1.3284,118.98
1.3089,120.3
1.2913,121.18
1.2737,121.48
1.2561,121.38
1.2395,120.89
1.2229,119.91
1.2063,118.5
1.1926,116.64
1.1838,114.49
1.1769,112.19
1.1681,109.66
1.1554,106.92
1.1408,103.99
1.1251,100.91
1.1075,97.786
1.087,94.66
1.0684,91.68
1.0577,88.945
1.0665,86.601
1.1046,84.842
1.1642,83.572
1.2522,82.498
1.3881,81.667
1.565,81.032
1.7703,80.593
1.9883,80.153
2.2014,79.762
2.3939,79.225
2.5572,78.786
2.6891,78.444
2.7898,78.053
2.8631,77.76
2.911,77.418
2.9355,77.125
2.9423,76.734
2.9413,76.441
2.9286,76.05
2.9052,75.757
2.871,75.366
2.824,74.976
2.7664,74.536
2.6999,74.097
2.6237,73.755
2.5396,73.364
2.4497,72.924
2.3656,72.485
2.2825,71.996
2.1887,71.508
2.0929,70.922
1.999,70.384
1.9101,69.798
1.8309,69.261
1.7615,68.724
1.7019,68.235
1.651,67.747
1.609,67.307
1.5738,67.112
1.5435,67.698
1.52,70.042
1.4995,75.22
1.478,83.426
1.4555,93.048
1.4321,101.79
1.4106,108.09
1.391,111.95
1.3715,114.3
1.3519,116.25
1.3343,117.91
1.3177,119.18
1.3011,120.06
1.2864,120.55
1.2747,120.69
1.26,120.3
1.2424,119.42
1.2239,118.11
1.2053,116.44
1.1857,114.54
1.1681,112.44
1.1525,110
1.1378,107.36
1.1134,104.48
1.0811,101.6
1.0538,98.665
1.0323,95.637
1.0147,92.56
0.99511,89.727
0.9824,87.382
0.99022,85.624
1.0313,84.354
1.1144,83.475
1.2424,82.84
1.4115,82.351
1.6119,82.009
1.8289,81.667
2.044,81.277
2.2209,80.886
2.3646,80.446
2.4995,79.909
2.6129,79.469
2.6989,79.03
2.7586,78.737
2.7957,78.444
2.8152,78.053
2.8201,77.76
2.8123,77.369
2.7928,77.125
2.7634,76.734
2.7273,76.343
2.6833,75.904
2.6266,75.562
2.5591,75.171
2.4829,74.78
2.3978,74.341
2.306,73.901
2.2111,73.315
2.1144,72.533
2.0205,71.801
1.9316,71.166
1.8495,70.677
1.7781,70.189
1.7234,69.652
1.6794,69.163
1.6364,68.626
1.5982,68.186
1.567,68.04
1.5396,69.114
1.5142,72.533
1.4897,79.225
1.4663,88.554
1.4448,98.323
1.4242,106.19
1.4047,111.17
1.3891,114.25
1.3763,116.44
1.3617,118.5
1.347,120.3
1.3314,121.67
1.3157,122.55
1.3001,122.94
1.2845,122.79
1.2688,122.31
1.2532,121.28
1.2375,120.06
1.2229,118.35
1.2102,116.35
1.2014,114.05
1.1945,111.56
1.1828,108.92
1.1672,106.19
1.1486,103.26
1.1261,100.18
1.1026,97.004
1.0802,93.878
1.0635,91.045
1.0645,88.554
1.0929,86.552
1.1584,85.135
1.2463,84.11
1.3617,83.377
1.5239,82.791
1.7204,82.302
1.9326,81.814
2.1417,81.277
2.3343,80.788
2.5005,80.3
2.6344,79.811
2.737,79.372
2.8104,78.981
2.8592,78.541
2.8886,78.199
2.8993,77.76
2.8954,77.369
2.8837,76.929
2.8631,76.49
2.8328,76.001
2.7908,75.464
2.738,75.073
2.6735,74.634
2.5992,74.243
2.5171,73.852
2.4291,73.51
2.3363,73.071
2.2512,72.68
2.172,72.24
2.085,71.801
1.9971,71.361
1.913,70.97
1.8348,70.629
1.7644,70.238
1.7058,69.652
1.6559,69.066
1.6129,68.431
1.5758,67.991
1.5425,68.382
1.5122,70.433
1.4878,75.318
1.4663,83.377
1.4428,93.195
1.4174,102.23
1.391,108.87
1.3656,112.93
1.3421,115.66
1.3196,118.01
1.2981,120.11
1.2796,121.91
1.261,123.38
1.2405,124.26
1.2248,124.5
1.2121,124.16
1.1965,123.48
1.1799,122.31
1.1613,120.74
1.1437,118.79
1.1261,116.54
1.1095,114.05
1.0938,111.36
1.0782,108.63
1.0626,105.6
1.0459,102.47
1.0274,99.251
1.0117,96.076
1.001,92.999
0.99511,90.215
1.0039,88.066
1.0391,86.308
1.1114,84.989
1.2268,84.012
1.3842,83.23
1.5748,82.693
1.7849,82.253
1.9971,81.814
2.1955,81.374
2.3519,80.935
2.4741,80.495
2.5855,80.055
2.6755,79.567
2.741,79.03
2.7849,78.59
2.8133,78.248
2.827,77.809
2.826,77.369
2.8113,76.929
2.784,76.441
2.7449,76.001
2.696,75.562
2.6432,75.122
2.5836,74.683
2.5112,74.292
2.4301,73.901
2.3421,73.559
2.2483,73.217
2.1505,72.875
2.0518,72.436
1.956,71.996
1.8661,71.605
1.7849,71.166
1.7136,70.726
1.6579,70.189
1.6139,69.554
1.5738,68.968
1.5367,68.431
1.5024,68.382
1.4712,69.505
1.4428,72.875
1.4154,79.421
1.3891,88.506
1.3646,98.128
1.3402,105.85
1.3167,110.97
1.2933,114.25
1.2757,116.74
1.261,119.13
1.2424,121.23
1.2248,122.94
1.2082,124.11
1.1926,124.75
1.176,124.8
1.1584,124.26
1.1408,123.18
1.1222,121.67
1.1046,119.81
1.088,117.67
1.0762,115.42
1.0674,112.93
1.0557,110.09
1.042,107.12
1.0274,103.94
1.0098,100.72
0.99022,97.493
0.97165,94.318
0.95894,91.387
0.95894,88.847
0.98436,86.943
1.045,85.477
1.1457,84.305
1.263,83.426
1.4018,82.742
1.5826,82.253
1.7849,81.716
1.9892,81.277
2.1799,80.788
2.346,80.3
2.4819,79.811
2.5875,79.323
2.6667,78.883
2.7214,78.444
2.7556,78.004
2.7713,77.613
2.7722,77.174
2.7644,76.783
2.7468,76.441
2.7165,76.001
2.6755,75.562
2.6237,75.122
2.5611,74.683
2.4888,74.243
2.4086,73.852
2.3206,73.51
2.2258,73.168
2.1281,72.778
2.0411,72.436
1.9599,71.996
1.8729,71.557
1.7879,71.068
1.7097,70.629
1.6403,70.091
1.5797,69.554
1.5279,68.919
1.4858,68.284
1.4506,67.942
1.4213,68.479
1.3969,70.873
1.3793,76.197
1.3646,84.5
1.348,94.318
1.3314,103.01
1.3275,109.07
1.3284,112.78
1.3157,115.47
1.2972,118.01
1.2757,120.3
1.2542,122.26
1.2336,123.67
1.2131,124.6
1.1984,124.8
1.1857,124.36
1.1691,123.38
1.1525,122.01
1.1359,120.3
1.1212,118.25
1.1065,115.91
1.0919,113.37
1.0782,110.63
1.0635,107.6
1.0469,104.48
1.0283,101.16
1.0098,97.884
0.99609,94.562
0.98631,91.436
0.97849,88.75
0.98534,86.552
1.0205,84.94
1.0938,83.719
1.2092,82.791
1.3666,82.107
1.5591,81.57
1.7722,81.032
1.9863,80.593
2.1867,80.251
2.3441,79.86
2.4653,79.469
2.5738,79.127
2.6618,78.786
2.7263,78.492
2.7703,78.102
2.7977,77.76
2.8104,77.369
2.8104,77.027
2.7967,76.734
2.7683,76.343
2.7263,76.05
2.6725,75.66
2.6168,75.366
2.5543,74.927
2.477,74.536
2.3891,74.097
2.2923,73.755
2.1916,73.315
2.0909,72.875
1.9932,72.387
1.9003,71.801
1.8133,71.215
1.7351,70.677
1.6657,70.091
1.6109,69.554
1.5679,68.968
1.5269,68.479
1.4907,68.382
1.4585,69.31
1.4301,72.436
1.4076,78.541
1.3881,87.48
1.3705,97.249
1.3519,105.36
1.3314,110.83
1.3109,114.2
1.2893,116.74
1.2737,119.03
1.262,121.13
1.2473,122.75
1.2307,124.02
1.2141,124.6
1.1975,124.55
1.1808,123.87
1.1652,122.7
1.1515,121.13
1.1378,119.23
1.1232,116.98
1.1075,114.54
1.0968,111.85
1.088,108.97
1.0753,105.99
1.0577,102.72
1.0371,99.447
1.0137,96.125
0.98925,92.999
0.9697,90.215
0.96285,87.919
0.97752,86.308
1.0254,85.038
1.1163,84.256
1.2502,83.621
1.3959,83.182
1.5552,82.742
1.7498,82.351
1.956,81.912
2.1535,81.57
2.3275,81.179
2.4692,80.886
2.5797,80.544
2.6608,80.251
2.7155,79.909
2.7468,79.567
2.7586,79.176
2.7546,78.883
2.738,78.492
2.7097,78.199
2.6706,77.858
2.6237,77.564
2.5679,77.223
2.5044,76.881
2.433,76.539
2.3548,76.197
2.2698,75.757
2.1769,75.22
2.0802,74.731
1.9834,74.194
1.9003,73.608
1.828,72.924
1.7546,72.24
1.6852,71.508
1.6237,70.726
1.5738,69.994
1.5337,69.359
1.5005,69.114
1.4731,69.994
1.4506,73.12
1.4301,79.421
1.4125,88.554
1.4008,98.421
1.391,106.63
1.3783,112.1
1.3656,115.57
1.3529,118.3
1.3392,120.89
1.3255,123.18
1.3128,124.99
1.2991,126.26
1.2854,126.85
1.2727,126.95
1.26,126.36
1.2493,125.38
1.2434,123.92
1.2395,122.16
1.2317,120.11
1.2219,117.86
1.2111,115.37
1.1994,112.63
1.1838,109.61
1.1672,106.48
1.1496,103.11
1.129,99.74
1.1075,96.369
1.0899,93.243
1.0841,90.557
1.0968,88.408
1.1359,86.943
1.2131,85.819
1.3333,84.989
1.4936,84.305
1.6852,83.719
1.8954,83.182
2.1065,82.595
2.303,82.107
2.4741,81.618
2.6129,81.179
2.7204,80.739
2.7908,80.446
2.8348,80.104
2.869,79.762
2.8895,79.372
2.8964,78.981
2.8895,78.541
2.871,78.199
2.8416,77.76
2.8006,77.32
2.7488,76.929
2.6862,76.539
2.6149,76.197
2.5455,75.806
2.4741,75.415
2.39,74.976
2.2972,74.536
2.2004,74.048
2.1026,73.608
2.0078,73.12
1.9189,72.631
1.8387,72.094
1.7674,71.605
1.7077,70.97
1.6579,70.287
1.6158,69.798
1.5855,69.847
1.5621,71.361
1.5396,75.464
1.5181,82.937
1.4976,92.608
1.478,102.28
1.4585,109.66
1.4379,114.34
1.4184,117.57
1.3998,120.3
1.3822,122.99
1.3656,125.38
1.3539,127.24
1.3431,128.41
1.3304,128.95
1.3157,128.7
1.2991,127.92
1.2796,126.7
1.26,125.04
1.2405,122.99
1.2209,120.74
1.2023,118.25
1.1857,115.57
1.1711,112.73
1.1574,109.75
1.1476,106.48
1.1398,103.11
1.1271,99.691
1.1114,96.321
1.0997,93.243
1.1007,90.655
1.1261,88.701
1.1857,87.236
1.2884,86.161
1.434,85.282
1.6168,84.696
1.8221,84.11
2.0078,83.621
2.175,83.133
2.348,82.595
2.5054,82.107
2.6364,81.667
2.739,81.228
2.8152,80.788
2.868,80.349
2.9013,80.007
2.9179,79.567
2.9198,79.127
2.9091,78.59
2.8876,78.199
2.8543,77.76
2.8104,77.32
2.7556,76.929
2.6891,76.539
2.6129,76.246
2.5279,75.855
2.437,75.562
2.3421,75.171
2.2454,74.731
2.1486,74.243
2.0684,73.755
2.001,73.315
1.9384,72.778
1.8827,72.289
1.825,71.752
1.7703,71.166
1.7234,70.629
1.6862,70.287
1.6549,70.726
1.6276,73.12
1.6031,78.444
1.5806,86.845
1.5601,96.809
1.5396,105.55
1.522,111.61
1.5054,115.42
1.4848,118.3
1.4624,121.13
1.4409,123.72
1.4213,125.92
1.4037,127.53
1.3871,128.41
1.3705,128.7
1.3548,128.26
1.3402,127.39
1.3265,126.07
1.3128,124.36
1.3021,122.26
1.2933,119.86
1.2835,117.23
1.2698,114.44
1.2542,111.41
1.2375,108.19
1.2209,104.87
1.2023,101.5
1.1818,98.128
1.1642,94.855
1.1554,92.071
1.1652,89.824
1.1955,88.066
1.2532,86.747
1.3548,85.673
1.5015,84.842
1.6833,84.256
1.8886,83.67
2.1007,83.182
2.303,82.693
2.4829,82.156
2.6334,81.716
2.7517,81.277
2.8407,80.886
2.9042,80.446
2.9413,80.007
2.9599,79.567
2.9697,79.03
2.9697,78.59
2.958,78.248
2.9335,77.858
2.8974,77.418
2.8504,77.027
2.7908,76.636
2.7195,76.246
2.6393,75.855
2.5523,75.415
2.4712,75.073
2.392,74.683
2.303,74.243
2.2082,73.755
2.1134,73.217
2.0235,72.729
1.9404,72.24
1.8671,71.752
1.8025,71.166
1.7468,70.531
1.7019,69.994
1.6628,69.798
1.6295,70.531
1.6051,73.559
1.5855,79.811
1.566,88.945
1.5464,98.812
1.5269,107.07
1.5073,112.63
1.4878,116.1
1.4692,118.98
1.4516,121.67
1.433,124.16
1.4125,126.26
1.392,127.68
1.3763,128.36
1.3627,128.41
1.346,127.87
1.3294,126.8
1.3128,125.24
1.2972,123.28
1.2835,121.04
1.2688,118.59
1.2542,115.91
1.2375,113.07
1.2209,109.95
1.2043,106.63
1.1857,103.26
1.1711,99.691
1.1574,96.223
1.1417,93.048
1.1329,90.215
1.1437,87.968
1.1857,86.308
1.2669,85.135
1.392,84.158
1.5572,83.426
1.7527,82.84
1.9638,82.351
2.175,81.912
2.349,81.423
2.4917,80.886
2.6266,80.446
2.741,80.055
2.8299,79.665
2.8944,79.323
2.9374,78.981
2.9619,78.688
2.9697,78.346
2.9619,78.053
2.9404,77.662
2.9062,77.418
2.8612,77.125
2.8123,76.783
2.7566,76.441
2.6882,76.05
2.609,75.66
2.52,75.22
2.4262,74.78
2.3284,74.292
2.2278,73.755
2.1271,73.168
2.0303,72.631
1.9413,72.045
1.8612,71.508
1.7977,70.922
1.7468,70.238
1.6999,69.603
1.6579,69.066
1.6217,68.968
1.5904,70.189
1.564,73.755
1.5386,80.544
1.5152,89.922
1.4917,99.74
1.4682,107.55
1.4487,112.73
1.4311,116.05
1.4184,118.79
1.4086,121.38
1.3949,123.67
1.3803,125.48
1.3656,126.75
1.35,127.39
1.3333,127.19
1.3167,126.41
1.3021,125.14
1.2864,123.43
1.2698,121.43
1.2522,119.18
1.2395,116.69
1.2287,114
1.2141,111.12
1.1984,108.04
1.1818,104.87
1.1632,101.45
1.1417,97.981
1.1193,94.758
1.0997,91.778
1.0919,89.385
1.1065,87.529
1.1574,86.259
1.2512,85.379
1.3646,84.696
1.5015,84.158
1.6813,83.67
1.8847,83.23
2.0929,82.84
2.2893,82.449
2.4624,82.058
2.6041,81.716
2.7136,81.423
2.7947,81.179
2.8524,80.886
2.8895,80.69
2.9062,80.446
2.9071,80.153
2.8974,79.909
2.8759,79.616
2.8436,79.372
2.7996,79.03
2.7429,78.688
2.6745,78.346
2.5973,78.004
2.5132,77.564
2.4242,76.978
2.3304,76.343
2.2454,75.757
2.1652,75.122
2.0782,74.536
1.9912,73.999
1.9091,73.413
1.8348,72.778
1.7722,71.996
1.7204,71.166
1.6764,70.482
1.6403,70.433
1.6109,72.045
1.5846,76.441
1.563,84.256
1.5484,94.22
1.5357,103.79
1.5191,110.92
1.5015,115.32
1.4839,118.3
1.4682,120.94
1.4536,123.48
1.4409,125.68
1.4291,127.39
1.4194,128.36
1.4096,128.7
1.3988,128.36
1.391,127.63
1.3842,126.31
1.3754,124.6
1.3627,122.55
1.349,120.16
1.3353,117.62
1.3216,114.88
1.3069,111.95
1.2893,108.87
1.2669,105.7
1.2414,102.43
1.2131,99.056
1.1877,95.734
1.173,92.804
1.173,90.313
1.1926,88.408
1.2444,87.04
1.3372,86.112
1.4731,85.428
1.6481,84.94
1.8504,84.403
2.0626,83.865
2.2678,83.377
2.4526,82.791
2.608,82.302
2.7175,81.716
2.7937,81.228
2.8573,80.788
2.9022,80.495
2.9326,80.104
2.9511,79.665
2.957,79.323
2.9472,78.932
2.9238,78.492
2.8866,78.053
2.8377,77.467
2.7771,76.978
2.7048,76.539
2.6334,76.197
2.5591,75.855
2.4721,75.464
2.3783,75.122
2.2805,74.683
2.1808,74.194
2.0821,73.657
1.9883,73.217
1.9022,72.729
1.826,72.24
1.7605,71.605
1.7067,71.068
1.6667,70.482
1.6364,70.091
1.608,70.287
1.5816,72.24
1.5552,77.027
1.5298,85.184
1.5044,95.295
1.478,104.72
1.4506,111.61
1.4233,116
1.3969,119.18
1.3715,122.11
1.348,124.8
1.3324,127.14
1.3206,128.75
1.304,129.73
1.2854,130.12
1.2669,129.83
1.2473,128.85
1.2268,127.53
1.2063,125.92
1.1857,123.87
1.1672,121.57
1.1515,118.94
1.1388,116.05
1.132,112.93
1.1271,109.66
1.1153,106.24
1.0978,102.82
1.0743,99.349
1.0489,96.076
1.0303,93.097
1.0274,90.655
1.0528,88.799
1.1173,87.431
1.2278,86.308
1.3832,85.477
1.5738,84.842
1.7586,84.305
1.9394,83.865
2.1369,83.426
2.3236,82.937
2.4868,82.498
2.6227,82.058
2.7302,81.618
2.8084,81.179
2.8622,80.739
2.8954,80.3
2.911,79.86
2.912,79.421
2.8983,78.932
2.8739,78.444
2.8397,78.004
2.7937,77.613
2.7361,77.174
2.6686,76.685
2.5914,76.294
2.5054,76.001
2.4115,75.611
2.3118,75.171
2.2092,74.683
2.1046,74.243
2.0039,73.803
1.9198,73.315
1.8495,72.778
1.7791,72.387
1.7136,71.801
1.6569,71.166
1.61,70.531
1.5709,70.189
1.5386,70.482
1.5122,72.631
1.4888,77.613
1.4663,85.868
1.4438,95.881
1.4242,105.01
1.4066,111.51
1.3871,115.66
1.3646,118.89
1.3421,121.87
1.3196,124.6
1.2962,126.95
1.2757,128.61
1.2561,129.63
1.2356,129.93
1.2151,129.53
1.1945,128.7
1.174,127.39
1.1593,125.58
1.1486,123.43
1.1369,121.04
1.1271,118.5
1.1183,115.61
1.1075,112.49
1.0938,109.26
1.0772,105.8
1.0577,102.38
1.0352,98.86
1.0137,95.49
1,92.511
1.002,90.069
1.0254,88.164
1.0802,86.747
1.1769,85.673
1.3157,84.842
1.4917,84.305
1.696,83.865
1.912,83.426
2.1212,82.937
2.3099,82.498
2.4702,82.058
2.6022,81.618
2.7038,81.228
2.7703,80.788
2.8123,80.349
2.8436,79.909
2.8612,79.567
2.8641,79.127
2.8504,78.59
2.824,78.199
2.7859,77.76
2.7351,77.369
2.6716,76.929
2.5982,76.539
2.5171,76.197
2.4399,75.806
2.3636,75.415
2.2766,74.976
2.1838,74.487
2.088,73.999
1.9951,73.559
1.9071,73.12
1.825,72.729
1.7507,72.289
1.6862,71.85
1.6295,71.215
1.5806,70.531
1.5396,70.042
1.5093,70.091
1.4858,71.752
1.4624,76.099
1.4409,83.719
1.4194,93.634
1.3998,103.16
1.3812,110.29
1.3636,114.78
1.346,118.06
1.3275,120.99
1.306,123.82
1.2835,126.16
1.2678,127.92
1.2561,129.09
1.2414,129.53
1.2278,129.24
1.2141,128.41
1.1984,127.24
1.1818,125.58
1.1642,123.43
1.1466,120.99
1.13,118.35
1.1144,115.57
1.0987,112.54
1.088,109.36
1.0792,105.99
1.0645,102.47
1.045,98.909
1.0244,95.49
1.0108,92.413
1.0088,89.873
1.0283,87.871
1.0821,86.356
1.1779,85.282
1.3167,84.549
1.4936,84.012
1.697,83.475
1.8856,83.035
2.0577,82.595
2.2385,82.253
2.4057,81.814
2.5484,81.374
2.6637,80.984
2.7507,80.69
2.8133,80.3
2.8543,79.86
2.8768,79.421
2.8837,79.03
2.8768,78.59
2.8573,78.199
2.825,77.662
2.781,77.223
2.7263,76.783
2.6598,76.343
2.5836,75.904
2.4985,75.611
2.4066,75.22
2.3099,74.878
2.2102,74.487
2.1114,73.999
2.0156,73.51
1.9238,72.973
1.8495,72.485
1.7859,72.045
1.7234,71.605
1.6667,71.166
1.6178,70.629
1.5758,69.945
1.5415,69.505
1.5132,69.652
1.4888,71.508
1.4663,76.246
1.4448,84.256
1.4233,94.123
1.4066,103.31
1.393,109.95
1.3783,114.25
1.3607,117.37
1.3412,120.3
1.3196,122.99
1.2981,125.19
1.2786,126.8
1.26,127.87
1.2424,128.17
1.2268,127.87
1.2121,126.95
1.1965,125.48
1.1848,123.72
1.176,121.62
1.1623,119.23
1.1457,116.54
1.13,113.76
1.1153,110.68
1.0997,107.51
1.0831,104.18
1.0645,100.72
1.043,97.297
1.0225,94.074
1.0147,91.192
1.0225,88.799
1.0459,86.943
1.0978,85.575
1.1887,84.5
1.3226,83.816
1.4985,83.23
1.7048,82.84
1.9218,82.498
2.1329,82.107
2.3265,81.716
2.4936,81.423
2.6295,81.032
2.7341,80.69
2.8016,80.3
2.8446,79.909
2.8778,79.567
2.9013,79.225
2.9101,78.883
2.9042,78.492
2.8827,78.102
2.8456,77.76
2.7957,77.32
2.7351,76.929
2.6657,76.49
2.5855,76.099
2.5064,75.757
2.4272,75.366
2.3353,74.927
2.2346,74.487
2.1329,73.901
2.0352,73.364
1.9423,72.778
1.8573,72.192
1.782,71.605
1.7155,71.068
1.6598,70.482
1.6119,69.945
1.5718,69.407
1.5445,69.114
1.5249,69.554
1.5044,71.801
1.4839,76.929
1.4633,85.184
1.4428,95.099
1.4223,104.14
1.4018,110.53
1.3812,114.69
1.3617,117.62
1.3412,120.35
1.3216,122.84
1.3079,124.94
1.2962,126.36
1.2835,127.04
1.2708,127.14
1.2581,126.41
1.2454,125.29
1.2317,123.67
1.216,121.72
1.1975,119.47
1.1779,116.98
1.1584,114.3
1.1398,111.36
1.1222,108.29
1.1105,105.11
1.1007,101.74
1.0841,98.372
1.0635,95.099
1.042,92.169
1.0274,89.629
1.0274,87.626
1.0538,86.161
1.1173,85.184
1.2248,84.5
1.3754,83.914
1.564,83.475
1.7468,83.035
1.9238,82.693
2.1202,82.302
2.3118,81.912
2.4819,81.618
2.6237,81.374
2.7341,81.032
2.8143,80.788
2.869,80.495
2.9032,80.104
2.9179,79.811
2.9159,79.372
2.8993,78.981
2.8719,78.688
2.8358,78.297
2.7898,77.906
2.7331,77.564
2.6686,77.125
2.5943,76.685
2.5093,76.197
2.4154,75.757
2.3167,75.318
2.217,74.78
2.1183,74.292
2.0235,73.657
1.9462,73.12
1.8827,72.533
1.8231,72.045
1.7703,71.41
1.7263,70.726
1.6901,70.042
1.6618,69.359
1.6393,68.919
1.6197,69.505
1.6012,72.045
1.5836,77.858
1.566,86.796
1.5484,97.102
1.5327,106.04
1.52,112.24
1.5054,116
1.4897,118.79
1.4731,121.38
1.4565,123.72
1.4399,125.58
1.4233,126.75
1.4086,127.24
1.3949,127.14
1.3822,126.41
1.3695,125.29
1.3587,123.72
1.349,121.91
1.3363,119.81
1.3216,117.42
1.306,114.78
1.2903,112.05
1.2766,109.07
1.261,105.99
1.2414,102.82
1.219,99.544
1.1926,96.321
1.1691,93.195
1.1564,90.508
1.1574,88.359
1.1799,86.796
1.2385,85.721
1.3441,84.989
1.4956,84.5
1.6872,84.012
1.9052,83.572
2.1329,82.986
2.3519,82.498
2.5464,82.009
2.7067,81.472
2.8319,81.13
2.915,80.69
2.9677,80.349
3.0078,80.007
3.0342,79.567
3.0469,79.127
3.045,78.688
3.0283,78.248
2.999,77.809
2.9599,77.223
2.912,76.734
2.8553,76.246
2.7889,75.757
2.7224,75.318
2.654,74.878
2.5738,74.438
2.4839,74.048
2.39,73.657
2.2962,73.315
2.2033,72.875
2.1134,72.485
2.0303,72.094
1.956,71.752
1.8895,71.312
1.8309,70.726
1.781,70.189
1.7429,69.554
1.7126,68.968
1.6833,68.821
1.6559,69.749
1.6305,72.973
1.608,79.469
1.5855,88.799
1.565,98.812
1.5464,107.12
1.5279,112.63
1.5083,116.2
1.4878,118.98
1.4712,121.62
1.4565,124.06
1.4389,125.97
1.4194,127.24
1.4008,127.87
1.3832,127.83
1.3656,127.19
1.348,125.97
1.3314,124.41
1.3148,122.45
1.2991,120.16
1.2845,117.67
1.2717,114.98
1.262,112.24
1.2532,109.26
1.2385,106.04
1.2209,102.82
1.2004,99.447
1.1779,96.125
1.1593,93.048
1.1505,90.508
1.1603,88.554
1.2004,87.04
1.2796,85.917
1.4047,85.038
1.5464,84.354
1.7067,83.816
1.9081,83.279
2.1261,82.791
2.3412,82.302
2.5376,81.863
2.7048,81.423
2.8387,80.984
2.9413,80.495
3.0147,80.055
3.0635,79.665
3.0948,79.225
3.1075,78.786
3.1036,78.346
3.086,77.906
3.0587,77.467
3.0205,76.978
2.9717,76.49
2.911,76.05
2.8407,75.611
2.7595,75.171
2.6725,74.683
2.5797,74.243
2.4809,73.803
2.3783,73.413
2.2874,72.973
2.2053,72.533
2.1202,72.192
2.0381,71.801
1.9638,71.41
1.8983,70.97
1.8436,70.384
1.7996,69.749
1.7615,69.114
1.7292,68.528
1.6999,68.479
1.6725,69.945
1.6461,73.901
1.6246,81.179
1.6061,90.752
1.5836,100.33
1.5611,107.6
1.5396,112.39
1.5083,115.47
1.4731,118.25
1.4457,120.89
1.4223,123.14
1.4008,124.85
1.3812,125.97
1.3636,126.36
1.3509,126.07
1.3402,125.24
1.3255,124.02
1.3089,122.45
1.2913,120.45
1.2747,118.25
1.2581,115.81
1.2434,113.22
1.2278,110.44
1.2111,107.36
1.1935,104.18
1.174,100.81
1.1525,97.493
1.1369,94.318
1.1271,91.387
1.1212,88.994
1.13,87.187
1.1662,85.868
1.2395,84.793
1.3568,84.012
1.5171,83.377
1.7107,82.84
1.9218,82.351
2.1329,81.912
2.3284,81.423
2.4809,80.984
2.5982,80.544
2.7048,80.104
2.7908,79.665
2.8543,79.225
2.8993,78.786
2.9286,78.346
2.9433,77.858
2.9423,77.369
2.9267,76.881
2.8964,76.441
2.8543,75.904
2.8016,75.415
2.7458,74.976
2.6852,74.634
2.6119,74.243
2.5298,73.803
2.4428,73.413
2.35,72.973
2.2542,72.631
2.1593,72.24
2.0674,71.752
1.9824,71.312
1.9042,70.873
1.8348,70.482
1.7801,70.091
1.7361,69.603
1.694,68.968
1.6579,68.382
1.6266,67.942
1.5992,68.186
1.5738,70.238
1.5484,75.073
1.5249,82.986
1.5034,92.804
1.4819,101.79
1.4585,108.29
1.434,112.29
1.4135,115.22
1.3969,117.91
1.3812,120.45
1.3636,122.45
1.3421,123.92
1.3196,124.75
1.2972,124.85
1.2747,124.41
1.2532,123.48
1.2346,122.26
1.218,120.55
1.2014,118.54
1.1916,116.25
1.1848,113.76
1.174,111.07
1.1593,108.09
1.1437,105.01
1.1281,101.69
1.1095,98.372
1.089,95.051
1.0674,91.778
1.0508,88.994
1.0479,86.698
1.0684,84.989
1.1232,83.816
1.1994,82.84
1.304,82.253
1.4565,81.716
1.6432,81.374
1.8475,80.984
2.0528,80.593
2.2434,80.251
2.4096,79.86
2.5445,79.567
2.6491,79.225
2.7253,78.932
2.7771,78.59
2.8055,78.297
2.8152,77.906
2.8162,77.613
2.8065,77.223
2.784,76.881
2.7498,76.441
2.7048,76.05
2.6491,75.66
2.5836,75.22
2.5093,74.78
2.4272,74.438
2.3382,74.048
2.2551,73.608
2.174,73.071
2.0831,72.436
1.9892,71.85
1.8954,71.312
1.8065,70.726
1.7263,70.238
1.6579,69.749
1.5982,69.163
1.5484,68.626
1.5073,68.089
1.4731,67.796
1.4428,68.04
1.4203,69.798
1.4018,74.194
1.3822,81.716
1.3627,91.387
1.3421,100.67
1.3196,107.7
1.2972,112.24
1.2757,115.42
1.2571,118.11
1.2385,120.5
1.2219,122.45
1.2053,123.72
1.1935,124.41
1.1828,124.55
1.1681,124.11
1.1515,123.14
1.1359,121.62
1.1193,119.81
1.1036,117.67
1.086,115.32
1.0655,112.68
1.045,109.95
1.0254,106.92
1.0059,103.79
0.98631,100.62
0.97263,97.346
0.95992,94.22
0.93939,91.29
0.91887,88.847
0.90616,86.943
0.91398,85.575
0.9521,84.549
1.0303,83.865
1.1515,83.377
1.3118,82.986
1.5005,82.595
1.7028,82.156
1.8807,81.814
2.0352,81.472
2.1867,81.179
2.3177,80.788
2.4213,80.495
2.4995,80.153
2.5523,79.86
2.5826,79.469
2.5963,79.176
2.5953,78.883
2.5836,78.492
2.5591,78.053
2.5239,77.662
2.4829,77.223
2.436,76.881
2.3763,76.49
2.3079,76.099
2.2317,75.66
2.1466,75.171
2.0577,74.634
1.9687,73.901
1.8807,73.315
1.7937,72.631
1.7136,71.996
1.6413,71.41
1.5855,70.824
1.5425,70.238
1.5034,69.652
1.4692,69.114
1.4399,68.675
1.4154,68.968
1.3939,70.97
1.3754,75.855
1.3568,84.061
1.3353,94.171
1.3138,103.55
1.2933,110.44
1.2737,114.73
1.26,117.86
1.2502,120.69
1.2395,123.28
1.2278,125.48
1.216,126.95
1.2043,127.68
1.1926,127.63
1.1789,127.04
1.1632,126.07
1.1476,124.7
1.132,122.84
1.1153,120.69
1.1046,118.3
1.0958,115.66
1.0841,112.78
1.0704,109.8
1.0528,106.68
1.0332,103.55
1.0137,100.33
0.99218,97.004
0.96872,93.781
0.94917,90.997
0.94233,88.603
0.95797,86.845
1.0078,85.624
1.0802,84.745
1.1818,84.012
1.3284,83.377
1.5093,82.791
1.7067,82.449
1.9062,82.107
2.0919,81.814
2.2522,81.423
2.3812,80.984
2.478,80.593
2.5474,80.153
2.5943,79.811
2.6188,79.469
2.6256,79.176
2.6237,78.883
2.6119,78.492
2.5914,78.004
2.5611,77.467
2.521,76.978
2.4721,76.539
2.4135,76.099
2.346,75.66
2.2688,75.22
2.1867,74.78
2.1202,74.292
2.0704,73.901
2.0127,73.559
1.9404,73.217
1.8641,72.875
1.7918,72.436
1.7273,71.947
1.6696,71.312
1.6207,70.677
1.5806,70.042
1.5484,69.603
1.522,69.407
1.4985,70.042
1.4809,72.729
1.4673,78.541
1.4497,87.382
1.4291,97.444
1.4076,106.19
1.3851,112.29
1.3636,116.35
1.3431,119.57
1.3236,122.6
1.304,125.43
1.2864,127.68
1.2698,129.24
1.2532,129.97
1.2424,129.93
1.2336,129.19
1.2229,127.92
1.2111,126.31
1.1975,124.31
1.1828,122.01
1.1681,119.37
1.1525,116.54
1.1378,113.42
1.1232,110.24
1.1105,106.92
1.0978,103.5
1.088,99.984
1.0782,96.614
1.0626,93.439
1.0489,90.655
1.045,88.506
1.0606,86.845
1.1056,85.624
1.1877,84.696
1.3069,83.914
1.4575,83.377
1.6305,82.84
1.8113,82.449
1.9863,82.058
2.1281,81.814
2.2424,81.57
2.35,81.228
2.4389,80.886
2.5073,80.446
2.5562,80.007
2.5865,79.567
2.6012,79.127
2.6031,78.737
2.5914,78.297
2.5679,77.858
2.5357,77.418
2.4985,76.929
2.4555,76.49
2.4037,76.05
2.3431,75.66
2.2757,75.22
2.2023,74.78
2.1222,74.341
2.0391,73.999
1.955,73.608
1.8729,73.217
1.7967,72.875
1.7253,72.485
1.6628,71.996
1.6168,71.361
1.5806,70.726
1.5474,70.042
1.5181,69.505
1.4927,69.261
1.4721,70.189
1.4545,73.315
1.4379,79.616
1.4223,88.701
1.4066,98.47
1.391,106.72
1.3744,112.44
1.3617,116.3
1.35,119.62
1.3343,122.79
1.3177,125.72
1.2991,128.07
1.2805,129.73
1.262,130.56
1.2434,130.56
1.2268,129.73
1.2111,128.36
1.1955,126.51
1.1799,124.36
1.1691,121.91
1.1613,119.23
1.1505,116.35
1.1388,113.37
1.1261,110.19
1.1134,106.82
1.0997,103.26
1.0831,99.593
1.0655,96.076
1.0479,92.804
1.0352,89.922
1.0362,87.626
1.0596,85.917
1.1017,84.745
1.1691,83.865
1.2757,83.23
1.4154,82.693
1.5787,82.302
1.7517,82.009
1.9218,81.618
2.0772,81.228
2.2111,80.935
2.3177,80.593
2.3988,80.3
2.4585,80.055
2.4966,79.762
2.5181,79.421
2.5308,79.03
2.5347,78.688
2.5298,78.297
2.5142,77.809
2.4888,77.369
2.4526,76.881
2.4076,76.441
2.3539,76.05
2.2903,75.66
2.2209,75.22
2.1466,74.878
2.0782,74.487
2.0117,74.048
1.9374,73.559
1.8622,73.071
1.7889,72.631
1.7204,72.192
1.6608,71.752
1.61,71.166
1.566,70.629
1.5288,69.945
1.4985,69.407
1.4751,69.261
1.4594,70.238
1.4477,73.51
1.434,80.007
1.4203,89.238
1.4057,99.056
1.39,107.07
1.3754,112.54
1.3607,116.44
1.347,119.81
1.3324,123.18
1.3177,126.12
1.3011,128.41
1.2845,129.97
1.2727,130.76
1.262,130.66
1.2473,129.83
1.2326,128.36
1.219,126.41
1.2053,124.11
1.1916,121.48
1.1779,118.59
1.1652,115.61
1.1535,112.49
1.1417,109.26
1.13,105.8
1.1212,102.28
1.1144,98.812
1.1026,95.344
1.0909,92.218
1.0821,89.531
1.0831,87.382
1.1026,85.819
1.1486,84.549
1.2268,83.621
1.3402,82.937
1.4819,82.351
1.6403,81.814
1.8055,81.374
1.9482,80.935
2.0704,80.495
2.1896,80.104
2.2913,79.762
2.3715,79.372
2.4321,79.03
2.477,78.688
2.5064,78.297
2.521,77.906
2.5239,77.613
2.5152,77.223
2.4956,76.881
2.4682,76.441
2.433,76.05
2.3881,75.611
2.3333,75.318
2.2727,74.976
2.2072,74.634
2.1369,74.243
2.0626,73.803
1.9863,73.413
1.912,72.973
1.8416,72.485
1.7752,71.947
1.7126,71.41
1.6637,70.922
1.6246,70.482
1.5875,69.945
1.5552,69.31
1.5259,68.724
1.5015,68.528
1.48,69.359
1.4624,72.436
1.4457,78.541
1.4291,87.529
1.4135,97.542
1.3978,105.99
1.3861,111.85
1.3763,115.76
1.3656,119.03
1.3539,122.31
1.3412,125.29
1.3275,127.68
1.3118,129.24
1.2952,129.97
1.2796,129.88
1.2649,129
1.2512,127.53
1.2375,125.63
1.2248,123.38
1.217,120.74
1.2111,118.01
1.2023,115.13
1.1906,112.05
1.1779,108.73
1.1632,105.31
1.1486,101.79
1.1329,98.225
1.1153,94.758
1.0987,91.387
1.088,88.506
1.089,86.308
1.1046,84.793
1.1417,83.816
1.2092,83.035
1.3109,82.547
1.4448,82.156
1.6002,81.863
1.824,81.57
2.086,81.277
2.303,81.032
2.479,80.886
2.6168,80.739
2.7204,80.69
2.7957,80.544
2.8436,80.349
2.871,80.104
2.8866,79.86
2.8915,79.616
2.8837,79.323
2.8622,78.981
2.826,78.59
2.7771,78.297
2.7165,78.004
2.6452,77.613
2.565,77.223
2.477,76.783
2.3949,76.294
2.3148,75.806
2.2248,75.22
2.131,74.634
2.0371,74.048
1.9492,73.413
1.8719,72.924
1.8045,72.387
1.7498,71.801
1.7067,71.215
1.6716,70.726
1.6442,70.726
1.6237,72.045
1.61,76.001
1.5992,83.182
1.5865,92.755
1.5748,102.43
1.564,110.09
1.5523,115.17
1.5386,118.74
1.5249,121.87
1.5122,124.94
1.4995,127.43
1.4858,129.09
1.4731,129.93
1.4653,130.07
1.4585,129.49
1.4487,128.31
1.437,126.75
1.4252,124.75
1.4145,122.45
1.4027,119.77
1.39,116.79
1.3763,113.76
1.3627,110.53
1.348,107.31
1.3333,103.94
1.3226,100.47
1.3118,97.102
1.2942,93.878
1.2757,90.948
1.2639,88.506
1.2678,86.747
1.3001,85.428
1.3695,84.5
1.4809,83.865
1.6344,83.426
1.8211,83.133
2.0274,82.791
2.2385,82.449
2.4174,82.058
2.565,81.667
2.7077,81.374
2.8309,81.032
2.9277,80.788
3,80.495
3.0508,80.153
3.0811,79.86
3.0938,79.469
3.0919,79.176
3.0762,78.737
3.0499,78.297
3.0156,77.809
2.9736,77.369
2.9189,76.929
2.8543,76.441
2.781,76.001
2.6999,75.464
2.6139,75.073
2.5239,74.634
2.4321,74.097
2.3421,73.657
2.2561,73.217
2.176,72.729
2.1036,72.24
2.0479,71.801
2.0039,71.215
1.9638,70.629
1.9296,69.994
1.9022,69.652
1.8807,70.531
1.8651,73.657
1.8514,79.909
1.8368,89.043
1.8192,99.105
1.8006,107.6
1.781,113.51
1.7625,117.47
1.7458,120.94
1.7283,124.26
1.7107,127.24
1.695,129.49
1.6804,131
1.6657,131.63
1.651,131.44
1.6354,130.56
1.6178,129.05
1.5992,127.24
1.5816,125.04
1.566,122.55
1.5543,119.81
1.5435,116.79
1.5288,113.76
1.5122,110.49
1.4936,107.12
1.4741,103.7
1.4506,100.13
1.4262,96.614
1.4027,93.292
1.3871,90.41
1.3891,88.164
1.4184,86.405
1.4682,85.184
1.5484,84.256
1.6764,83.621
1.8456,83.182
2.045,82.84
2.262,82.547
2.478,82.253
2.6794,81.863
2.8573,81.57
3.0049,81.277
3.1222,81.032
3.2121,80.788
3.2766,80.495
3.3128,80.104
3.3304,79.762
3.3392,79.372
3.3343,78.932
3.3167,78.492
3.2854,78.004
3.2395,77.564
3.1808,77.027
3.1114,76.636
3.0332,76.197
2.9492,75.757
2.8602,75.318
2.7761,74.78
2.6931,74.341
2.6002,73.901
2.5034,73.51
2.4076,73.071
2.3167,72.631
2.2326,72.094
2.1584,71.557
2.0958,70.922
2.0459,70.287
2.0068,69.798
1.9775,70.042
1.956,72.192
1.9404,77.174
1.9277,85.477
1.914,95.49
1.9003,104.67
1.8837,111.32
1.8641,115.66
1.8456,119.03
1.826,122.35
1.8045,125.43
1.7791,127.83
1.7546,129.44
1.7312,130.36
1.7126,130.56
1.697,129.93
1.6804,128.75
1.6618,127.19
1.6432,125.14
1.6246,122.75
1.6051,120.06
1.5855,117.23
1.5679,114.3
1.5503,111.17
1.5318,107.85
1.5132,104.48
1.4936,101.06
1.4761,97.542
1.4594,94.318
1.4389,91.436
1.4242,89.043
1.4272,87.187
1.4624,85.721
1.5386,84.696
1.6618,83.865
1.8309,83.377
2.0352,82.986
2.259,82.693
2.4858,82.302
2.6755,82.009
2.8328,81.618
2.9853,81.228
3.1183,80.935
3.2239,80.544
3.303,80.153
3.3607,79.811
3.3998,79.469
3.4194,79.127
3.4203,78.688
3.4047,78.199
3.3744,77.662
3.3284,77.223
3.2737,76.783
3.2131,76.294
3.1398,75.855
3.0547,75.464
2.9619,75.171
2.8641,74.731
2.7625,74.243
2.6569,73.755
2.5533,73.217
2.4536,72.875
2.3587,72.436
2.2727,71.947
2.2053,71.361
2.1505,70.726
2.0978,70.091
2.0518,69.554
2.0117,69.505
1.9775,70.629
1.9482,74.292
1.9218,81.228
1.8964,90.801
1.8729,100.62
1.8524,108.39
1.8319,113.51
1.8123,117.13
1.7967,120.35
1.783,123.48
1.7664,126.07
1.7478,127.87
1.7292,129.05
1.7097,129.49
1.6872,129.24
1.6637,128.31
1.6403,126.95
1.6168,125.14
1.5934,122.84
1.5709,120.35
1.4858,117.67
1.3724,114.88
1.3089,111.85
1.2688,108.73
1.2395,105.5
1.216,102.13
1.1935,98.665
1.1701,95.295
1.1486,92.218
1.1339,89.678
1.1329,87.675
1.1574,86.112
1.219,84.989
1.3011,84.158
1.4115,83.572
1.5699,83.035
1.7644,82.595
1.9765,82.156
2.1887,81.814
2.3861,81.423
2.5582,81.032
2.7009,80.69
2.8113,80.349
2.8935,80.055
2.9511,79.665
2.9834,79.323
2.9971,78.883
3.001,78.492
2.9941,78.053
2.9756,77.564
2.9453,77.027
2.9022,76.636
2.8456,76.197
2.7771,75.757
2.6999,75.366
2.6149,74.976
2.5239,74.634
2.4379,74.194
2.3548,73.657
2.263,73.168
2.1691,72.631
2.0782,72.094
1.9922,71.654
1.914,71.312
1.8465,70.726
1.7889,70.189
1.7419,69.554
1.7038,68.968
1.6725,68.919
1.6461,70.091
1.6256,73.755
1.607,80.69
1.5875,90.215
1.5679,99.984
1.5494,107.7
1.5288,112.73
1.5073,116.2
1.4858,119.13
1.4624,121.91
1.4409,124.31
1.4213,126.07
1.3998,127.14
1.3832,127.53
1.3675,127.29
1.349,126.41
1.3294,125.14
1.3099,123.28
1.2913,121.13
1.2727,118.69
1.2561,116.05
1.2405,113.32
1.2258,110.44
1.2092,107.31
1.1926,104.04
1.174,100.72
1.1593,97.297
1.1466,93.927
1.129,90.85
1.1124,88.359
1.1075,86.356
1.1251,84.94
1.1769,83.816
1.2717,82.986
1.4106,82.302
1.5894,81.814
1.7967,81.423
2.0166,81.13
2.2053,80.788
2.3666,80.446
2.5259,80.104
2.6657,79.811
2.7791,79.567
2.8641,79.225
2.9238,78.883
2.9648,78.541
2.9892,78.248
2.9971,77.906
2.9883,77.467
2.9638,77.125
2.9267,76.685
2.8807,76.343
2.826,76.001
2.7586,75.562
2.6794,75.122
2.5914,74.731
2.4976,74.243
2.3978,73.755
2.2933,73.12
2.1887,72.485
2.088,71.947
1.9922,71.361
1.9042,70.824
1.8328,70.238
1.7742,69.652
1.7204,69.114
1.6725,68.528
1.6305,68.186
1.5953,68.382
1.566,70.189
1.5406,74.878
1.5181,82.693
1.4956,92.413
1.4721,101.69
1.4497,108.53
1.4272,113.07
1.4106,116.25
1.3978,119.03
1.3822,121.57
1.3636,123.62
1.3431,124.94
1.3216,125.58
1.3011,125.48
1.2825,124.75
1.2639,123.58
1.2463,121.91
1.2287,120.01
1.2111,117.76
1.1965,115.32
1.1818,112.68
1.1632,109.85
1.1457,106.87
1.1271,103.79
1.1065,100.62
1.085,97.346
1.0616,94.171
1.0352,91.241
1.0117,88.75
0.99804,86.796
1.0029,85.428
1.0381,84.5
1.0968,83.865
1.1877,83.377
1.3294,82.986
1.5152,82.595
1.7312,82.302
1.9599,82.009
2.1818,81.667
2.3803,81.374
2.5464,81.032
2.6774,80.788
2.7742,80.446
2.8416,80.055
2.8788,79.665
2.8944,79.372
2.8983,78.981
2.8915,78.59
2.8729,78.199
2.8407,77.76
2.7977,77.174
2.7439,76.685
2.6813,76.099
2.609,75.562
2.5269,75.122
2.435,74.683
2.3382,74.194
2.2493,73.755
2.1642,73.217
2.0733,72.729
1.9844,72.192
1.9013,71.557
1.828,70.97
1.7664,70.433
1.7155,69.847
1.6725,69.31
1.6364,68.968
1.6061,69.505
1.5816,71.801
1.564,77.125
1.5503,85.477
1.5357,95.441
1.52,104.43
1.5034,110.88
1.4858,114.98
1.4673,117.91
1.4487,120.6
1.4291,122.99
1.4096,125.04
1.391,126.6
1.3744,127.48
1.3578,127.63
1.346,126.95
1.3343,125.63
1.3187,123.82
1.303,121.67
1.2874,119.37
1.2708,116.98
1.2561,114.49
1.2424,111.85
1.2268,109.12
1.2102,106.24
1.1916,103.16
1.1711,99.886
1.1554,96.467
1.1427,93.341
1.1261,90.606
1.1144,88.261
1.1202,86.356
1.1554,85.038
1.2326,84.11
1.3548,83.475
1.521,83.035
1.7234,82.791
1.9482,82.547
2.1769,82.253
2.391,81.814
2.5582,81.277
2.6872,80.788
2.8035,80.3
2.8974,79.86
2.9648,79.567
3.0068,79.225
3.0293,78.688
3.0362,78.053
3.0293,77.467
3.0108,77.027
2.9804,76.685
2.9394,76.246
2.8925,75.855
2.8397,75.562
2.7742,75.171
2.6979,74.683
2.6129,74.048
2.5191,73.51
2.4164,73.12
2.3089,72.729
2.2033,72.289
2.1036,71.752
2.0098,71.215
1.9247,70.824
1.8504,70.531
1.7937,70.238
1.7507,69.945
1.7116,69.407
1.6794,68.675
1.652,68.235
1.6276,69.652
1.6041,74.878
1.5797,83.865
1.5552,94.318
1.5298,103.5
1.5044,110.05
1.479,114.3
1.4575,117.18
1.4409,119.67
1.4242,122.16
1.4066,124.75
1.3891,126.85
1.3695,128.07
1.347,128.17
1.3226,127.43
1.2991,125.68
1.2766,122.94
1.2571,119.91
1.2385,117.86
1.2258,116.93
1.2151,115.86
1.2023,113.42
1.1896,110.09
1.1769,107.16
1.1642,104.58
1.1505,101.79
1.1339,98.812
1.1144,95.783
1.0938,92.12
1.0802,87.431
1.085,83.816
1.1202,83.572
1.1779,85.379
1.2659,85.477
1.4037,83.035
1.5865,80.984
1.7986,81.277
2.0235,82.253
2.2434,81.667
2.4438,80.3
2.6129,79.762
2.7468,80.251
2.8465,80.495
2.9159,79.567
2.9541,78.297
2.9726,78.492
2.9814,80.593
2.9804,81.814
2.9677,79.225
2.9423,74.683
2.9052,73.071
2.8563,75.415
2.7957,77.418
2.7243,76.05
2.6422,73.413
2.5513,72.533
2.4536,73.315
2.3627,73.559
2.2747,72.875
2.1789,72.192
2.0831,71.85
1.9922,71.557
1.9071,70.97
1.8328,70.482
1.7703,70.189
1.7185,69.603
1.6745,68.724
1.6373,67.991
1.6041,68.04
1.5787,69.359
1.5582,72.778
1.5376,79.176
1.5181,88.359
1.4985,98.225
1.479,106.28
1.4585,111.66
1.4389,115.22
1.4194,118.11
1.3998,120.69
1.3793,122.94
1.3578,124.7
1.3363,125.92
1.3167,126.51
1.2991,126.41
1.2815,125.82
1.2639,124.6
1.2463,122.84
1.2297,120.69
1.2131,118.25
1.2004,115.61
1.1877,112.88
1.173,109.95
1.1593,106.97
1.1466,103.99
1.1369,100.86
1.1271,97.591
1.1095,94.367
1.087,91.387
1.0645,88.799
1.0528,86.845
1.0645,85.428
1.1124,84.403
1.2023,83.621
1.3382,82.84
1.5161,82.156
1.7253,81.716
1.9492,81.374
2.1408,80.984
2.3069,80.544
2.4731,80.153
2.6207,79.86
2.74,79.567
2.8309,79.127
2.8964,78.786
2.9404,78.541
2.9668,78.102
2.9756,77.369
2.9677,76.441
2.9443,75.904
2.911,76.001
2.868,76.099
2.8133,75.611
2.7478,74.683
2.6725,73.999
2.5894,73.755
2.4995,73.657
2.4037,73.364
2.304,72.778
2.2023,72.387
2.1026,71.996
2.0078,71.605
1.9218,71.068
1.8524,70.433
1.7937,69.945
1.739,69.359
1.6901,68.821
1.6481,68.235
1.6109,67.844
1.5797,68.431
1.5543,70.726
1.5318,76.001
1.5093,84.256
1.4878,94.123
1.4643,103.11
1.4438,109.51
1.4282,113.56
1.4125,116.54
1.3939,119.33
1.3744,121.82
1.3529,123.82
1.3304,125.14
1.3089,125.92
1.2874,126.16
1.2669,125.48
1.2483,124.02
1.2287,122.31
1.2082,120.69
1.1935,118.79
1.1818,116.2
1.1681,113.17
1.1554,110.39
1.1427,107.6
1.13,104.62
1.1163,101.16
1.0997,97.786
1.0811,94.611
1.0606,91.729
1.044,88.945
1.0381,86.356
1.0459,84.256
1.0762,82.595
1.1427,81.472
1.2502,81.423
1.4018,82.107
1.5904,82.156
1.8025,80.788
2.0235,79.421
2.2356,79.421
2.4252,79.86
2.5855,79.323
2.7146,78.248
2.8123,77.809
2.8749,78.053
2.913,77.858
2.9404,77.125
2.9541,76.343
2.9531,75.904
2.9394,75.415
2.912,74.878
2.871,74.683
2.8182,74.731
2.7537,74.438
2.6774,73.852
2.5934,73.51
2.5103,73.217
2.4272,72.924
2.3324,72.436
2.2317,71.85
2.13,71.361
2.0313,70.922
1.9394,70.287
1.8553,69.749
1.781,69.31
1.7165,68.919
1.6608,68.431
1.6139,67.844
1.5758,67.258
1.5484,66.965
1.5269,67.991
1.5034,71.215
1.479,77.564
1.4545,86.552
1.4321,96.369
1.4096,104.62
1.3881,110.19
1.3666,113.76
1.3451,116.44
1.3245,118.89
1.304,120.99
1.2903,122.6
1.2786,123.58
1.2649,123.92
1.2493,123.67
1.2326,122.94
1.216,121.72
1.1984,120.16
1.1799,118.11
1.1623,115.66
1.1437,113.12
1.1261,110.53
1.1085,107.85
1.0948,104.87
1.0831,101.6
1.0665,98.421
1.0469,95.295
1.0264,92.169
1.0039,89.287
0.98534,86.943
0.97849,85.184
0.99316,84.012
1.0411,83.133
1.1329,82.547
1.2708,82.058
1.4506,81.716
1.6305,81.374
1.8113,80.984
2.0186,80.69
2.2248,80.446
2.4115,80.153
2.5689,80.007
2.694,79.665
2.7879,79.323
2.8524,78.981
2.8935,78.59
2.914,78.297
2.9169,78.444
2.9042,78.883
2.8817,78.346
2.8485,76.343
2.8035,74.536
2.7478,75.22
2.6813,77.223
2.6061,77.32
2.522,75.171
2.4311,73.608
2.3353,73.852
2.2375,74.292
2.1388,73.315
2.042,71.801
1.9609,71.166
1.8895,71.312
1.8201,71.068
1.7576,70.287
1.7038,69.603
1.6588,69.114
1.6227,68.675
1.5943,69.163
1.5718,72.045
1.5523,78.053
1.5337,86.503
1.5152,95.783
1.5005,104.38
1.4868,110.83
1.4712,114.88
1.4565,117.23
1.4409,119.23
1.4252,121.38
1.4106,123.18
1.3949,124.06
1.3793,124.11
1.3656,123.82
1.3509,123.23
1.3363,122.31
1.3245,120.89
1.3167,119.03
1.3099,116.93
1.3001,114.54
1.2884,112
1.2766,109.26
1.263,106.43
1.2473,103.35
1.2278,100.33
1.2053,97.346
1.1808,94.123
1.1544,90.655
1.1329,87.724
1.1232,85.917
1.131,84.793
1.1652,84.012
1.2375,83.816
1.3548,84.158
1.5161,83.719
1.7146,82.009
1.9345,80.886
2.1564,81.179
2.3656,81.277
2.5494,80.251
2.6989,78.981
2.8152,78.688
2.8925,78.883
2.9394,78.688
2.9736,78.053
2.9922,77.418
2.9971,77.174
2.9902,77.125
2.9726,76.685
2.9433,76.001
2.9022,75.366
2.8504,75.122
2.7879,74.78
2.7165,74.194
2.6442,73.559
2.5699,73.168
2.4839,72.924
2.3881,72.485
2.2874,71.85
2.1887,71.508
2.0948,71.41
2.0098,71.41
1.9345,70.97
1.8671,69.945
1.8084,68.87
1.7586,68.479
1.7175,68.284
1.6862,67.6
1.6608,67.503
1.6354,70.042
1.6119,76.246
1.5914,85.184
1.5699,95.002
1.5494,103.79
1.5288,110.39
1.5054,114.73
1.4829,117.76
1.4614,120.01
1.4389,121.67
1.4194,123.04
1.3998,124.16
1.3763,124.75
1.3539,124.41
1.3333,123.28
1.3148,122.45
1.2991,122.35
1.2864,121.62
1.2766,118.59
1.2669,114.49
1.2571,111.76
1.2454,110.29
1.2287,108.19
1.2131,104.67
1.1994,100.86
1.1799,97.542
1.1554,94.611
1.13,91.68
1.1075,88.75
1.0968,86.112
1.1065,84.305
1.1486,83.133
1.2336,82.547
1.3646,82.595
1.5376,83.035
1.7126,83.23
1.8915,82.693
2.0987,81.472
2.306,80.153
2.4956,79.127
2.6559,78.444
2.7849,77.906
2.8856,77.613
2.9619,77.467
3.0176,77.418
3.0557,77.223
3.0782,76.978
3.085,76.636
3.0753,76.246
3.0499,75.904
3.0108,75.611
2.958,75.318
2.8905,74.927
2.8123,74.487
2.7253,73.999
2.6295,73.51
2.5279,72.924
2.4242,72.24
2.3216,71.557
2.2219,71.117
2.1378,70.873
2.0645,70.677
1.9902,70.384
1.9198,69.994
1.8553,69.554
1.7996,68.968
1.7537,68.382
1.7155,67.796
1.6852,67.796
1.6598,69.163
1.6364,73.217
1.6139,80.446
1.5904,89.873
1.5699,99.154
1.5513,106.28
1.5308,110.97
1.5103,114.34
1.4878,117.23
1.4653,119.77
1.4438,121.72
1.4213,123.18
1.3969,124.02
1.3685,124.26
1.3363,123.82
1.305,122.94
1.2815,121.62
1.261,120.01
1.2385,118.01
1.218,115.81
1.2014,113.37
1.1877,110.68
1.1779,107.85
1.1691,104.87
1.1584,101.74
1.1457,98.47
1.129,95.246
1.1075,91.973
1.0841,89.043
1.0704,86.601
1.0694,84.745
1.0841,83.377
1.13,82.449
1.219,81.716
1.3548,81.228
1.5347,80.935
1.7478,80.593
1.9756,80.3
2.2014,80.007
2.4086,79.616
2.5885,79.225
2.7195,78.737
2.8133,78.248
2.8925,77.76
2.9521,77.418
2.9902,77.027
3.0088,76.636
3.0117,76.197
3,75.66
2.9756,75.171
2.9394,74.683
2.8925,74.194
2.8338,73.657
2.7722,73.217
2.7067,72.875
2.6285,72.533
2.5386,72.24
2.4409,71.85
2.3392,71.41
2.2375,70.922
2.1369,70.433
2.0391,69.945
1.9501,69.554
1.87,69.163
1.8006,68.821
1.7439,68.284
1.7009,67.747
1.6676,67.112
1.6373,66.721
1.6119,67.063
1.5904,69.114
1.5689,73.999
1.5464,82.009
1.523,91.729
1.4985,100.81
1.4751,107.36
1.4526,111.61
1.4301,114.64
1.4106,117.32
1.392,119.67
1.3685,121.48
1.3441,122.7
1.3206,123.28
1.2981,123.43
1.2757,122.99
1.2532,122.06
1.2317,120.6
1.2121,118.79
1.1965,116.64
1.1828,114.1
1.1691,111.51
1.1603,108.73
1.1535,105.94
1.1447,102.87
1.1329,99.691
1.1173,96.418
1.0978,93.097
1.0762,89.971
1.045,87.236
1.0147,85.135
1.0078,83.475
1.0303,82.302
1.0919,81.472
1.176,80.788
1.2903,80.3
1.4555,79.909
1.6569,79.567
1.8759,79.176
2.0919,78.737
2.2913,78.297
2.4643,77.906
2.6061,77.564
2.7165,77.223
2.7986,76.929
2.8543,76.539
2.8876,76.197
2.8993,75.757
2.8944,75.22
2.8788,74.78
2.8514,74.341
2.8104,73.999
2.7576,73.608
2.6931,73.315
2.6197,72.973
2.5376,72.68
2.4467,72.289
2.35,71.947
2.2493,71.557
2.1574,71.117
2.0714,70.629
1.9795,70.042
1.8886,69.505
1.8035,68.919
1.7263,68.479
1.6588,67.991
1.6012,67.503
1.5523,66.916
1.5122,66.379
1.479,65.988
1.4497,66.281
1.4242,68.284
1.4057,73.12
1.39,81.032
1.3724,90.85
1.3539,100.03
1.3343,106.92
1.3128,111.22
1.2913,114.1
1.2698,116.54
1.2483,118.69
1.2297,120.35
1.2121,121.57
1.1955,122.11
1.1828,122.11
1.173,121.57
1.1603,120.5
1.1476,119.03
1.1329,117.23
1.1173,115.22
1.1017,112.93
1.0841,110.49
1.0665,107.85
1.0489,105.01
1.0313,101.99
1.0137,98.812
0.99511,95.637
0.97947,92.413
0.96579,89.482
0.94721,86.943
0.92962,84.989
0.92473,83.621
0.94526,82.693
1.0029,82.009
1.1017,81.472
1.2454,81.13
1.4291,80.739
1.6413,80.349
1.8631,80.007
2.0528,79.665
2.216,79.372
2.3754,79.03
2.5122,78.737
2.6217,78.492
2.7028,78.248
2.7576,78.004
2.7889,77.662
2.8006,77.369
2.7947,77.027
2.7761,76.685
2.7449,76.343
2.7019,76.05
2.654,75.757
2.6002,75.366
2.5357,75.073
2.4624,74.683
2.3812,74.243
2.2923,73.755
2.1975,73.168
2.0978,72.533
1.998,71.947
1.9013,71.361
1.8113,70.824
1.7312,70.238
1.6686,69.652
1.6168,69.114
1.5689,68.479
1.5288,67.991
1.4956,67.942
1.4673,68.919
1.4428,72.289
1.4223,78.786
1.4037,87.919
1.3861,97.493
1.3695,105.36
1.3529,110.63
1.3372,114
1.3265,116.54
1.3177,118.79
1.306,120.55
1.2933,121.72
1.2805,122.45
1.2678,122.6
1.2532,122.26
1.2385,121.28
1.2229,120.06
1.2072,118.45
1.1906,116.49
1.176,114.25
1.1662,111.8
1.1593,109.26
1.1496,106.53
1.1388,103.74
1.1271,100.72
1.1144,97.688
1.0987,94.562
1.0792,91.485
1.0557,88.701
1.0362,86.356
1.0274,84.598
1.0401,83.426
1.086,82.595
1.1544,82.058
1.2522,81.618
1.3969,81.228
1.5806,80.886
1.7898,80.495
2.0059,80.055
2.2111,79.665
2.393,79.225
2.5445,78.883
2.6628,78.492
2.7498,78.102
2.8094,77.809
2.8416,77.418
2.8553,76.978
2.8602,76.539
2.8543,76.099
2.8368,75.66
2.8094,75.22
2.7693,74.683
2.7175,74.243
2.6549,73.803
2.5816,73.413
2.4985,73.071
2.4076,72.631
2.3216,72.192
2.2375,71.801
2.1466,71.361
2.0528,70.922
1.9599,70.433
1.8739,69.994
1.7967,69.554
1.7302,69.066
1.6745,68.479
1.6276,67.844
1.5885,67.307
1.5552,67.258
1.5288,68.479
1.5103,72.094
1.4946,78.932
1.4761,88.261
1.4545,97.932
1.4321,105.7
1.4096,110.88
1.3871,114.3
1.3646,117.03
1.3431,119.57
1.3226,121.62
1.3021,123.14
1.2825,124.06
1.2688,124.41
1.2561,124.26
1.2395,123.43
1.2229,122.26
1.2072,120.74
1.1906,118.79
1.175,116.54
1.1574,114.05
1.1408,111.32
1.1251,108.39
1.1085,105.36
1.0899,102.18
1.0694,98.909
1.0528,95.734
1.0371,92.608
1.0176,89.727
1,87.382
0.99022,85.575
1,84.158
1.0411,83.23
1.1222,82.498
1.2473,81.863
1.4145,81.423
1.6149,81.032
1.8319,80.69
2.0225,80.3
2.1887,79.86
2.3558,79.469
2.5054,79.127
2.6276,78.688
2.7195,78.297
2.7859,77.906
2.8309,77.564
2.8573,77.174
2.8671,76.783
2.8602,76.343
2.8397,75.904
2.8074,75.464
2.7683,74.927
2.7224,74.438
2.6657,73.901
2.5982,73.51
2.521,73.071
2.435,72.631
2.3402,72.24
2.2395,71.85
2.1359,71.41
2.0362,70.97
1.9404,70.531
1.8514,70.189
1.7791,69.749
1.7214,69.163
1.6667,68.626
1.6178,68.04
1.5767,67.503
1.5435,67.258
1.5171,67.942
1.4956,70.677
1.4761,76.441
1.4555,85.184
1.435,95.002
1.4154,103.35
1.3949,109.17
1.3793,112.88
1.3871,115.81
1.4037,118.45
1.3998,120.69
1.3861,122.35
1.3705,123.58
1.3539,124.16
1.3382,124.11
1.3216,123.38
1.304,122.26
1.2845,120.74
1.2659,118.89
1.2522,116.64
1.2405,114.2
1.2268,111.61
1.2111,108.87
1.1945,105.99
1.1769,102.87
1.1584,99.593
1.1398,96.369
1.1202,93.195
1.0997,90.215
1.0811,87.724
1.0714,85.721
1.0792,84.305
1.1056,83.133
1.1603,82.253
1.2581,81.57
1.3988,80.984
1.5748,80.544
1.7771,80.104
1.9922,79.762
2.2014,79.421
2.3891,79.176
2.5484,78.786
2.6774,78.346
2.7761,77.906
2.8387,77.467
2.8759,77.027
2.9022,76.539
2.9159,76.05
2.914,75.562
2.8974,75.122
2.868,74.731
2.827,74.341
2.7752,73.999
2.7146,73.608
2.6442,73.315
2.565,72.973
2.4809,72.631
2.4018,72.094
2.3226,71.605
2.2326,71.117
2.1388,70.726
2.044,70.287
1.9541,69.847
1.87,69.359
1.7937,68.87
1.7273,68.382
1.6725,67.796
1.6276,67.258
1.5914,66.868
1.565,67.258
1.5445,69.31
1.5249,74.048
1.5044,81.814
1.4848,91.387
1.4643,100.37
1.4428,107.12
1.4194,111.56
1.3959,114.73
1.3724,117.47
1.35,119.91
1.3284,121.91
1.3069,123.28
1.2903,123.92
1.2757,123.67
1.2581,122.79
1.2414,121.72
1.2268,120.55
1.2111,118.89
1.1955,116.35
1.1789,113.12
1.1632,109.95
1.1496,107.55
1.1359,105.8
1.1241,103.5
1.1173,100.03
1.1114,96.223
1.0987,92.853
1.0811,90.069
1.0626,87.48
1.0479,84.793
1.042,81.863
1.0587,79.909
1.1075,80.007
1.1965,81.179
1.3284,81.716
1.4985,81.13
1.696,80.055
1.8778,79.03
2.0469,78.444
2.2248,78.737
2.3891,79.811
2.5288,80.446
2.6413,79.86
2.7263,78.883
2.7869,78.199
2.826,77.662
2.8456,76.881
2.8475,75.66
2.8348,74.634
2.8094,73.901
2.7732,73.51
2.7263,73.413
2.6676,73.559
2.5982,73.51
2.52,72.778
2.435,71.85
2.3441,71.117
2.2502,70.726
2.1554,70.629
2.0606,70.287
1.9677,69.798
1.8798,69.066
1.8074,68.675
1.7478,68.87
1.6882,69.114
1.6344,68.821
1.5875,67.991
1.5474,67.112
1.5142,66.916
1.4878,68.626
1.4653,73.168
1.4448,80.544
1.4242,89.092
1.4037,96.76
1.3881,102.23
1.3754,105.99
1.3607,108.97
1.3451,112.1
1.3294,115.76
1.3128,119.37
1.2952,122.06
1.2766,123.43
1.2571,123.92
1.2395,124.06
1.2209,123.92
1.2033,122.94
1.1906,121.04
1.1789,118.45
1.1632,115.42
1.1457,112.29
1.13,109.31
1.1163,106.38
1.1026,103.5
1.088,100.42
1.0714,97.004
1.0518,93.439
1.0283,90.215
1.002,87.724
0.98143,85.868
0.97361,84.403
0.98338,83.279
1.0176,82.595
1.089,82.253
1.2043,81.57
1.3617,80.153
1.5523,78.541
1.7644,78.102
1.9814,78.981
2.1877,79.909
2.3705,79.665
2.5239,78.541
2.6334,77.564
2.7087,77.125
2.7683,76.978
2.8094,76.929
2.8328,76.734
2.8397,76.539
2.8309,76.343
2.8084,76.197
2.7722,76.05
2.7243,75.66
2.6657,75.122
2.5973,74.438
2.52,73.755
2.4457,73.071
2.3715,72.387
2.2854,71.605
2.1916,70.97
2.0948,70.482
1.999,69.945
1.9071,69.359
1.8201,68.87
1.741,68.528
1.6706,68.284
1.6129,68.04
1.566,67.844
1.5327,68.186
1.5083,70.238
1.4878,75.122
1.4692,83.182
1.4516,92.804
1.435,101.6
1.4184,108.04
1.4037,112.19
1.39,115.13
1.3783,117.57
1.3666,119.62
1.3519,121.18
1.3372,122.26
1.3255,122.94
1.3148,123.04
1.2981,122.5
1.2796,121.23
1.263,119.47
1.2473,117.47
1.2336,115.22
1.2209,112.73
1.2072,109.95
1.1926,106.68
1.1769,103.45
1.1603,100.33
1.1466,97.2
1.1349,93.976
1.1173,90.85
1.0968,88.261
1.0753,86.259
1.0587,84.745
1.0547,83.621
1.0733,82.791
1.1271,82.253
1.2229,81.716
1.3617,81.228
1.5406,80.739
1.7468,80.153
1.9365,79.665
2.1114,79.127
2.2952,78.737
2.4663,78.444
2.6119,78.248
2.7273,78.053
2.8123,77.858
2.869,77.662
2.8993,77.223
2.9052,76.246
2.8905,74.976
2.8602,74.536
2.8201,75.073
2.7703,75.415
2.7077,74.927
2.6373,74.194
2.5611,73.755
2.4809,73.51
2.3969,72.924
2.3109,71.947
2.2385,70.824
2.172,70.287
2.0958,70.433
2.0196,70.824
1.9453,70.677
1.8827,70.042
1.8299,69.261
1.7771,68.431
1.7292,67.6
1.6891,67.161
1.6559,67.796
1.6266,70.433
1.6002,75.904
1.5758,84.256
1.5543,93.976
1.5357,102.67
1.5181,108.97
1.5054,113.17
1.4936,116.35
1.478,119.23
1.4594,121.72
1.4399,123.58
1.4213,124.7
1.4037,125.19
1.3871,124.99
1.3705,124.16
1.3539,122.94
1.3372,121.38
1.3216,119.47
1.306,117.23
1.2952,114.73
1.2874,112.1
1.2757,109.41
1.263,106.68
1.2493,103.7
1.2336,100.23
1.2151,96.565
1.1935,93.341
1.1701,90.801
1.1486,88.506
1.1339,86.259
1.1339,84.403
1.1525,83.377
1.1965,82.693
1.2796,81.912
1.4057,81.179
1.5709,80.69
1.7664,80.446
1.9756,80.251
2.1818,80.007
2.3724,79.469
2.5376,78.932
2.6696,78.59
2.7703,78.492
2.8407,78.248
2.8807,77.809
2.9003,77.467
2.911,77.223
2.9101,76.441
2.8974,75.171
2.8729,74.927
2.8377,76.197
2.7908,76.929
2.7322,75.415
2.6618,73.364
2.5816,73.12
2.4917,74.048
2.4066,73.803
2.3245,72.387
2.2336,71.508
2.1408,71.41
2.0489,71.312
1.9629,70.873
1.8837,70.287
1.8152,69.798
1.7566,69.114
1.7067,68.431
1.6657,67.991
1.6315,68.382
1.6022,70.042
1.5797,74.243
1.5611,81.667
1.5435,91.436
1.5269,100.81
1.5142,107.75
1.5044,112
1.4985,114.98
1.4956,117.91
1.4956,120.94
1.4956,123.43
1.4927,124.99
1.4878,125.87
1.4819,126.16
1.4741,125.87
1.4594,124.8
1.4428,123.04
1.4252,121.04
1.4066,118.98
1.3881,116.79
1.3724,114.3
1.3597,111.51
1.35,108.39
1.3441,105.16
1.3412,101.89
1.3372,98.47
1.3333,95.197
1.3265,92.12
1.3118,89.434
1.2942,87.138
1.2825,85.379
1.2864,84.012
1.3206,83.133
1.3939,82.449
1.5122,81.912
1.6725,81.57
1.8631,81.179
2.0704,80.739
2.2522,80.3
2.4106,79.86
2.5699,79.469
2.7107,79.127
2.824,78.786
2.9101,78.444
2.9697,78.053
3.0078,77.76
3.0293,77.32
3.0352,76.881
3.0264,76.343
3.002,75.904
2.9668,75.415
2.9238,74.878
2.87,74.438
2.8055,74.048
2.7312,73.657
2.65,73.315
2.5601,72.924
2.4643,72.485
2.3656,72.045
2.2669,71.41
2.1691,70.677
2.0753,69.847
1.9892,69.163
1.9198,68.87
1.8622,68.724
1.8084,68.821
1.7615,68.724
1.7214,68.724
1.6882,69.652
1.6618,72.778
1.6403,79.03
1.6217,87.968
1.6031,97.591
1.5846,106.04
1.566,112.29
1.5503,116.64
1.5367,119.47
1.52,121.04
1.5015,121.43
1.4819,121.18
1.4614,121.28
1.4409,122.26
1.4223,123.58
1.4047,124.6
1.3861,124.94
1.3666,124.31
1.347,122.55
1.3265,119.67
1.3099,116.05
1.2981,112.05
1.2864,108.04
1.2747,104.23
1.263,100.72
1.2483,97.493
1.2307,94.513
1.2102,91.68
1.1877,89.043
1.1681,86.747
1.1574,84.549
1.1642,82.547
1.1906,81.13
1.2454,80.495
1.3441,80.544
1.4878,80.886
1.6657,81.032
1.8671,80.935
2.0792,80.349
2.2845,79.567
2.4692,78.737
2.6237,78.102
2.7468,77.76
2.8407,77.564
2.9032,77.418
2.9355,77.125
2.9482,76.783
2.9501,76.49
2.9413,76.246
2.9238,76.001
2.8974,75.611
2.8612,75.122
2.8143,74.536
2.7586,73.901
2.6921,73.315
2.6129,72.875
2.523,72.631
2.437,72.485
2.35,72.192
2.2522,71.605
2.1525,70.922
2.0557,70.238
1.9648,69.749
1.8827,69.261
1.8113,68.821
1.7507,68.382
1.6999,67.991
1.6579,67.796
1.6237,68.479
1.5953,71.117
1.5758,76.929
1.5621,85.624
1.5484,95.344
1.5357,103.74
1.523,109.56
1.5093,113.37
1.4936,116.44
1.4751,119.23
1.4536,121.67
1.4301,123.48
1.4086,124.6
1.3891,125.14
1.3754,124.94
1.3646,124.06
1.3509,122.79
1.3363,121.23
1.3206,119.37
1.306,117.13
1.2923,114.49
1.2796,111.66
1.2669,108.68
1.2542,105.5
1.2424,102.28
1.2278,99.007
1.2102,95.686
1.1965,92.608
1.1838,89.824
1.1662,87.48
1.1505,85.721
1.1447,84.403
1.1603,83.475
1.2072,82.742
1.2952,82.058
1.4282,81.472
1.6031,80.935
1.8074,80.495
2.0225,80.104
2.2063,79.811
2.3636,79.567
2.5034,79.372
2.6168,79.176
2.7146,78.981
2.7889,78.737
2.8377,78.444
2.8671,78.102
2.8798,77.76
2.8788,77.418
2.8631,77.125
2.8319,76.734
2.7859,76.343
2.7322,76.001
2.6706,75.611
2.5963,75.22
2.5132,74.731
2.4223,74.292
2.3265,73.803
2.2278,73.315
2.1281,72.778
2.0293,72.24
1.9355,71.654
1.8475,71.166
1.7674,70.629
1.7038,69.994
1.654,69.359
1.6061,68.87
1.564,69.163
1.5288,71.215
1.4985,76.343
1.4721,84.549
1.4487,94.22
1.4291,102.91
1.4115,109.12
1.3949,113.17
1.3754,116.1
1.3558,118.79
1.3392,121.13
1.3255,122.94
1.3109,124.11
1.2942,124.7
1.2796,124.41
1.2659,123.58
1.2512,122.26
1.2356,120.6
1.219,118.59
1.2023,116.3
1.1857,113.76
1.1701,111.12
1.1603,108.29
1.1525,105.31
1.1427,102.23
1.13,99.056
1.1144,95.881
1.0958,92.657
1.0733,89.678
1.0518,87.138
1.0342,85.184
1.0274,83.816
1.043,82.84
1.0919,82.058
1.1808,81.472
1.2874,81.032
1.4194,80.739
1.5953,80.349
1.7947,80.007
1.999,79.665
2.1935,79.421
2.3675,79.225
2.5122,78.932
2.6237,78.541
2.7019,78.199
2.7517,77.858
2.7781,77.467
2.784,77.125
2.7732,76.685
2.7527,76.246
2.7224,75.806
2.6804,75.366
2.6276,74.878
2.566,74.438
2.4946,74.048
2.4164,73.657
2.3314,73.217
2.2414,72.729
2.1476,72.24
2.0626,71.801
1.9834,71.312
1.8974,70.873
1.8123,70.482
1.7322,70.042
1.6608,69.603
1.5992,69.066
1.5474,68.479
1.5044,68.04
1.4702,68.431
1.4428,70.433
1.4184,75.366
1.3959,83.475
1.3783,93.341
1.3636,102.47
1.3451,109.17
1.3265,113.51
1.3099,116.79
1.2952,119.81
1.2805,122.5
1.2649,124.75
1.2483,126.36
1.2317,127.29
1.2151,127.43
1.1984,126.8
1.1857,125.58
1.175,123.87
1.1613,121.82
1.1457,119.42
1.129,116.79
1.1105,114.05
1.0909,111.17
1.0733,108.09
1.0557,105.01
1.0381,101.69
1.0215,98.372
1.0029,95.051
0.98045,91.973
0.96285,89.238
0.95015,87.04
0.94135,85.379
0.95015,84.158
0.98729,83.279
1.0626,82.547
1.1808,81.912
1.3402,81.423
1.5308,80.984
1.738,80.544
1.9472,80.153
2.1427,79.811
2.2962,79.469
2.4145,79.225
2.52,78.932
2.6051,78.59
2.6667,78.297
2.7048,77.906
2.7224,77.564
2.7243,77.174
2.7136,76.734
2.6891,76.294
2.653,75.855
2.6051,75.415
2.5474,74.976
2.4878,74.634
2.4252,74.194
2.3509,73.755
2.2649,73.315
2.172,72.778
2.0753,72.387
1.9785,71.947
1.8827,71.557
1.7908,71.166
1.7058,70.726
1.6295,70.287
1.564,69.749
1.5142,69.114
1.478,68.479
1.4457,68.284
1.4184,69.359
1.3939,72.68
1.3715,79.03
1.349,87.919
1.3284,97.542
1.3099,105.7
1.2923,111.36
1.2747,115.37
1.2561,118.59
1.2356,121.57
1.219,124.11
1.2043,126.07
1.1877,127.43
1.172,127.97
1.1554,127.87
1.1398,127.14
1.1251,125.82
1.1095,123.92
1.0929,121.62
1.0762,118.94
1.0596,116.2
1.045,113.32
1.0371,110.29
1.0313,107.16
1.0205,103.84
1.0078,100.37
0.99218,96.907
0.97361,93.634
0.95112,90.557
0.92962,87.968
0.91496,86.063
0.91496,84.549
0.93939,83.377
0.99902,82.498
1.0997,81.863
1.218,81.423
1.3558,81.13
1.5327,80.739
1.7292,80.349
1.9267,80.055
2.1085,79.762
2.2649,79.421
2.393,79.127
2.4907,78.786
2.5591,78.492
2.6051,78.248
2.6325,78.053
2.6413,77.76
2.6354,77.32
2.6217,76.685
2.5963,76.197
2.5601,75.806
2.5112,75.415
2.4506,75.073
2.3812,74.634
2.306,74.194
2.2239,73.803
2.1359,73.413
2.045,72.875
1.9521,72.289
1.871,71.801
1.7977,71.41
1.7204,70.97
1.6442,70.531
1.5728,70.091
1.5112,69.603
1.4604,69.114
1.4194,68.626
1.3861,68.479
1.3597,69.554
1.3392,73.168
1.3226,80.251
1.3109,89.971
1.303,99.789
1.2933,107.16
1.2796,111.95
1.2639,115.32
1.2483,118.5
1.2307,121.67
1.2111,124.41
1.1906,126.56
1.1711,128.12
1.1525,128.85
1.132,128.61
1.1134,127.53
1.1017,125.97
1.0909,124.02
1.0772,121.72
1.0626,119.03
1.0508,116.1
1.0381,113.07
1.0254,109.85
1.0147,106.63
1.0293,103.31
1.0547,99.935
1.0587,96.565
1.0518,93.292
1.043,90.215
1.0342,87.724
1.0244,85.721
1.0254,84.305
1.0479,83.182
1.1026,82.253
1.1965,81.472
1.3284,80.935
1.4927,80.544
1.6784,80.153
1.87,79.811
2.0538,79.421
2.217,79.176
2.3402,78.981
2.4311,78.786
2.5103,78.492
2.5709,78.102
2.6129,77.662
2.6393,77.32
2.65,76.978
2.6461,76.636
2.6285,76.246
2.5992,75.806
2.5591,75.415
2.5083,75.073
2.4555,74.731
2.3988,74.341
2.3304,73.901
2.2532,73.608
2.1691,73.217
2.0792,72.778
1.9863,72.24
1.8954,71.752
1.8084,71.215
1.7263,70.824
1.651,70.287
1.5865,69.798
1.5318,69.163
1.4907,68.528
1.4585,67.991
1.4282,67.698
1.4008,67.991
1.3773,70.189
1.3578,75.415
1.3392,84.012
1.3216,93.927
1.304,102.47
1.2884,108.39
1.2727,112.44
1.2571,116
1.2463,119.42
1.2366,122.55
1.2219,125.04
1.2063,126.99
1.1887,128.26
1.1711,128.56
1.1554,127.87
1.1408,126.51
1.1271,124.7
1.1144,122.55
1.1017,120.06
1.088,117.13
1.0792,113.9
1.0723,110.63
1.0616,107.16
1.0479,103.74
1.0332,100.23
1.0186,96.76
1.002,93.341
0.98338,90.215
0.96285,87.626
0.9433,85.477
0.93157,83.865
0.93939,82.595
0.97556,81.667
1.0313,80.984
1.1153,80.544
1.2405,80.104
1.3978,79.762
1.5748,79.469
1.7556,79.323
1.9286,79.176
2.0821,78.981
2.2111,78.786
2.3138,78.541
2.3891,78.297
2.4418,78.102
2.4731,77.809
2.4878,77.467
2.4907,77.125
2.4809,76.783
2.4594,76.49
2.4272,76.197
2.3861,75.855
2.3353,75.464
2.2776,75.171
2.2121,74.78
2.1388,74.341
2.0596,73.803
1.9746,73.168
1.8974,72.68
1.827,72.192
1.7517,71.605
1.6764,70.97
1.6051,70.384
1.5406,69.798
1.4829,69.261
1.4321,68.626
1.3891,67.991
1.3529,67.6
1.3245,67.844
1.303,69.652
1.2893,74.097
1.2786,81.716
1.2669,91.387
1.2551,100.62
1.2424,107.6
1.2307,112.24
1.2199,115.66
1.2082,118.94
1.1955,122.01
1.1828,124.6
1.1701,126.51
1.1574,127.48
1.1437,127.63
1.1349,126.8
1.129,125.38
1.1173,123.43
1.1026,121.04
1.087,118.45
1.0714,115.57
1.0547,112.54
1.0381,109.41
1.0225,106.19
1.0078,102.72
0.99218,99.251
0.97361,95.783
0.9609,92.56
0.94819,89.629
0.92766,87.236
0.90811,85.379
0.89541,84.012
0.89541,82.986
0.91691,82.302
0.97067,81.716
1.0606,81.228
1.1867,80.886
1.3402,80.544
1.5103,80.251
1.6833,80.007
1.8299,79.665
1.9531,79.469
2.0704,79.372
