2.4936,78.346
2.4848,78.004
2.4721,77.613
2.4536,77.32
2.4291,77.027
2.3988,76.685
2.3627,76.246
2.3187,75.806
2.2678,75.415
2.2102,74.976
2.1476,74.341
2.0811,73.657
2.0127,72.973
1.9453,72.387
1.8807,71.752
1.8289,70.922
1.7869,69.994
1.7478,69.114
1.7155,68.919
1.6911,70.287
1.6755,74.78
1.6676,83.377
1.6637,94.66
1.6618,105.55
1.6598,113.12
1.6569,117.76
1.653,121.62
1.651,126.36
1.652,131.05
1.6549,134.17
1.6579,135.3
1.6628,135.01
1.6706,133.98
1.6784,132.42
1.6843,130.22
1.6882,127.53
1.6882,124.55
1.6833,121.28
1.6755,117.86
1.6657,114.25
1.6559,110.53
1.6461,106.92
1.6344,103.16
1.6207,99.251
1.6031,95.246
1.5806,91.436
1.5543,88.115
1.5024,85.428
1.4379,83.426
1.3969,82.058
1.3803,81.228
1.3998,80.739
1.4477,80.3
1.5288,79.909
1.6598,79.811
1.8299,79.86
2.0254,80.007
2.2268,80.007
2.4203,79.909
2.5904,79.909
2.7283,80.055
2.8319,80.104
2.9013,79.86
2.9433,79.421
2.9629,79.127
2.9648,78.883
2.9511,78.541
2.9267,78.053
2.8915,77.467
2.8456,77.027
2.7908,76.734
2.7283,76.343
2.6588,75.806
2.5855,75.171
2.5073,74.683
2.4242,74.243
2.3382,73.755
2.262,73.12
2.1916,72.533
2.1153,72.045
2.0391,71.508
1.9697,70.873
1.9071,70.091
1.8524,69.407
1.8065,69.163
1.7693,69.945
1.741,72.924
1.7224,79.616
1.7116,90.117
1.7087,101.74
1.7107,111.12
1.7136,116.88
1.7175,120.74
1.7214,124.94
1.7214,129.93
1.7185,134.17
1.7107,136.42
1.6979,136.81
1.6794,136.08
1.6569,134.86
1.6315,133.25
1.6061,130.95
1.5855,127.97
1.5699,124.85
1.5523,121.72
1.5337,118.5
1.5152,115.08
1.4966,111.32
1.477,107.41
1.4555,103.55
1.433,99.789
1.4086,96.174
1.3793,92.657
1.3451,89.629
1.3157,87.187
1.2903,85.477
1.2649,84.354
1.2551,83.572
1.2766,82.791
1.3392,82.253
1.4487,81.863
1.6031,81.716
1.7908,81.716
1.9961,81.814
2.1994,81.814
2.3822,81.716
2.5357,81.618
2.6442,81.423
2.7175,81.179
2.7742,80.739
2.8123,80.251
2.8309,79.665
2.8328,79.176
2.8201,78.737
2.7937,78.297
2.7566,77.76
2.7097,77.223
2.6549,76.734
2.5953,76.343
2.5367,76.001
2.478,75.415
2.4096,74.683
2.3353,73.901
2.259,73.217
2.1828,72.778
2.1085,72.436
2.0371,71.996
1.9707,71.41
1.9101,70.824
1.8563,70.238
1.8094,69.652
1.7703,69.407
1.7439,69.994
1.7243,72.729
1.7067,79.127
1.6931,89.189
1.6843,100.42
1.6784,109.66
1.6745,115.61
1.6696,119.62
1.6647,123.92
1.6598,128.95
1.653,133.49
1.6422,136.08
1.6334,136.62
1.6256,135.88
1.6149,134.66
1.6012,133.05
1.5875,130.76
1.5728,127.87
1.5562,124.6
1.5386,121.23
1.52,117.86
1.5015,114.34
1.4829,110.68
1.4653,106.92
1.4497,103.11
1.4389,99.251
1.4311,95.49
1.4203,91.876
1.4066,88.603
1.39,85.966
1.3754,84.061
1.3685,82.742
1.3832,81.863
1.4321,81.374
1.523,80.935
1.6559,80.69
1.826,80.495
1.9951,80.349
2.1642,80.251
2.3548,80.104
2.5396,80.055
2.7038,80.007
2.8387,79.909
2.9404,79.762
3.0108,79.567
3.0577,79.225
3.086,78.883
3.0978,78.346
3.0968,77.662
3.0831,77.027
3.0596,76.441
3.0264,75.855
2.9814,75.318
2.9247,74.731
2.8563,74.243
2.7771,73.755
2.6891,73.217
2.5963,72.729
2.5005,72.24
2.4047,71.654
2.3128,71.068
2.2248,70.482
2.1515,69.945
2.0919,69.31
2.0362,68.675
1.9892,67.942
1.9531,67.551
1.9247,68.04
1.9052,70.824
1.8905,77.125
1.8788,86.991
1.868,98.323
1.8583,107.75
1.8485,113.9
1.8387,117.91
1.8309,122.06
1.825,126.95
1.8172,131.39
1.8074,134.08
1.7947,134.66
1.7761,133.93
1.7537,132.56
1.7283,130.66
1.6989,128.36
1.6676,125.48
1.6354,122.26
1.6041,118.94
1.5806,115.47
1.5601,111.95
1.5357,108.24
1.5103,104.48
1.4858,100.67
1.4633,96.858
1.4409,92.999
1.4184,89.287
1.3949,86.063
1.3715,83.426
1.3519,81.57
1.3451,80.153
1.3627,79.176
1.4018,78.492
1.4682,78.199
1.5787,78.053
1.7312,78.004
1.9159,77.858
2.1163,77.809
2.3157,77.809
2.4995,77.858
2.6569,77.906
2.7801,77.906
2.8729,77.809
2.9384,77.613
2.9756,77.369
2.9941,77.027
3.001,76.734
2.9951,76.343
2.9765,75.904
2.9462,75.366
2.9042,74.878
2.8514,74.487
2.7889,74.048
2.7185,73.559
2.6393,72.973
2.5533,72.485
2.4614,71.996
2.3773,71.41
2.2991,70.824
2.2121,70.091
2.1241,69.505
2.0411,68.87
1.9687,68.186
1.9101,67.503
1.8641,66.819
1.8299,66.379
1.8035,66.965
1.783,69.945
1.7654,76.636
1.7517,86.845
1.7429,98.225
1.7341,107.51
1.7234,113.32
1.7116,117.13
1.7019,121.04
1.6911,125.63
1.6794,129.68
1.6676,131.93
1.6549,132.17
1.6413,131.1
1.6246,129.49
1.609,127.48
1.5943,124.94
1.521,121.87
1.4154,118.59
1.3431,115.37
1.2884,112.1
1.2434,108.68
1.2043,105.06
1.1711,101.3
1.1408,97.591
1.1124,93.927
1.0841,90.313
1.0547,86.845
1.0323,83.914
1.0147,81.863
0.99609,80.544
0.98436,79.811
0.9912,79.323
1.0283,78.786
1.1056,78.492
1.2297,78.346
1.3988,78.444
1.6002,78.444
1.8162,78.444
2.0293,78.492
2.2023,78.59
2.3402,78.59
2.4633,78.492
2.5611,78.297
2.6325,78.199
2.6784,77.858
2.7028,77.467
2.7087,76.978
2.696,76.49
2.6686,76.05
2.6276,75.562
2.5709,74.927
2.4995,74.292
2.4272,73.852
2.3519,73.413
2.2639,72.875
2.1672,72.24
2.0635,71.605
1.9589,71.068
1.8583,70.482
1.7615,69.847
1.6716,69.163
1.5924,68.528
1.5269,68.04
1.4751,67.6
1.4399,67.112
1.4174,67.307
1.4008,69.798
1.392,76.197
1.3851,86.405
1.3763,97.981
1.3666,107.41
1.3568,113.37
1.347,117.03
1.3343,120.79
1.3177,125.04
1.3001,128.8
1.2786,130.85
1.259,130.95
1.2414,129.73
1.2199,127.97
1.1955,126.07
1.1691,123.72
1.1437,120.89
1.1183,117.67
1.0948,114.44
1.0723,111.17
1.0528,107.85
1.0362,104.28
1.0215,100.62
1.0117,97.004
1.0059,93.536
0.99511,90.117
0.98045,86.845
0.96285,84.061
0.9433,82.107
0.92864,80.935
0.92571,80.251
0.94135,79.665
0.9912,79.176
1.085,78.932
1.2278,78.981
1.4154,79.03
1.6051,78.981
1.7947,78.932
2.0078,78.981
2.2151,79.127
2.3978,79.176
2.5464,79.03
2.6559,78.883
2.7263,78.541
2.7644,78.199
2.7781,77.564
2.7752,76.881
2.7586,76.197
2.7341,75.611
2.7028,75.073
2.6618,74.438
2.6129,73.803
2.5552,73.315
2.4897,72.875
2.4184,72.387
2.3412,71.801
2.26,71.117
2.1769,70.531
2.0958,70.091
2.0205,69.652
1.9492,69.261
1.8905,68.821
1.8416,68.284
1.7918,67.796
1.7458,67.258
1.7028,66.916
1.6608,67.6
1.6197,70.677
1.5816,77.32
1.5484,87.431
1.5191,98.616
1.4927,107.7
1.4663,113.32
1.4457,116.98
1.4291,120.74
1.4106,125.19
1.393,129.19
1.3754,131.29
1.3578,131.54
1.3402,130.61
1.3206,129.29
1.3001,127.68
1.2757,125.48
1.2502,122.79
1.2229,119.77
1.1955,116.74
1.174,113.61
1.1564,110.29
1.1349,106.82
1.1114,103.26
1.089,99.691
1.0674,96.174
1.0459,92.657
1.0244,89.238
1,86.356
0.97263,84.256
0.94721,82.791
0.93548,81.667
0.94526,80.739
0.9824,80.104
1.0616,79.762
1.1896,79.567
1.3636,79.372
1.5748,79.127
1.8065,78.932
2.0391,78.786
2.2561,78.786
2.4448,78.59
2.5992,78.444
2.7204,78.199
2.8133,77.858
2.8729,77.467
2.9091,76.978
2.9326,76.49
2.9404,76.05
2.9345,75.562
2.914,74.976
2.8759,74.341
2.8231,73.755
2.7556,73.315
2.6755,72.875
2.5855,72.436
2.4848,71.801
2.391,71.215
2.3001,70.726
2.1965,70.287
2.088,69.847
1.9824,69.407
1.8866,68.919
1.8016,68.431
1.7312,67.844
1.6784,67.307
1.6422,66.965
1.6178,67.844
1.6022,71.361
1.5904,78.492
1.5816,88.799
1.5738,99.691
1.5611,108.04
1.5425,113.17
1.5171,116.69
1.4848,120.45
1.4497,124.7
1.4164,128.31
1.3842,130.17
1.3558,130.36
1.3314,129.49
1.3089,128.26
1.2933,126.56
1.2825,124.36
1.2717,121.67
1.263,118.69
1.2571,115.61
1.2542,112.39
1.2542,108.92
1.2551,105.41
1.2561,101.94
1.2542,98.372
1.2463,94.758
1.2356,91.29
1.218,88.115
1.2004,85.379
1.1848,83.279
1.1681,81.814
1.1613,80.739
1.1779,80.007
1.2336,79.421
1.3412,79.03
1.5044,78.883
1.7175,78.737
1.9658,78.59
2.2278,78.541
2.4819,78.492
2.6862,78.346
2.8465,78.199
2.9883,78.004
3.0978,77.76
3.173,77.418
3.2151,76.929
3.2326,76.343
3.2287,75.806
3.2043,75.22
3.1632,74.731
3.1085,74.194
3.042,73.608
2.9746,73.12
2.9052,72.631
2.826,72.094
2.7429,71.508
2.6569,70.922
2.5728,70.384
2.4917,69.847
2.4145,69.359
2.3431,68.87
2.2815,68.382
2.2307,67.844
2.1906,67.356
2.1623,66.721
2.1417,66.184
2.1271,65.988
2.1173,67.063
2.1095,70.873
2.0987,78.346
2.085,88.847
2.0665,99.544
2.043,107.55
1.999,112.44
1.9453,115.91
1.9032,119.77
1.868,123.82
1.8407,127.04
1.8182,128.56
1.7977,128.51
1.7801,127.53
1.7654,126.12
1.7507,124.26
1.737,121.82
1.7243,118.94
1.7116,115.91
1.6989,112.73
1.6852,109.51
1.6735,106.04
1.6637,102.57
1.6569,99.105
1.651,95.637
1.6432,91.925
1.6354,88.359
1.6246,85.135
1.61,82.498
1.5924,80.544
1.5767,79.176
1.5728,78.199
1.5924,77.467
1.6471,77.174
1.7468,77.027
1.8651,76.978
2.0068,76.881
2.1955,76.783
2.4096,76.783
2.6246,76.783
2.8231,76.783
2.9892,76.685
3.1173,76.441
3.2082,76.197
3.2659,75.904
3.2942,75.611
3.3011,75.171
3.2903,74.536
3.2669,73.999
3.2336,73.559
3.1906,73.12
3.1369,72.68
3.0743,72.192
3.002,71.605
2.9198,71.166
2.8309,70.726
2.7361,70.287
2.6354,69.749
2.5318,69.114
2.4282,68.479
2.3372,67.991
2.2561,67.551
2.174,67.112
2.0997,66.526
2.0362,65.842
1.9853,65.256
1.9453,65.158
1.914,66.623
1.8866,70.97
1.8612,79.225
1.8368,90.166
1.8123,100.67
1.7898,108.09
1.7713,112.44
1.7546,115.57
1.7351,119.18
1.7146,122.94
1.695,125.58
1.6764,126.36
1.6559,125.68
1.6334,124.31
1.609,122.6
1.5816,120.55
1.5523,118.01
1.522,115.08
1.4976,112.05
1.4751,109.07
1.4497,105.94
1.4223,102.67
1.3959,99.349
1.3724,95.93
1.3519,92.511
1.3333,89.092
1.3148,85.917
1.2962,83.23
1.2786,81.228
1.263,79.909
1.2532,79.03
1.2551,78.444
1.2747,77.906
1.3245,77.564
1.4125,77.223
1.5435,77.027
1.7126,77.027
1.9071,77.125
2.1105,77.125
2.306,77.125
2.4761,76.978
2.6119,76.929
2.7087,76.783
2.7654,76.49
2.7928,76.099
2.8025,75.66
2.7957,75.171
2.7742,74.683
2.741,74.194
2.6979,73.657
2.6471,73.168
2.5875,72.729
2.523,72.192
2.4526,71.654
2.3783,71.166
2.3001,70.726
2.2287,70.287
2.1603,69.798
2.085,69.261
2.0059,68.675
1.9296,68.089
1.8612,67.503
1.8016,66.916
1.7507,66.379
1.7126,65.94
1.6862,66.037
1.6686,67.747
1.6588,72.533
1.6549,81.374
1.654,92.608
1.654,103.01
1.653,110
1.6491,113.86
1.6413,116.93
1.6305,120.45
1.6158,123.82
1.6002,125.72
1.5836,125.82
1.565,124.75
1.5435,123.38
1.522,121.72
1.5054,119.67
1.4888,117.18
1.4673,114.44
1.4438,111.66
1.4223,108.87
1.4027,105.85
1.3851,102.62
1.3705,99.349
1.3617,96.125
1.3568,92.755
1.3539,89.287
1.349,85.966
1.3451,83.23
1.3421,81.179
1.3363,79.811
1.3304,78.932
1.3333,78.444
1.3578,78.199
1.4164,78.004
1.5152,77.809
1.6579,77.662
1.8387,77.564
2.043,77.564
2.2551,77.467
2.4555,77.418
2.6109,77.32
2.7312,77.125
2.8377,76.929
2.9218,76.539
2.9804,76.05
3.0186,75.464
3.0381,74.976
3.0411,74.438
3.0293,73.852
3.0059,73.315
2.9697,72.778
2.9218,72.387
2.869,71.85
2.8104,71.361
2.741,70.824
2.6628,70.384
2.5806,69.945
2.4966,69.407
2.4125,68.87
2.3304,68.382
2.2512,67.991
2.1799,67.6
2.1173,67.112
2.0645,66.477
2.0196,65.94
1.9844,65.549
1.958,65.842
1.9365,67.844
1.9169,73.12
1.8983,82.302
1.8807,93.683
1.8631,103.6
1.8456,110.09
1.828,113.86
1.8123,117.23
1.7977,121.18
1.7801,124.8
1.7634,126.85
1.7478,127.19
1.7283,126.56
1.7048,125.48
1.6764,124.02
1.6452,122.01
1.6129,119.62
1.5806,116.98
1.5513,114.25
1.5259,111.22
1.5024,108.09
1.4819,104.92
1.4692,101.69
1.4594,98.372
1.4487,94.904
1.4379,91.534
1.4262,88.359
1.4145,85.575
1.4008,83.23
1.3881,81.618
1.3842,80.593
1.3978,80.007
1.4399,79.421
1.521,78.932
1.6461,78.688
1.7849,78.59
1.9423,78.59
2.1408,78.444
2.3539,78.199
2.5582,78.053
2.738,78.004
2.8827,77.809
2.9883,77.369
3.0567,76.978
3.0948,76.636
3.1105,76.197
3.1114,75.611
3.0997,74.927
3.0772,74.341
3.0479,73.852
3.0108,73.364
2.9648,72.778
2.9101,72.289
2.8446,71.801
2.7703,71.361
2.6891,70.873
2.6022,70.287
2.5112,69.749
2.4203,69.359
2.3314,68.919
2.2561,68.431
2.1906,67.844
2.0587,67.307
1.9022,66.868
1.8084,66.379
1.7488,65.94
1.7097,66.379
1.6843,68.919
1.6667,75.073
1.652,84.598
1.6364,95.539
1.6197,104.67
1.6031,110.53
1.5855,114.2
1.564,117.57
1.5406,121.28
1.5142,124.6
1.4868,126.51
1.4585,126.56
1.4311,125.68
1.4047,124.41
1.3812,122.94
1.3617,120.94
1.3431,118.3
1.3255,115.42
1.3118,112.54
1.3001,109.66
1.2854,106.63
1.2688,103.35
1.2532,99.984
1.2366,96.76
1.218,93.488
1.1984,90.166
1.1799,86.943
1.1623,84.256
1.1437,82.351
1.1261,81.13
1.1163,80.153
1.1212,79.372
1.1496,78.883
1.2141,78.59
1.3236,78.444
1.4761,78.248
1.6618,78.004
1.868,77.858
2.0762,77.662
2.2688,77.467
2.4321,77.174
2.5582,76.881
2.6471,76.539
2.697,76.246
2.7204,75.757
2.7312,75.171
2.7292,74.634
2.7155,74.048
2.6931,73.559
2.6628,72.924
2.6227,72.387
2.5728,71.85
2.5122,71.41
2.4409,70.922
2.3597,70.433
2.2805,69.994
2.2023,69.554
2.1144,69.163
2.0254,68.675
1.9384,68.186
1.8573,67.796
1.784,67.356
1.7224,66.916
1.6706,66.281
1.6285,65.695
1.5934,65.5
1.567,66.526
1.5484,70.091
1.5337,77.32
1.52,87.626
1.5054,98.323
1.4888,106.38
1.4702,111.17
1.4506,114.3
1.4311,117.62
1.4135,121.28
1.3959,124.11
1.3793,125.19
1.3617,124.8
1.3421,123.87
1.3265,122.6
1.3118,120.79
1.2923,118.45
1.2727,115.81
1.2522,113.12
1.2307,110.44
1.2092,107.41
1.1877,104.23
1.1681,101.01
1.1496,97.786
1.132,94.562
1.1153,91.094
1.0968,87.822
1.0802,84.94
1.0645,82.693
1.0469,81.032
1.0313,79.86
1.0244,79.03
1.0362,78.492
1.0753,78.102
1.1525,77.858
1.2737,77.662
1.436,77.467
1.6276,77.418
1.8309,77.32
2.0059,77.174
2.1535,76.929
2.2952,76.685
2.4135,76.441
2.5024,76.099
2.563,75.562
2.6002,74.976
2.6188,74.487
2.6217,74.048
2.6109,73.559
2.5875,72.924
2.5523,72.387
2.5054,71.947
2.4545,71.508
2.3969,71.068
2.3265,70.531
2.2444,70.091
2.1564,69.652
2.0645,69.261
1.9726,68.724
1.8827,68.235
1.7967,67.747
1.7185,67.356
1.65,66.916
1.5924,66.428
1.5494,65.793
1.5171,65.305
1.4878,65.158
1.4643,66.281
1.4457,69.994
1.4301,77.418
1.4145,87.871
1.3988,98.47
1.3822,106.28
1.3656,110.88
1.35,113.9
1.3333,117.18
1.3157,120.69
1.3011,123.23
1.2874,124.11
1.2698,123.62
1.2512,122.5
1.2317,121.04
1.2111,119.18
1.1906,116.74
1.1711,114
1.1525,111.17
1.1339,108.24
1.1144,105.26
1.0929,101.99
1.0762,98.665
1.0606,95.344
1.044,91.973
1.0274,88.603
1.0098,85.428
0.9912,82.595
0.97165,80.544
0.95308,79.176
0.93744,78.199
0.93255,77.418
0.95112,76.881
1.0029,76.539
1.0772,76.441
1.1818,76.441
1.3343,76.343
1.523,76.246
1.7292,76.197
1.9335,76.099
2.1173,76.001
2.2678,75.757
2.3812,75.464
2.4594,75.171
2.5064,74.78
2.5288,74.341
2.5337,73.803
2.5259,73.217
2.5083,72.729
2.4819,72.192
2.4477,71.654
2.4047,71.215
2.3529,70.873
2.2913,70.433
2.219,70.042
2.1378,69.603
2.0508,69.114
1.9589,68.626
1.8651,68.089
1.783,67.6
1.7107,67.112
1.6364,66.526
1.567,65.94
1.5064,65.353
1.4555,64.816
1.4154,64.425
1.3851,64.572
1.3617,66.477
1.3412,71.654
1.3226,80.69
1.305,91.632
1.2893,101.3
1.2776,107.7
1.2649,111.22
1.2483,114.05
1.2287,117.32
1.2063,120.25
1.1808,121.67
1.1564,121.48
1.132,120.3
1.1075,118.74
1.0821,116.93
1.0587,114.64
1.0362,111.85
1.0205,108.97
1.0068,106.19
0.99022,103.31
0.97165,100.23
0.9521,97.004
0.93157,93.732
0.91202,90.41
0.89541,87.187
0.87977,84.11
0.86315,81.472
2.3226,71.215
2.2864,70.726
2.219,70.287
2.1457,69.749
2.0674,69.261
1.9785,68.724
1.8886,68.284
1.8035,67.844
1.7263,67.356
1.6608,66.868
1.607,66.379
1.566,65.988
1.5367,65.842
1.5181,66.526
1.5064,69.652
1.5005,76.636
1.4976,86.845
1.4946,97.737
1.4897,105.99
1.4819,110.88
1.4721,114
1.4604,117.03
1.4487,120.35
1.434,122.79
1.4164,123.58
1.3978,122.94
1.3803,121.67
1.3636,120.16
1.3509,118.35
1.3402,116.1
1.3255,113.51
1.3089,110.88
1.2923,108.24
1.2757,105.55
1.261,102.57
1.2512,99.447
1.2424,96.321
1.2356,93.097
1.2297,89.971
1.2239,86.943
1.2199,84.256
1.216,82.253
1.2072,80.935
1.1984,80.055
1.1965,79.469
1.2111,79.03
1.2551,78.688
1.3372,78.492
1.4633,78.297
1.6305,78.102
1.8299,77.858
2.0479,77.662
2.262,77.564
2.435,77.467
2.5709,77.223
2.695,76.929
2.7928,76.49
2.8622,76.05
2.9052,75.66
2.9267,75.171
2.9296,74.536
2.9189,73.901
2.8954,73.315
2.8612,72.875
2.8162,72.436
2.7654,71.947
2.7067,71.361
2.6364,70.922
2.5552,70.482
2.4653,70.091
2.3705,69.603
2.2757,69.114
2.1818,68.626
2.0919,68.235
2.0108,67.942
1.9404,67.551
1.8807,66.965
1.8338,66.379
1.8006,65.842
1.7771,65.842
1.7566,67.258
1.74,71.508
1.7263,79.616
1.7126,90.606
1.6999,101.35
1.6872,108.97
1.6745,113.32
1.6608,116.44
1.6452,120.01
1.6295,123.67
1.6168,126.16
1.6051,126.95
1.5904,126.36
1.5748,125.38
1.5591,124.16
1.5425,122.6
1.5269,120.5
1.5132,117.91
1.4976,115.22
1.48,112.49
1.4594,109.56
1.436,106.43
1.4125,103.26
1.3969,99.984
1.3842,96.662
1.3695,93.439
1.3539,90.215
1.3382,87.284
1.3216,84.94
1.306,83.133
1.2952,81.863
1.2972,81.032
1.3216,80.544
1.3822,80.104
1.4878,79.762
1.61,79.567
1.7566,79.469
1.9521,79.421
2.1711,79.323
2.391,79.03
2.5924,78.737
2.7605,78.492
2.8915,78.248
2.9863,77.809
3.0479,77.32
3.0841,76.734
3.0997,76.197
3.0978,75.66
3.0841,75.122
3.0635,74.536
3.0342,73.999
2.9971,73.413
2.9501,73.071
2.8935,72.631
2.828,72.24
2.7537,71.752
2.6716,71.166
2.5826,70.726
2.4878,70.287
2.391,69.847
2.306,69.407
2.2307,68.919
2.1535,68.479
2.0802,67.991
2.0156,67.405
1.9609,66.916
1.9169,66.965
1.8827,68.87
1.8563,74.097
1.8348,83.035
1.8152,94.123
1.7977,103.99
1.783,110.63
1.7683,114.54
1.7507,117.76
1.7312,121.28
1.7107,124.55
1.6901,126.41
1.6696,126.6
1.651,125.92
1.6344,124.94
1.6188,123.58
1.6041,121.67
1.5885,119.33
1.5718,116.79
1.5582,114.25
1.5455,111.56
1.5288,108.63
1.5093,105.41
1.4897,102.18
1.4692,98.909
1.4487,95.686
1.4282,92.315
1.4086,88.945
1.3891,85.966
1.3695,83.816
1.3529,82.351
1.3441,81.423
1.3451,80.69
1.3646,80.055
1.4154,79.616
1.5073,79.421
1.6461,79.323
1.826,79.176
2.0352,78.932
2.2532,78.688
2.4614,78.492
2.6442,78.297
2.7918,78.102
2.9032,77.662
2.9736,77.174
3.0137,76.636
3.0401,76.099
3.0528,75.562
3.0567,74.976
3.0518,74.341
3.0371,73.803
3.0088,73.315
2.9687,72.875
2.9169,72.485
2.8524,71.996
2.7761,71.557
2.6979,71.117
2.6168,70.726
2.523,70.384
2.4233,69.847
2.3226,69.31
2.2248,68.821
2.1359,68.382
2.0577,67.942
1.9912,67.503
1.9374,66.916
1.8964,66.623
1.8631,67.258
1.8338,70.238
1.8094,76.881
1.7898,86.747
1.7693,97.591
1.7488,106.38
1.7283,111.85
1.7077,115.32
1.6862,118.54
1.6628,122.06
1.6383,124.85
1.6139,126.07
1.5885,125.82
1.564,124.85
1.5435,123.67
1.5249,122.11
1.5034,120.06
1.4829,117.67
1.4614,115.13
1.4409,112.44
1.4203,109.51
1.3998,106.43
1.3803,103.16
1.3607,99.935
1.3412,96.614
1.3226,93.243
1.305,89.922
1.2923,86.845
1.2815,84.354
1.2688,82.547
1.2581,81.277
1.2522,80.544
1.262,79.909
1.2991,79.469
1.3744,79.176
1.4946,79.03
1.6569,78.981
1.8524,78.786
2.0674,78.59
2.2561,78.346
2.4194,78.199
2.5777,77.906
2.6804,77.613
2.7361,77.174
2.7859,76.734
2.8201,76.294
2.8397,75.806
2.8456,75.318
2.8397,74.78
2.8221,74.194
2.7937,73.608
2.7537,73.071
2.7077,72.533
2.654,72.094
2.5846,71.654
2.5024,71.312
2.4115,70.873
2.3118,70.433
2.2082,69.994
2.1065,69.554
2.0088,69.114
1.9179,68.626
1.8387,68.089
1.7693,67.6
1.7155,67.112
1.6735,66.623
1.6354,66.672
1.6041,68.186
1.5787,72.729
1.5562,81.032
1.5337,91.778
1.5122,101.99
1.4917,109.17
1.4721,113.42
1.4545,116.54
1.436,119.86
1.4154,123.14
1.3978,125.19
1.3822,125.63
1.3636,124.85
1.3431,123.72
1.3216,122.31
1.3001,120.5
1.2786,118.2
1.2571,115.66
1.2346,112.98
1.2102,110.24
1.1848,107.26
1.1613,104.04
1.1457,100.72
1.1329,97.444
1.1183,94.074
1.1026,90.655
1.087,87.48
1.0723,84.842
1.0587,82.84
1.0459,81.57
1.0362,80.593
1.0401,79.86
1.0684,79.225
1.1329,78.883
1.2414,78.59
1.3685,78.444
1.52,78.199
1.7155,77.906
1.9335,77.613
2.1505,77.369
2.348,77.027
2.5152,76.734
2.6442,76.343
2.7361,75.904
2.7977,75.464
2.8338,74.976
2.8504,74.487
2.8504,73.901
2.8377,73.413
2.8152,72.973
2.7801,72.485
2.7312,72.045
2.6676,71.605
2.5914,71.215
2.5054,70.873
2.4076,70.482
2.3011,70.042
2.1887,69.652
2.0762,69.163
1.9677,68.724
1.8768,68.235
1.8006,67.698
1.7273,67.112
1.6618,66.526
1.6061,65.988
1.5611,65.549
1.5249,65.695
1.4966,67.6
1.4761,72.729
1.4604,81.667
1.4457,92.804
1.4301,102.82
1.4154,109.36
1.3998,113.12
1.3793,116.1
1.3568,119.42
1.3353,122.45
1.3118,124.02
1.2884,123.87
1.2649,122.79
1.2395,121.43
1.2141,119.81
1.1887,117.76
1.1632,115.22
1.1437,112.54
1.1261,109.85
1.1046,107.12
1.0802,104.18
1.0557,101.06
1.0313,97.786
1.0088,94.562
0.98631,91.29
0.96383,88.164
0.94233,85.379
0.91984,83.182
0.89638,81.716
0.87488,80.886
0.86217,80.3
0.86217,79.811
0.88074,79.421
0.93157,79.176
1.0274,78.981
1.172,78.786
1.3627,78.59
1.5865,78.444
1.8221,78.248
2.0489,78.053
2.2502,77.809
2.4125,77.564
2.521,77.174
2.5885,76.734
2.6344,76.294
2.6588,75.806
2.6667,75.318
2.6628,74.878
2.6461,74.487
2.6188,74.097
2.5816,73.755
2.5337,73.364
2.4741,72.973
2.4008,72.631
2.3148,72.24
2.2307,71.801
2.1457,71.312
2.0469,70.824
1.9443,70.238
1.8426,69.652
1.7468,69.114
1.6598,68.528
1.5846,67.991
1.521,67.551
1.4712,67.258
1.4321,67.844
1.4018,70.824
1.3812,77.564
1.3666,87.724
1.3539,98.665
1.3421,107.31
1.3304,112.44
1.3196,115.57
1.3079,118.54
1.2952,121.82
1.2815,124.16
1.2659,124.8
1.2493,124.11
1.2317,122.84
1.2131,121.43
1.1994,119.77
1.1887,117.47
1.174,114.98
1.1574,112.39
1.1378,109.8
1.1173,106.97
1.0968,103.94
1.0762,100.72
1.0587,97.542
1.043,94.318
1.0293,91.094
1.0156,88.115
1.0059,85.575
0.99707,83.719
0.9824,82.595
0.96676,81.912
0.95699,81.423
0.9609,81.13
0.99218,80.886
1.0616,80.69
1.1769,80.495
1.3372,80.3
1.5386,80.055
1.7654,79.762
1.9961,79.469
2.1867,79.225
2.3412,78.932
2.4839,78.541
2.5982,78.102
2.6833,77.662
2.741,77.125
2.7742,76.539
2.7869,76.001
2.7849,75.415
2.7693,74.878
2.74,74.292
2.6979,73.803
2.6491,73.315
2.5934,72.875
2.5259,72.436
2.4477,71.996
2.3607,71.508
2.2678,71.068
2.172,70.531
2.0753,70.091
1.9824,69.749
1.8964,69.31
1.8192,68.87
1.7537,68.284
1.6989,67.747
1.6588,67.307
1.6305,67.503
1.608,69.505
1.5894,74.731
1.5728,83.914
1.5562,95.295
1.5396,105.55
1.523,112.39
1.5073,116.25
1.4907,119.37
1.4761,122.79
1.4624,126.07
1.4506,127.87
1.4389,128.07
1.4242,127.29
1.4086,126.36
1.392,125.24
1.3744,123.67
1.3558,121.72
1.3372,119.47
1.3196,117.03
1.3021,114.44
1.2845,111.61
1.2678,108.63
1.2512,105.41
1.2405,102.18
1.2317,98.86
1.2209,95.344
1.2082,91.876
1.1945,88.701
1.1799,86.063
1.1642,84.158
1.1525,82.986
1.1515,82.253
1.2131,81.814
1.3294,81.472
1.4624,81.228
1.6002,81.13
1.7546,80.984
1.9521,80.788
2.172,80.593
2.392,80.446
2.5914,80.153
2.7595,79.909
2.8925,79.616
2.9902,79.127
3.0587,78.59
3.1056,78.102
3.1378,77.467
3.1584,76.783
3.1632,76.099
3.1544,75.464
3.1378,74.927
3.1075,74.438
3.0626,73.999
3.0029,73.559
2.9286,73.12
2.8416,72.729
2.7449,72.24
2.6403,71.654
2.5308,71.166
2.4223,70.677
2.3265,70.238
2.2414,69.749
2.1554,69.261
2.0772,68.821
2.0108,68.284
1.955,68.089
1.912,68.87
1.8778,71.947
1.8485,78.688
1.8221,88.701
1.7967,99.691
1.7722,108.53
1.7498,114.2
1.7302,117.76
1.7136,121.04
1.694,124.6
1.6745,127.43
1.654,128.61
1.6334,128.36
1.6129,127.48
1.5894,126.51
1.565,125.19
1.5406,123.43
1.5161,121.23
1.4956,118.89
1.4809,116.35
1.4673,113.76
1.4497,110.88
1.4301,107.8
1.4106,104.58
1.391,101.25
1.3734,97.737
1.3568,94.22
1.3402,90.997
1.3236,88.164
1.3069,86.112
1.2913,84.696
1.2815,83.719
1.2854,83.035
1.3109,82.498
1.3705,82.107
1.4751,81.912
1.6285,81.716
1.8231,81.472
2.0459,81.228
2.2786,80.935
2.4985,80.593
2.6882,80.3
2.8416,79.86
2.958,79.421
3.0313,78.932
3.0753,78.346
3.1075,77.76
3.1271,77.125
3.1339,76.49
3.131,75.855
3.1183,75.318
3.0938,74.78
3.0567,74.292
3.0068,73.852
2.9433,73.413
2.868,73.071
2.7898,72.68
2.7058,72.24
2.608,71.801
2.5054,71.215
2.4027,70.726
2.304,70.238
2.2121,69.847
2.13,69.407
2.0587,68.919
2.001,68.431
1.9541,68.235
1.9159,69.359
1.8847,73.168
1.8602,80.886
1.8387,91.534
1.8152,102.43
1.7898,110.53
1.7625,115.47
1.7361,118.79
1.7097,122.11
1.6823,125.43
1.6559,127.68
1.6305,128.31
1.6051,127.73
1.5797,126.8
1.5582,125.72
1.5386,124.31
1.5161,122.45
1.4936,120.25
1.4721,117.81
1.4506,115.22
1.4282,112.44
1.4027,109.36
1.3773,106.19
1.3539,102.91
1.3324,99.544
1.3128,96.125
1.2962,92.755
1.2845,89.678
1.2747,87.236
1.262,85.477
1.2502,84.305
1.2454,83.475
1.2581,82.84
1.2991,82.351
1.3803,82.058
1.5093,81.863
1.6862,81.618
1.8974,81.374
2.1261,81.032
2.3226,80.739
2.4917,80.446
2.6579,80.007
2.7996,79.469
2.9101,78.981
2.9892,78.492
3.042,77.906
3.0743,77.369
3.0899,76.734
3.0929,76.246
3.0831,75.66
3.0616,75.171
3.0244,74.683
2.9785,74.194
2.9247,73.657
2.8583,73.217
2.781,72.778
2.6931,72.387
2.5963,71.947
2.4966,71.508
2.3949,71.068
2.2942,70.531
2.1984,70.042
2.1124,69.554
2.0362,69.066
1.9746,68.626
1.9257,68.089
1.8798,67.844
1.8377,68.431
1.8006,71.166
1.7683,77.467
1.74,87.382
1.7146,98.47
1.6882,107.7
1.6608,113.51
1.6354,116.98
1.6129,120.16
1.5924,123.62
1.5767,126.41
1.563,127.68
1.5455,127.48
1.5239,126.6
1.5015,125.63
1.479,124.31
1.4545,122.5
1.4301,120.25
1.4057,117.81
1.3832,115.17
1.3617,112.39
1.3431,109.31
1.3294,106.14
1.3157,102.87
1.2981,99.544
1.2815,96.125
1.263,92.755
1.2434,89.629
1.2239,87.04
1.2053,85.233
1.1896,84.012
1.1818,83.133
1.1896,82.449
1.2258,81.863
1.303,81.423
1.4018,81.13
1.5298,80.886
1.7087,80.544
1.9218,80.153
2.1496,79.811
2.3695,79.421
2.566,78.981
2.7292,78.541
2.8553,78.053
2.9472,77.467
3.0098,76.929
3.0469,76.343
3.0616,75.806
3.0616,75.171
3.0538,74.536
3.0362,73.901
3.0059,73.364
2.9619,72.875
2.9032,72.436
2.8309,72.045
2.7449,71.654
2.6481,71.312
2.5455,70.922
2.4389,70.531
2.3314,70.091
2.2375,69.652
2.1535,69.261
2.0665,68.724
1.9834,68.284
1.9081,67.844
1.8416,67.356
1.7859,66.916
1.741,66.672
1.7038,67.405
1.6716,70.677
1.6432,77.613
1.6178,88.066
1.5963,99.3
1.5748,108.19
1.5474,113.51
1.5181,116.69
1.4878,119.77
1.4585,122.99
1.4291,125.43
1.4018,126.16
1.3763,125.63
1.3519,124.55
1.3275,123.38
1.3021,121.91
1.2766,119.91
1.2571,117.62
1.2395,115.13
1.217,112.49
1.1476,109.66
1.0577,106.63
1.002,103.5
0.96383,100.33
0.93548,97.053
0.913,93.683
0.89247,90.362
0.8739,87.431
0.8563,85.233
0.84457,83.865
0.83578,82.986
0.82698,82.449
0.82991,81.863
0.85826,81.472
0.92473,81.179
1.0401,80.935
1.2033,80.739
1.4076,80.495
1.6383,80.153
1.8739,79.909
2.0948,79.762
2.2845,79.421
2.4223,79.127
2.5161,78.688
2.5914,78.248
2.6442,77.662
2.6784,77.174
2.697,76.636
2.7009,76.099
2.6911,75.611
2.6686,75.171
2.6344,74.731
2.5855,74.341
2.522,73.999
2.4536,73.657
2.3793,73.315
2.2893,72.924
2.1877,72.533
2.0811,72.094
1.9746,71.605
1.8719,71.166
1.7761,70.677
1.6911,70.189
1.6188,69.749
1.5591,69.261
1.5103,68.821
1.4712,68.724
1.4438,69.847
1.4223,73.803
1.4008,81.618
1.3803,92.413
1.3607,103.26
1.3402,111.07
1.3206,115.47
1.3011,118.45
1.2815,121.43
1.2639,124.31
1.2463,125.97
1.2287,126.07
1.216,125.14
1.2053,123.87
1.1916,122.55
1.176,120.94
1.1603,118.89
1.1437,116.49
1.1271,114
1.1105,111.41
1.0929,108.73
1.0743,105.8
1.0567,102.67
1.042,99.447
1.0323,96.223
1.0264,93.097
1.0186,90.069
1.0078,87.48
0.99609,85.624
0.98338,84.549
0.9697,83.865
0.9609,83.279
0.96774,82.791
1.0049,82.498
1.0841,82.351
1.2121,82.107
1.3861,81.716
1.563,81.277
1.7429,80.984
1.9501,80.739
2.1544,80.349
2.3372,79.86
2.4868,79.421
2.6022,78.981
2.6852,78.444
2.74,77.809
2.7752,77.174
2.7928,76.636
2.7947,76.099
2.783,75.562
2.7605,74.976
2.7292,74.487
2.6872,73.999
2.6325,73.51
2.563,72.973
2.4819,72.485
2.39,72.094
2.2913,71.654
2.1906,71.166
2.0909,70.677
1.9971,70.238
1.9091,69.945
1.8377,69.603
1.781,69.163
1.7292,68.626
1.6843,68.186
1.6461,67.747
1.6139,67.6
1.5875,68.724
1.564,72.533
1.5406,80.349
1.5161,91.29
1.4917,102.43
1.4673,110.73
1.4477,115.66
1.4301,118.98
1.4086,122.35
1.3832,125.92
1.3548,128.41
1.3255,129.19
1.2981,128.75
1.2727,127.92
1.2502,126.95
1.2278,125.82
1.2072,124.16
1.1906,122.16
1.176,119.86
1.1642,117.32
1.1544,114.69
1.1408,111.8
1.1251,108.73
1.1095,105.55
1.0929,102.28
1.0762,99.007
1.0606,95.637
1.0459,92.364
1.0303,89.531
1.0117,87.431
0.99316,85.966
0.98143,84.989
0.98436,84.256
1.0108,83.67
1.0743,83.426
1.1867,83.23
1.35,82.986
1.5552,82.693
1.7859,82.302
2.0225,81.912
2.2444,81.618
2.436,81.228
2.5875,80.788
2.7009,80.349
2.7722,79.86
2.8143,79.323
2.8436,78.59
2.8602,78.004
2.8641,77.418
2.8563,76.783
2.8348,76.197
2.8025,75.562
2.7566,74.976
2.697,74.487
2.6246,74.048
2.5386,73.559
2.4526,73.071
2.3666,72.533
2.2659,72.094
2.1574,71.801
2.0469,71.361
1.9394,70.922
1.8377,70.531
1.7429,70.238
1.6579,69.945
1.5836,69.359
1.52,68.675
1.4653,68.284
1.4184,68.87
1.3822,71.605
1.3509,77.76
1.3167,87.382
1.2805,98.616
1.2434,108.24
1.2053,114.49
1.1681,118.25
1.1329,121.48
1.0978,124.99
1.0645,127.87
1.0352,129.19
1.0098,129.09
0.99218,128.41
0.97947,127.53
0.96676,126.51
0.95797,124.99
0.95503,123.04
0.95503,120.74
0.95699,118.25
0.95992,115.57
0.95992,112.78
0.95503,109.8
0.94624,106.63
0.93548,103.31
0.92571,99.886
0.91984,96.467
0.91691,93.195
0.91202,90.313
0.90518,87.968
0.89932,86.356
0.89834,85.184
0.90909,84.305
0.94428,83.67
1.0176,83.279
1.1378,83.035
1.3069,82.791
1.5181,82.547
1.7214,82.302
1.9159,82.009
2.1271,81.618
2.3265,81.179
2.4946,80.739
2.6266,80.251
2.7243,79.616
2.7947,78.932
2.8426,78.297
2.8729,77.76
2.8915,77.223
2.8983,76.636
2.8925,76.001
2.8739,75.366
2.8426,74.731
2.8006,74.243
2.7468,73.852
2.6804,73.51
2.6041,73.12
2.5191,72.68
2.4272,72.192
2.3304,71.752
2.2317,71.361
2.1349,70.873
2.043,70.384
1.9668,69.798
1.9013,69.359
1.8407,69.066
1.7879,68.626
1.7449,68.04
1.7097,67.796
1.6774,68.821
1.6461,72.485
1.6149,79.86
1.5826,90.215
1.5885,101.11
1.6129,109.56
1.6109,114.78
1.6022,118.3
1.5875,121.57
1.566,124.8
1.5415,127.14
1.5142,127.92
1.4848,127.63
1.4565,126.95
1.4282,125.92
1.3998,124.6
1.3734,122.84
1.349,120.74
1.3265,118.45
1.3118,116
1.3001,113.22
1.2864,110.24
1.2708,106.97
1.2551,103.7
1.2405,100.37
1.2268,97.004
1.2141,93.536
1.2004,90.215
1.1848,87.626
1.1681,85.819
1.1535,84.598
1.1466,83.816
1.1525,83.035
1.1779,82.449
1.2366,82.058
1.3372,81.814
1.4848,81.618
1.6735,81.277
1.8895,80.935
2.1153,80.495
2.3304,80.104
2.5191,79.811
2.6735,79.421
2.7898,78.932
2.8641,78.346
2.9081,77.662
2.9384,76.978
2.956,76.343
2.9609,75.855
2.9521,75.415
2.9306,74.927
2.8964,74.536
2.8485,74.194
2.7869,73.803
2.7136,73.315
2.6295,72.778
2.5464,72.24
2.4614,71.801
2.3636,71.41
2.26,71.068
2.1564,70.531
2.0596,69.847
1.9717,69.066
1.8954,68.382
1.8319,67.747
1.781,67.161
1.74,66.721
1.7058,66.233
1.6745,66.233
1.6491,67.747
1.6256,72.387
1.5992,80.886
1.5699,92.071
1.5386,102.72
1.5073,110.19
1.478,114.44
1.4487,117.47
1.4203,120.74
1.392,123.87
1.3646,125.58
1.3402,125.68
1.3216,124.94
1.305,124.02
1.2845,122.99
1.262,121.48
1.2395,119.42
1.218,117.13
1.1994,114.69
1.1838,112.1
1.1701,109.31
1.1574,106.28
1.1437,103.11
1.129,99.886
1.1134,96.418
1.1026,92.95
1.0938,89.678
1.0811,86.943
1.0635,84.94
1.0411,83.572
1.0176,82.595
1,81.912
0.99902,81.423
1.0303,81.032
1.1065,80.69
1.2356,80.3
1.4154,79.909
1.6012,79.567
1.7908,79.176
2.0098,78.932
2.2287,78.59
2.4272,78.297
2.5894,77.906
2.7116,77.564
2.7957,77.125
2.8504,76.685
2.8817,76.197
2.8935,75.806
2.8886,75.415
2.871,75.073
2.8436,74.683
2.8045,74.292
2.7507,73.999
2.6843,73.608
2.6061,73.168
2.5161,72.68
2.4174,72.045
2.3138,71.508
2.2063,70.922
2.0987,70.433
1.9951,69.847
1.8974,69.31
1.8182,68.724
1.7537,68.089
1.6931,67.551
1.6422,67.161
1.6022,67.063
1.5689,68.089
1.5396,71.605
1.5132,78.981
1.4888,89.629
1.4653,100.72
1.4418,109.26
1.4174,114.25
1.3949,117.32
1.3773,120.25
1.3636,123.18
1.349,125.04
1.3353,125.43
1.3196,124.7
1.304,123.48
1.2884,122.26
1.2698,120.79
1.2483,118.98
1.2248,116.88
1.1984,114.49
1.1701,111.8
1.1466,108.92
1.1251,105.94
1.1017,102.87
1.0772,99.691
1.0528,96.418
1.0283,93.048
1.0039,89.971
0.9824,87.48
0.96188,85.819
0.9433,84.793
0.92766,84.256
0.92082,83.719
0.93255,83.377
0.96383,83.182
1.0235,83.035
1.13,82.937
1.2845,82.547
1.4809,82.058
1.7067,81.57
1.9433,81.228
2.1672,80.984
2.3636,80.69
2.5239,80.153
2.6452,79.567
2.7312,78.932
2.781,78.346
2.8074,77.858
2.824,77.32
2.8299,76.734
2.826,76.099
2.8104,75.562
2.783,75.122
2.7468,74.78
2.6999,74.438
2.6413,73.852
2.5709,73.315
2.4917,72.729
2.4057,72.387
2.3255,71.996
2.2493,71.605
2.1672,71.166
2.088,70.726
2.0137,70.287
1.9472,69.994
1.8905,69.554
1.8446,69.066
1.8055,68.528
1.7703,68.626
1.741,70.384
1.7155,75.22
1.695,84.061
1.6774,95.441
1.6579,106.19
1.6383,113.76
1.6197,118.3
1.6002,121.72
1.5777,125.48
1.5543,128.95
1.5308,130.8
1.5083,131.05
1.4878,130.61
1.4702,130.12
1.4555,129.49
1.4438,128.26
1.434,126.51
1.4233,124.41
1.4106,122.31
1.3969,120.01
1.3842,117.37
1.3715,114.34
1.3607,111.07
1.3509,107.75
1.3431,104.38
1.3363,100.86
1.3284,97.297
1.3236,93.781
1.3206,90.801
1.3128,88.554
1.303,87.187
1.2981,86.356
1.3079,85.819
1.3451,85.233
1.4223,84.793
1.5455,84.598
1.7146,84.549
1.9198,84.403
2.1417,84.11
2.3617,83.67
2.5406,83.23
2.6823,82.986
2.8104,82.693
2.913,82.253
2.9883,81.618
3.0401,80.984
3.0723,80.349
3.089,79.811
3.0929,79.225
3.086,78.688
3.0674,78.004
3.0362,77.32
2.998,76.734
2.9511,76.294
2.8935,75.855
2.826,75.415
2.7331,74.878
2.6256,74.292
2.5269,73.852
2.4321,73.559
2.3412,73.217
2.2542,72.875
2.174,72.387
2.1017,71.801
2.043,71.312
1.9951,70.873
1.9511,70.482
1.911,70.726
1.8768,72.68
1.8465,78.004
1.8172,87.187
1.7879,98.616
1.7605,108.87
1.7361,115.81
1.7126,120.06
1.6911,123.67
1.6716,127.68
1.6549,131.24
1.6413,133.2
1.6266,133.54
1.6119,133.1
1.5953,132.56
1.5767,131.68
1.5562,130.32
1.5357,128.41
1.5152,126.12
1.4927,123.67
1.4692,121.18
1.4438,118.45
1.4233,115.47
1.4066,112.19
1.39,108.68
1.3744,105.11
1.3597,101.5
1.346,97.884
1.3314,94.416
1.3157,91.436
1.2991,89.189
1.2845,87.675
1.2776,86.796
1.2893,86.356
1.3324,86.112
1.3969,85.966
1.4907,85.868
1.6344,85.819
1.8162,85.819
2.0196,85.624
2.2258,85.282
2.4164,84.94
2.5777,84.403
2.7038,83.914
2.7937,83.377
2.8524,82.693
2.8886,81.863
2.9032,81.032
2.9042,80.251
2.8993,79.616
2.8876,79.127
2.869,78.59
2.8416,78.102
2.8035,77.564
2.7556,77.027
2.696,76.685
2.6266,76.294
2.5474,75.806
2.4604,75.171
2.3656,74.536
2.2786,74.048
2.1994,73.608
2.1153,73.168
2.0313,72.778
1.9521,72.387
1.8817,71.85
1.8211,71.312
1.7703,71.068
1.7283,71.752
1.694,74.536
1.6667,80.788
1.6461,90.508
1.6334,101.69
1.6246,111.22
1.6168,117.62
1.609,121.67
1.5992,125.24
1.5875,129.09
1.5728,132.56
1.5533,134.52
1.5308,134.86
1.5054,134.32
1.478,133.3
1.4506,132.12
1.4242,130.51
1.4047,128.51
1.3881,126.12
1.3675,123.48
1.3441,120.6
1.3196,117.57
1.2962,114.34
1.2727,111.17
1.2483,107.75
1.2229,104.14
1.1984,100.33
1.175,96.614
1.1525,93.341
1.1359,90.655
1.1222,88.603
1.1095,87.187
1.1046,86.259
1.1202,85.624
1.1662,85.184
1.2502,84.745
1.3754,84.305
1.5376,83.816
1.7243,83.279
1.9198,82.84
2.1075,82.449
2.2757,82.009
2.4008,81.472
2.4907,80.935
2.565,80.251
2.6197,79.616
2.6569,78.981
2.6794,78.444
2.6891,77.76
2.6872,77.027
2.6764,76.343
2.6569,75.904
2.6246,75.611
2.5797,75.318
2.5298,74.878
2.4721,74.292
2.4018,73.803
2.3206,73.364
2.2326,72.973
2.1378,72.68
2.0401,72.24
1.9443,71.752
1.8534,71.215
1.7683,70.824
1.6911,70.482
1.6237,70.042
1.566,69.407
1.5239,68.87
1.4917,68.675
1.4604,69.847
1.4301,73.852
1.3998,81.667
1.3675,92.657
1.3333,103.94
1.2972,112.63
1.259,118.01
1.2199,121.91
1.1838,125.97
1.1515,130.12
1.1271,133.1
1.1065,134.37
1.0821,134.32
1.0567,133.64
1.0313,132.42
1.0059,130.76
0.98045,128.51
0.95503,125.82
0.92864,123.14
0.90225,120.3
0.87586,117.32
0.85044,113.9
0.82893,110.39
0.81525,106.82
0.80645,103.16
0.7957,99.544
0.78495,95.783
0.77419,92.169
0.76149,89.189
0.74585,87.04
0.72923,85.819
0.71652,84.989
0.71457,84.305
0.73412,83.67
0.78592,83.133
0.86119,82.742
0.96285,82.547
1.1075,82.449
1.2815,82.253
1.4702,82.058
1.654,81.863
1.8201,81.716
1.958,81.618
2.0655,81.57
2.1417,81.277
2.1945,80.984
2.2307,80.593
2.2522,80.251
2.262,79.811
2.262,79.469
2.2542,79.127
2.2366,78.688
2.2082,78.199
2.1681,77.662
2.1153,77.174
2.0518,76.734
1.9775,76.246
1.8954,75.757
1.8084,75.122
1.7195,74.487
1.6442,73.803
1.5787,73.217
1.5112,72.68
1.4487,72.045
1.3949,71.41
1.3509,70.873
1.3167,70.726
1.2923,71.947
1.2757,75.904
1.2649,83.816
1.2571,94.66
1.2512,105.6
1.2463,113.81
1.2444,118.94
1.2414,122.75
1.2326,126.8
1.218,130.8
1.1994,133.64
1.1779,134.61
1.1525,134.37
1.1241,133.44
1.0968,132.07
1.0704,130.12
1.0459,127.53
1.0244,124.55
1.0098,121.43
0.99902,118.3
0.98436,114.98
0.96774,111.41
0.95308,107.75
0.94233,103.99
0.93255,100.23
0.92375,96.614
0.91593,93.048
0.90714,89.971
0.89638,87.675
0.88172,86.259
0.87097,85.379
0.86608,84.842
0.8651,84.403
0.88172,84.061
0.9306,83.719
1.0176,83.426
1.1437,83.23
1.303,83.133
1.4839,82.84
1.6716,82.595
1.8475,82.302
2.0362,82.107
2.2111,81.912
2.3187,81.618
2.3822,81.228
2.4223,80.739
2.4448,80.3
2.4545,79.909
2.4545,79.567
2.4467,79.176
2.433,78.59
2.4125,78.102
2.3842,77.564
2.347,77.125
2.3001,76.685
2.2522,76.197
2.2014,75.562
2.1408,74.927
2.0743,74.438
2.0059,74.048
1.9404,73.657
1.8778,73.217
1.8231,72.778
1.7761,72.387
1.739,71.947
1.7107,71.361
1.6891,70.873
1.6735,71.068
1.6637,73.071
1.6549,78.346
1.6442,87.626
1.6325,99.105
1.6188,109.66
1.6031,117.03
1.5836,121.82
1.5601,126.07
1.5367,130.85
1.5122,135.25
1.4858,138.03
1.4594,139.01
1.4409,138.77
1.4262,137.94
1.4086,136.67
1.391,134.86
1.3734,132.61
1.3568,130.07
1.3402,127.24
1.3236,124.26
1.306,120.99
1.2874,117.67
1.2678,114.3
1.2493,110.73
1.2326,106.97
1.2229,103.11
1.2151,99.3
1.2033,95.783
1.1877,92.853
1.1701,90.557
1.1544,88.945
1.1447,87.822
1.1476,86.943
1.174,86.308
1.2297,85.868
1.3206,85.477
1.4448,85.233
1.5718,85.135
1.7028,84.94
1.8524,84.745
1.999,84.549
2.131,84.354
2.2395,84.11
2.3236,83.719
2.3842,83.182
2.4242,82.595
2.4497,82.107
2.4643,81.667
2.4682,81.277
2.4633,80.788
2.4526,80.349
2.436,80.007
2.4115,79.616
2.3793,79.127
2.3392,78.59
2.2913,78.053
2.2375,77.467
2.1779,76.929
2.1144,76.441
2.0479,76.001
1.9824,75.611
1.9189,75.22
1.8671,74.78
1.8221,74.292
1.7781,73.657
1.739,73.12
1.7058,72.68
1.6784,72.924
1.6559,74.927
1.6383,80.153
1.6246,89.238
1.6139,100.57
1.6051,111.07
1.5963,118.54
1.5875,123.58
1.5806,128.07
1.5738,133
1.564,137.54
1.5513,140.48
1.5367,141.55
1.521,141.35
1.5054,140.57
1.4907,139.3
1.479,137.45
1.4673,135.05
1.4565,132.32
1.4477,129.49
1.4448,126.51
1.4428,123.28
1.437,119.86
1.4311,116.35
1.4272,112.68
1.4223,108.82
1.4184,104.87
1.4145,100.91
1.4096,97.2
1.4037,93.976
1.3978,91.534
1.393,89.873
1.3949,88.701
1.4057,87.871
1.4321,87.382
1.4819,87.04
1.5611,86.845
1.6696,86.747
1.8025,86.552
1.9501,86.356
2.1017,86.161
2.2444,85.917
2.3705,85.673
2.4741,85.428
2.5543,85.135
2.607,84.598
2.6432,84.11
2.6755,83.572
2.7019,82.986
2.7214,82.351
2.7341,81.667
2.737,80.984
2.7283,80.349
2.7077,79.762
2.6745,79.03
2.6315,78.297
2.5806,77.564
2.523,76.881
2.4663,76.099
2.4096,75.366
2.347,74.634
2.2815,73.852
2.216,73.217
2.1535,72.729
2.0968,72.24
2.0479,71.605
2.0068,70.97
1.9736,70.482
1.9482,70.726
1.9286,72.729
1.915,78.053
1.9042,87.284
1.8944,99.251
1.8847,110.39
1.8749,118.2
1.8671,123.18
1.8592,127.53
1.8514,132.61
1.8436,137.45
1.8368,140.48
1.828,141.45
1.8162,141.01
1.8016,139.89
1.7869,138.33
1.7732,136.18
1.7566,133.54
1.737,130.56
1.7165,127.43
1.694,124.26
1.6716,120.89
1.6491,117.42
1.6285,113.86
1.608,110.19
1.5894,106.43
1.5738,102.62
1.5621,98.763
1.5513,95.051
1.5367,91.778
1.521,89.238
1.5073,87.48
1.4976,86.308
1.4985,85.379
1.5171,84.745
1.5601,84.403
1.6344,84.305
1.739,84.256
1.868,84.354
1.9912,84.403
2.1085,84.549
2.2336,84.5
2.348,84.354
2.4418,84.256
2.5112,84.061
2.5572,83.865
2.5836,83.572
2.5953,83.035
2.5963,82.351
2.5885,81.667
2.5748,81.13
2.5562,80.69
2.5337,80.153
2.5054,79.616
2.4702,78.981
2.4282,78.346
2.3793,77.76
2.3265,76.978
2.2708,76.294
2.2141,75.611
2.1584,74.976
2.1056,74.341
2.0577,73.657
2.0156,73.12
1.9834,72.631
1.9589,72.045
1.9384,71.508
1.9247,71.361
1.9179,72.729
1.9159,77.174
1.9159,85.721
1.915,97.004
1.913,107.95
1.9081,115.86
1.8993,120.89
1.8847,124.94
1.8651,129.39
1.8465,133.64
1.826,136.37
1.7996,137.2
1.7703,136.76
1.7419,135.69
1.7097,134.13
1.6813,131.98
1.6628,129.24
1.6432,126.16
1.6237,122.99
1.6041,119.67
1.5846,116.25
1.5689,112.68
1.5552,108.92
1.5396,105.26
1.5259,101.5
1.5142,97.737
1.4917,94.074
1.4614,90.752
1.437,88.066
1.4125,86.308
1.3881,85.233
1.3685,84.549
1.3607,84.012
1.3773,83.572
1.4164,83.279
1.4839,83.279
1.5953,83.377
1.7478,83.377
1.9277,83.377
2.1173,83.426
2.2981,83.475
2.4565,83.426
2.6305,83.182
2.7077,82.791
2.7576,82.449
2.7918,82.058
2.7879,81.716
2.7752,81.277
2.74,80.69
2.7038,80.055
2.6598,79.469
2.61,79.03
2.5552,78.59
2.4966,78.102
2.433,77.564
2.3656,76.978
2.2952,76.49
2.2307,75.904
2.1701,75.366
2.1026,74.78
2.0352,74.292
1.9736,73.901
1.9218,73.51
1.8788,72.973
1.8465,72.387
1.8231,71.801
1.8065,71.557
1.7937,72.387
1.781,75.611
1.7703,82.595
1.7595,93.097
1.7468,104.72
1.7331,114.25
1.7165,120.35
1.6979,124.7
1.6784,129.19
1.6588,134.13
1.6393,138.18
1.6197,140.23
1.5982,140.48
1.5767,139.94
1.5552,138.91
1.5396,137.35
1.5259,135.05
1.5093,132.32
1.4927,129.24
1.4761,126.12
1.4614,122.84
1.4399,119.57
1.4233,116.05
1.4066,112.49
1.3793,108.82
1.3597,105.01
1.3441,101.11
1.3304,97.346
1.305,93.976
1.2991,91.241
1.3148,89.238
1.3969,87.919
1.5044,87.04
1.651,86.405
1.827,85.868
2.0186,85.624
2.2072,85.428
2.3803,85.379
2.5132,85.184
2.6109,85.038
2.6931,84.842
2.7537,84.745
2.7937,84.696
2.8182,84.5
2.828,84.158
2.825,83.67
2.8104,83.23
2.7849,82.742
2.7488,82.253
2.7038,81.57
2.6579,80.886
2.61,80.153
2.5543,79.616
2.4917,79.127
2.4233,78.541
2.3519,77.906
2.2776,77.369
2.2053,76.881
2.1369,76.343
2.0743,75.757
2.0205,75.122
1.9756,74.487
1.9404,73.999
1.914,73.559
1.8944,73.071
1.8768,72.436
1.8592,71.801
1.8407,71.557
1.8192,72.485
1.7957,75.904
1.7732,83.182
1.7488,93.732
1.7283,105.11
1.7146,114.34
1.7019,120.35
1.6921,124.75
1.6862,129.24
1.6794,134.17
1.6696,138.23
1.6588,140.38
1.6461,140.62
1.6315,139.74
1.6158,138.38
1.6002,136.62
1.5836,134.37
1.567,131.63
1.5503,128.61
1.5337,125.58
1.523,122.35
1.5142,118.98
1.5034,115.47
1.4936,111.95
1.4819,108.24
1.4702,104.43
1.4585,100.57
1.4497,96.858
1.4497,93.634
1.4673,90.997
1.5122,88.994
1.5924,87.529
1.6891,86.601
1.8055,85.966
1.9609,85.477
2.1369,85.135
2.3167,84.842
2.4878,84.745
2.6393,84.598
2.7634,84.549
2.8583,84.354
2.9277,84.11
2.9746,83.914
3.0029,83.67
3.0176,83.279
3.0186,82.791
3.0098,82.107
2.9951,81.472
2.9717,80.886
2.9355,80.3
2.8886,79.665
2.8319,78.981
2.7644,78.346
2.6882,77.76
2.607,77.174
2.521,76.685
2.434,76.099
2.3587,75.464
2.2913,74.878
2.2229,74.292
2.1584,73.852
2.1026,73.413
2.0567,72.973
2.0205,72.485
1.9932,71.947
1.9726,71.361
1.955,70.873
1.9365,70.433
1.9169,70.531
1.9003,72.533
1.8856,77.906
1.868,87.187
1.8485,98.47
1.828,108.73
1.8074,115.81
1.7879,120.3
1.7703,124.5
1.7537,129.19
1.74,133.69
1.7253,136.47
1.7087,137.35
1.6901,137.01
1.6755,136.08
1.6618,134.76
1.6432,132.81
1.6217,130.32
1.5963,127.43
1.5689,124.5
1.5415,121.38
1.5161,118.01
1.4936,114.34
1.4721,110.68
1.4506,106.92
1.4301,103.16
1.4145,99.3
1.4018,95.441
1.3881,91.876
1.3822,88.847
1.3959,86.747
1.4409,85.282
1.5249,84.354
1.6491,83.621
1.8074,82.986
1.9892,82.595
2.1779,82.498
2.3578,82.498
2.5142,82.449
2.6285,82.351
2.7077,82.253
2.7703,82.253
2.8133,82.253
2.8407,82.107
2.8553,81.814
2.8602,81.374
2.8563,80.935
2.8446,80.544
2.824,80.104
2.7957,79.616
2.7586,78.981
2.7175,78.346
2.6696,77.858
2.608,77.418
2.5367,76.978
2.4565,76.343
2.3724,75.66
2.2874,75.073
2.2023,74.487
2.1212,73.901
2.0479,73.315
1.9844,72.631
1.9326,71.947
1.8915,71.312
1.8651,70.726
1.8475,70.189
1.8309,69.603
1.8143,68.968
1.7977,68.821
1.7791,70.042
1.7586,74.243
1.738,82.351
1.7175,93.488
1.697,104.58
1.6755,112.73
1.5924,117.86
1.4829,121.72
1.4203,126.07
1.3744,130.36
1.3392,133.44
1.3099,134.57
1.2835,134.13
1.259,132.95
1.2366,131.39
1.2141,129.24
1.1906,126.6
1.1672,123.72
1.1437,120.79
1.1202,117.67
1.1026,114.3
1.089,110.73
1.0723,107.12
1.0538,103.55
1.0313,99.935
1.0059,96.125
0.98045,92.315
0.95992,88.847
0.9521,86.259
0.96774,84.549
1.0205,83.621
1.1193,82.986
1.2405,82.547
1.3881,82.253
1.5836,82.156
1.8065,82.253
2.0323,82.302
2.2434,82.302
2.4233,82.253
2.565,82.156
2.6676,82.156
2.737,82.107
2.7801,81.912
2.8025,81.57
2.8074,81.13
2.7986,80.69
2.7781,80.251
2.7458,79.86
2.7038,79.372
2.653,78.688
2.5934,78.053
2.5259,77.564
2.4497,77.125
2.3666,76.685
2.2776,76.001
2.1818,75.318
2.086,74.731
2.0039,74.243
1.9326,73.755
1.8612,73.12
1.7947,72.436
1.739,71.801
1.697,71.312
1.6657,70.824
1.6432,70.189
1.6276,69.554
1.6149,69.163
1.6022,69.749
1.5875,72.924
1.5699,80.055
1.5533,90.752
1.5367,102.23
1.5161,111.36
1.4946,117.13
1.4721,121.13
1.4487,125.29
1.4233,129.88
1.3969,133.3
1.3744,134.81
1.3539,134.66
1.3343,133.74
1.3148,132.56
1.3011,131
1.2893,128.8
1.2737,126.16
1.2571,123.43
1.2414,120.69
1.2297,117.81
1.2219,114.69
1.2151,111.22
1.2102,107.7
1.2023,104.14
1.1916,100.67
1.1808,97.102
1.173,93.634
1.173,90.362
1.1887,87.871
1.2307,86.259
1.3128,85.282
1.4409,84.696
1.6129,84.158
1.8221,83.719
2.0518,83.426
2.2835,83.279
2.4985,83.23
2.6852,83.182
2.8358,83.035
2.9384,82.937
3.0059,82.742
3.0596,82.547
3.0958,82.351
3.1163,82.107
3.1232,81.716
3.1173,81.179
3.0978,80.593
3.0645,80.055
3.0186,79.469
2.9589,78.883
2.8895,78.199
2.8123,77.467
2.737,76.929
2.6628,76.441
2.5562,76.001
2.4565,75.562
2.3842,74.976
2.305,74.438
2.2268,73.852
2.1554,73.413
2.0938,72.973
2.042,72.533
2,72.045
1.9648,71.508
1.9365,70.922
1.913,70.384
1.8886,69.847
1.8622,69.847
1.8358,71.361
1.8113,76.001
1.7879,84.598
1.7644,95.979
1.741,107.07
1.7175,114.98
1.694,119.81
1.6686,123.67
1.6471,128.12
1.6256,132.51
1.5982,135.49
1.5679,136.42
1.5367,135.98
1.5044,135.1
1.4721,133.93
1.437,132.22
1.3998,129.97
1.3636,127.39
1.3294,124.55
1.3011,121.67
1.2796,118.74
1.2678,115.47
1.261,112.19
1.2532,108.68
1.2444,105.11
1.2346,101.45
1.2258,97.737
1.219,94.22
1.2219,91.241
1.2483,88.847
1.3109,87.138
1.4213,85.868
1.5816,85.038
1.7517,84.403
1.9355,84.061
2.1593,83.816
2.392,83.572
2.61,83.377
2.7957,83.182
2.9443,82.986
3.0547,82.791
3.131,82.547
3.1808,82.253
3.2111,81.863
3.2229,81.472
3.2199,80.984
3.2043,80.446
3.1779,79.811
3.1417,79.176
3.0958,78.492
3.0391,77.858
2.9707,77.32
2.8905,76.685
2.8006,76.099
2.7019,75.562
2.5992,75.073
2.4956,74.536
2.3959,74.097
2.3109,73.608
2.2366,73.168
2.1642,72.729
2.1007,72.387
2.0479,71.996
2.0068,71.557
1.9756,71.068
1.9501,70.433
1.9277,69.749
1.9062,69.261
1.8827,69.261
1.8563,70.824
1.8309,75.415
1.8104,83.865
1.7918,95.099
1.7693,105.99
1.7429,113.81
1.7136,118.59
1.6823,122.45
1.651,126.6
1.6217,130.8
1.5924,133.69
1.564,134.61
1.5367,134.17
1.5112,133.2
1.4917,131.93
1.4741,130.22
1.4506,127.97
1.4242,125.38
1.3969,122.55
1.3715,119.62
1.348,116.54
1.3265,113.37
1.3069,110.05
1.2874,106.53
1.2669,103.01
1.2463,99.3
1.2278,95.539
1.217,91.925
1.219,88.75
1.2385,86.308
1.2893,84.696
1.3832,83.621
1.5249,82.986
1.7136,82.547
1.9355,82.302
2.1711,82.156
2.4008,82.107
2.6061,82.009
2.7752,81.912
2.8925,81.814
2.9707,81.667
3.0303,81.472
3.0714,81.179
3.0938,80.788
3.1007,80.349
3.085,79.811
3.0616,79.176
3.0371,78.541
2.998,77.906
2.9472,77.32
2.8837,76.685
2.8084,76.05
2.7312,75.415
2.6491,74.878
2.5513,74.292
2.4438,73.803
2.3324,73.315
2.2023,72.778
2.0704,72.387
1.9658,71.947
1.8837,71.508
1.8192,71.117
1.7693,70.677
1.7322,70.287
1.7067,69.847
1.6891,69.31
1.6745,68.626
1.6598,68.089
1.6442,68.186
1.6285,69.603
1.6119,73.852
1.5943,81.912
1.5748,92.804
1.5523,103.6
1.5298,111.66
1.5093,116.54
1.4888,120.25
1.4721,124.31
1.4575,128.41
1.4399,131.39
1.4213,132.51
1.4027,132.22
1.3842,131.29
1.3656,130.12
1.346,128.51
1.3255,126.16
1.304,123.58
1.2815,120.74
1.259,117.86
1.2346,114.78
1.216,111.56
1.2004,108.19
1.1808,104.72
1.1603,101.3
1.1388,97.688
1.1183,94.123
1.1036,90.801
1.1007,88.115
1.1202,86.112
1.172,84.696
1.2659,83.67
1.4047,82.937
1.5543,82.449
1.7175,82.058
1.913,81.863
2.1144,81.814
2.3275,81.618
2.4995,81.423
2.6031,81.228
2.6823,81.032
2.737,80.886
2.7713,80.544
2.7908,80.104
2.7986,79.616
2.7947,79.127
2.784,78.59
2.7674,78.102
2.7419,77.564
2.7048,76.929
2.654,76.343
2.5914,75.757
2.5161,75.171
2.4311,74.536
2.3382,73.999
2.2424,73.51
2.1466,72.924
2.0528,72.485
1.9726,72.045
1.9052,71.605
1.8397,71.166
1.783,70.824
1.7361,70.433
1.6989,70.042
1.6696,69.603
1.6471,69.114
1.6285,68.528
1.608,67.942
1.5894,67.503
1.5767,67.698
1.565,69.554
1.5474,74.634
1.5269,83.572
1.5112,94.758
1.4888,105.11
1.4624,112.39
1.4418,116.79
1.4272,120.5
1.4106,124.5
1.3891,128.41
1.3744,130.85
1.3548,131.49
1.3314,130.95
1.3128,129.93
1.2972,128.56
1.2786,126.7
1.2532,124.16
1.2297,121.43
1.2082,118.54
1.1887,115.57
1.173,112.49
1.1593,109.17
1.1476,105.8
1.1378,102.28
1.1329,98.763
1.13,95.099
1.1251,91.68
1.1251,88.554
1.1408,86.112
1.1857,84.305
1.2717,83.035
1.4027,82.156
1.5738,81.472
1.7722,80.984
1.9814,80.69
2.1838,80.495
2.3451,80.3
2.4692,80.104
2.5797,79.86
2.6657,79.665
2.7243,79.469
2.7605,79.225
2.7771,78.883
2.7791,78.492
2.7703,78.102
2.7507,77.613
2.7195,77.125
2.6764,76.49
2.6207,75.904
2.563,75.318
2.5015,74.78
2.4291,74.292
2.3509,73.803
2.2669,73.315
2.1799,72.778
2.0919,72.387
2.0068,71.996
1.9247,71.508
1.8504,70.97
1.7859,70.482
1.7292,69.994
1.6862,69.505
1.653,69.066
1.6227,68.528
1.5963,68.089
1.5738,67.551
1.5533,66.965
1.5347,66.477
1.5181,66.135
1.5024,66.379
1.4848,68.528
1.4663,74.194
1.4467,83.621
1.4262,95.002
1.4106,105.01
1.3969,111.56
1.3803,115.47
1.3597,118.94
1.3363,122.75
1.3089,126.12
1.2805,127.97
1.2502,128.12
1.2199,127.24
1.1906,125.97
1.1652,124.41
1.1437,122.35
1.13,119.81
1.1202,117.03
1.1065,114.2
1.0899,111.22
1.0743,108.09
1.0567,104.87
1.0371,101.5
1.0156,98.03
0.99511,94.611
0.97654,91.192
0.96481,87.968
0.96872,85.379
0.99707,83.475
1.0469,82.351
1.1271,81.667
1.2542,81.13
1.4252,80.593
1.6266,80.3
1.8407,80.153
2.0499,80.007
2.2366,79.86
2.3881,79.762
2.5005,79.665
2.5738,79.616
2.6129,79.469
2.6256,79.225
2.6227,78.932
2.608,78.59
2.5836,78.297
2.5523,77.906
2.5142,77.418
2.4682,76.929
2.4145,76.49
2.3529,76.05
2.2825,75.611
2.2043,75.122
2.1193,74.536
2.0293,74.048
1.9492,73.559
1.8749,73.071
1.7977,72.533
1.7234,71.947
1.6569,71.361
1.6012,70.873
1.5591,70.287
1.5298,69.749
1.5103,69.163
1.4976,68.675
1.4888,68.235
1.4819,67.747
1.479,67.307
1.477,67.112
1.4721,68.186
1.4633,71.996
1.4536,79.567
1.4409,90.313
1.4252,101.16
1.4086,109.41
1.392,114.49
1.3734,118.01
1.3519,121.62
1.3304,125.29
1.3099,127.97
1.2962,128.8
1.2854,128.31
1.2727,127.19
1.26,125.87
1.2473,124.16
1.2356,121.91
1.2209,119.33
1.2033,116.64
1.1848,114
1.1672,111.17
1.1525,108.19
1.1398,105.01
1.1339,101.69
1.131,98.372
1.1251,94.904
1.1202,91.534
1.1212,88.408
1.1388,85.917
1.1828,84.256
1.2639,83.182
1.3881,82.498
1.5533,82.009
1.7478,81.57
1.956,81.374
2.2014,81.179
2.4301,80.935
2.5963,80.69
2.7361,80.349
2.8436,80.251
2.9189,80.055
2.9677,79.86
2.9961,79.616
3.0098,79.225
3.0088,78.786
2.9951,78.297
2.9697,77.809
2.9316,77.125
2.8876,76.49
2.8358,75.806
2.7713,75.171
2.697,74.536
2.6139,73.901
2.5249,73.364
2.435,72.778
2.3451,72.289
2.2571,71.85
2.174,71.41
2.0987,70.97
2.0362,70.482
1.9863,70.042
1.9501,69.652
1.9247,69.31
1.9042,69.066
1.8876,68.724
1.8729,68.382
1.8592,67.844
1.8456,67.307
1.8319,66.868
1.8192,66.965
1.8055,68.675
1.7918,73.315
1.7761,81.716
1.7615,92.95
1.7488,103.74
1.7351,111.56
1.7214,116.2
1.7058,119.62
1.6891,123.38
1.6696,127.14
1.6461,129.53
1.6217,130.32
1.5953,129.83
1.567,128.8
1.5376,127.53
1.5103,125.92
1.4888,123.82
1.4731,121.38
1.4565,118.69
1.4389,115.91
1.4223,112.98
1.4086,109.85
1.3969,106.63
1.3871,103.35
1.3763,99.984
1.3627,96.467
1.3519,93.048
1.3519,89.971
1.3666,87.431
1.4047,85.477
1.4819,84.061
1.607,83.133
1.781,82.498
1.9912,82.009
2.2219,81.667
2.4526,81.423
2.6637,81.228
2.8436,81.032
2.9824,80.788
3.0831,80.544
3.1515,80.3
3.1896,80.055
3.2072,79.665
3.218,79.225
3.219,78.737
3.2082,78.248
3.1867,77.662
3.1535,77.027
3.1065,76.441
3.0469,75.806
2.9756,75.171
2.8935,74.536
2.8025,74.048
2.7136,73.559
2.6266,73.071
2.5318,72.533
2.435,72.045
2.3412,71.557
2.2561,71.166
2.1828,70.726
2.1222,70.287
2.0733,69.945
2.0342,69.554
2.0029,69.163
1.9765,68.821
1.9541,68.284
1.9326,67.698
1.9091,67.063
1.8856,66.721
1.8631,67.405
1.8407,70.384
1.8192,76.783
1.7986,86.698
1.7781,97.688
1.7576,106.92
1.739,112.78
1.7204,116.54
1.6999,119.91
1.6813,123.67
1.6628,126.75
1.6393,128.31
1.6149,128.31
1.5914,127.53
1.567,126.6
1.5415,125.24
1.5181,123.38
1.4966,120.99
1.477,118.5
1.4585,115.91
1.4409,113.17
1.4291,110.19
1.4203,106.97
1.4096,103.74
1.3959,100.42
1.3803,97.004
1.3646,93.536
1.3548,90.313
1.3587,87.48
1.3891,85.282
1.4594,83.719
1.5748,82.693
1.7361,81.912
1.9394,81.277
2.1369,80.886
2.3255,80.593
2.5279,80.495
2.7175,80.3
2.8768,80.055
2.999,79.86
3.086,79.665
3.1427,79.421
3.176,79.03
3.1926,78.688
3.1965,78.248
3.1887,77.76
3.1681,77.174
3.1388,76.636
3.0997,76.05
3.0479,75.415
2.9844,74.731
2.9101,74.194
2.825,73.608
2.7312,73.12
2.6315,72.631
2.5298,72.094
2.4291,71.654
2.3333,71.215
2.2434,70.824
2.1701,70.384
2.1105,69.945
2.0567,69.505
2.0108,69.066
1.9726,68.626
1.9404,68.235
1.912,67.844
1.8876,67.356
1.8641,66.721
1.8416,66.233
1.8192,66.233
1.7967,67.747
1.7781,72.094
1.7625,80.251
1.7449,90.997
1.7234,101.5
1.6999,109.17
1.6745,113.81
1.6491,117.13
1.6246,120.55
1.6002,124.02
1.5748,126.36
1.5484,127.19
1.523,126.8
1.4995,125.92
1.4829,124.75
1.4702,123.18
1.4545,121.04
1.4379,118.59
1.4213,116.05
1.4037,113.37
1.3861,110.44
1.3685,107.36
1.3519,104.14
1.3372,100.86
1.3236,97.542
1.3099,94.171
1.3011,90.801
1.3001,87.871
1.3109,85.477
1.346,83.865
1.4223,82.693
1.5445,81.863
1.7146,81.228
1.9228,80.788
2.1515,80.495
2.3783,80.3
2.5865,80.104
2.7615,79.909
2.9003,79.665
2.9932,79.421
3.0518,79.176
3.0948,78.883
3.1212,78.444
3.1359,77.906
3.1388,77.418
3.129,76.929
3.1075,76.49
3.0733,76.001
3.0254,75.366
2.9648,74.731
2.8915,74.194
2.8162,73.657
2.738,73.12
2.6481,72.631
2.5513,72.094
2.4516,71.605
2.3509,71.166
2.2551,70.629
2.1681,70.189
2.0919,69.749
2.0274,69.359
1.9746,68.919
1.9326,68.479
1.8993,68.186
1.8768,67.796
1.8602,67.307
1.8426,66.721
1.824,66.233
1.8035,65.842
1.783,66.184
1.7625,68.431
1.7439,73.999
1.7234,83.133
1.6999,94.074
1.6745,103.6
1.6491,110.05
1.6276,114
1.609,117.32
1.5885,120.79
1.5679,123.87
1.5464,125.68
1.5249,125.97
1.4321,125.29
1.304,124.16
1.2307,122.75
1.1857,120.89
1.1525,118.54
1.1251,116
1.0997,113.22
1.0811,110.44
1.0674,107.51
1.0528,104.43
1.0391,101.11
1.0254,97.786
1.0088,94.513
0.99218,91.192
0.98143,87.968
0.98534,85.233
1.0137,83.182
1.0802,81.912
1.1926,81.032
1.3236,80.3
1.478,79.665
1.6804,79.225
1.9081,79.127
2.1359,78.981
2.3421,78.786
2.5142,78.492
2.6471,78.248
2.7429,78.053
2.8065,77.858
2.8446,77.467
2.8651,77.027
2.87,76.685
2.8612,76.246
2.8426,75.757
2.8162,75.171
2.7801,74.536
2.7312,74.048
2.6706,73.559
2.5973,72.973
2.5093,72.387
2.4106,71.85
2.305,71.508
2.1955,71.117
2.085,70.677
1.9902,70.238
1.9081,69.798
1.825,69.407
1.7488,69.066
1.6833,68.626
1.6305,68.089
1.5885,67.698
1.5552,67.161
1.5269,66.672
1.5015,66.135
1.479,65.549
1.4585,65.012
1.4418,64.67
1.4252,65.012
1.4057,67.063
1.3832,72.436
1.3587,81.618
1.3343,92.853
1.3079,102.87
1.2796,109.36
1.2493,113.12
1.2199,116
1.1906,119.23
1.1613,122.26
1.1329,123.72
1.1105,123.67
1.0919,122.6
1.0694,121.23
1.0469,119.67
1.0244,117.67
1.002,115.17
0.97947,112.49
0.95797,109.85
0.93939,107.12
0.92375,104.23
0.90714,101.11
0.89052,97.932
0.87879,94.66
0.86706,91.485
0.84848,88.408
0.83089,85.624
0.82307,83.377
0.83773,81.863
0.88856,80.984
0.98534,80.495
1.132,80.055
1.3245,79.616
1.5513,79.323
1.7937,79.127
2.0303,78.981
2.2199,78.786
2.3666,78.59
2.4946,78.346
2.5924,78.199
2.6588,78.053
2.695,77.809
2.7087,77.467
2.7058,77.027
2.6882,76.539
2.6579,76.05
2.6158,75.66
2.563,75.171
2.5083,74.683
2.4497,74.194
2.3783,73.657
2.2962,73.315
2.2043,72.875
2.1065,72.387
2.0068,71.947
1.9081,71.508
1.8152,71.068
1.7302,70.629
1.6559,70.091
1.5943,69.554
1.5445,68.968
1.5083,68.528
1.4819,68.186
1.4624,67.796
1.4477,67.307
1.436,66.721
1.4262,66.233
1.4164,65.988
1.4047,66.428
1.39,68.479
1.3734,73.755
1.3548,82.693
1.3343,93.683
1.3177,103.35
1.3021,109.85
1.2835,113.61
1.263,116.69
1.2405,120.01
1.218,122.79
1.1955,124.31
1.175,124.16
1.1554,123.28
1.1339,122.11
1.1124,120.79
1.0909,119.03
1.0704,116.79
1.0557,114.3
1.045,111.8
1.0332,109.26
1.0244,106.53
1.0176,103.6
1.0117,100.57
1.0068,97.444
1.002,94.22
0.99707,91.045
0.99609,87.968
1.0059,85.477
1.0352,83.621
1.0841,82.351
1.1642,81.57
1.2942,80.935
1.4731,80.544
1.6901,80.3
1.9286,80.055
2.1662,79.811
2.3822,79.469
2.564,79.225
2.7058,79.03
2.8094,78.932
2.8807,78.59
2.9257,78.248
2.9472,77.809
2.9521,77.369
2.9492,76.929
2.9365,76.49
2.912,75.904
2.8739,75.22
2.8221,74.634
2.7576,74.048
2.6823,73.559
2.5982,73.071
2.5073,72.485
2.4106,71.85
2.3226,71.361
2.2405,70.97
2.1525,70.629
2.0674,70.238
1.9892,69.798
1.9218,69.359
1.8661,68.968
1.8211,68.675
1.7859,68.382
1.7586,68.04
1.7361,67.6
1.7155,67.112
1.696,66.526
1.6794,66.037
1.6628,65.744
1.6403,66.135
1.6168,68.382
1.5943,73.901
1.5718,83.23
1.5464,94.562
1.5181,104.48
1.4897,111.12
1.4614,114.88
1.435,118.01
1.4106,121.57
1.39,124.8
1.3734,126.6
1.3539,126.8
1.3314,126.16
1.3089,125.38
1.2864,124.26
1.2639,122.6
1.2414,120.55
1.2209,118.2
1.2043,115.76
1.1906,113.07
1.1789,110.09
1.1681,107.12
1.1623,103.99
1.1574,100.81
1.1486,97.542
1.1349,94.171
1.1212,90.997
1.1173,88.115
1.1339,85.868
1.1857,84.256
1.2835,83.133
1.434,82.253
1.6334,81.618
1.869,81.228
2.086,80.984
2.2845,80.788
2.4927,80.593
2.6813,80.349
2.8368,80.153
2.955,79.909
3.0391,79.665
3.0948,79.372
3.1271,78.932
3.1408,78.346
3.1408,77.809
3.1281,77.223
3.1017,76.685
3.0635,76.099
3.0166,75.464
2.958,74.927
2.8856,74.341
2.7996,73.803
2.7038,73.217
2.6002,72.729
2.4917,72.24
2.3822,71.801
2.2766,71.361
2.1779,70.873
2.085,70.384
2.0156,69.945
1.9658,69.554
1.9179,69.163
1.8729,68.821
1.8348,68.479
1.8035,68.089
1.7761,67.6
1.7517,67.112
1.7302,66.623
1.7087,66.428
1.6882,67.503
1.6696,71.117
1.651,78.297
1.6344,88.554
1.6197,99.3
1.6031,107.6
1.5846,112.68
1.565,116
1.5435,119.23
1.521,122.6
1.4976,125.14
1.4731,126.12
1.4497,125.82
1.4252,125.04
1.4018,124.11
1.3842,122.84
1.3695,121.04
1.3529,118.89
1.3363,116.49
1.3216,114.05
1.3109,111.41
1.3011,108.53
1.2923,105.41
1.2805,102.13
1.2669,98.812
1.2512,95.441
1.2356,92.169
1.2248,89.092
1.2239,86.405
1.2414,84.305
1.2913,82.84
1.3812,81.912
1.5152,81.374
1.6872,80.935
1.8847,80.593
2.0909,80.3
2.2893,80.055
2.4663,79.811
2.6139,79.616
2.7263,79.421
2.7986,79.176
2.8407,78.786
2.8719,78.444
2.8915,78.004
2.9003,77.467
2.8974,76.929
2.8856,76.294
2.8641,75.66
2.8309,75.122
2.7849,74.634
2.7273,74.048
2.6588,73.413
2.5885,72.875
2.5152,72.436
2.4282,72.045
2.3343,71.605
2.2405,71.068
2.1496,70.531
2.0645,70.091
1.9863,69.798
1.9159,69.554
1.8553,69.163
1.8045,68.724
1.7625,68.382
1.7273,67.942
1.7019,67.503
1.6823,66.965
1.6628,66.428
1.6422,66.037
1.6197,66.379
1.5963,68.675
1.5738,74.243
1.5523,83.377
1.5308,94.367
1.5103,104.14
1.4897,110.63
1.4682,114.44
1.4526,117.47
1.4389,120.74
1.4223,123.82
1.4047,125.48
1.3861,125.63
1.3656,124.94
1.3451,123.92
1.3255,122.7
1.305,121.04
1.2845,118.94
1.263,116.54
1.2424,114.1
1.2239,111.56
1.2121,108.73
1.2023,105.7
1.1906,102.47
1.1779,99.3
1.1642,96.174
1.1505,92.95
1.1408,89.824
1.1408,87.04
1.1584,84.989
1.2072,83.572
1.2942,82.547
1.4233,81.814
1.563,81.179
1.7155,80.739
1.9022,80.495
2.0987,80.3
2.2854,80.007
2.4487,79.762
2.5816,79.421
2.6813,79.176
2.7527,78.932
2.8016,78.492
2.8328,78.004
2.8495,77.418
2.8563,76.929
2.8504,76.343
2.8338,75.806
2.8065,75.22
2.7693,74.683
2.7185,74.097
2.654,73.559
2.5787,72.924
2.4936,72.289
2.4018,71.752
2.305,71.312
2.2063,70.873
2.1114,70.433
2.0323,69.994
1.9648,69.554
1.8993,69.114
1.8416,68.528
1.7937,67.991
1.7537,67.405
1.7195,66.868
1.6911,66.379
1.6667,65.793
1.6432,65.256
1.6217,64.67
1.5992,64.377
1.5787,65.158
1.5621,68.235
1.5484,74.927
1.5337,84.989
1.5161,96.076
1.4976,105.06
1.477,110.68
1.4565,114.05
1.437,117.18
1.4164,120.6
1.3939,123.38
1.3685,124.6
1.3441,124.41
1.3245,123.62
1.306,122.7
1.2815,121.38
1.2542,119.62
1.2258,117.42
1.1994,115.13
1.176,112.68
1.1544,110.05
1.1359,107.16
1.1212,104.04
1.1056,100.86
1.089,97.688
1.0733,94.367
1.0626,90.997
1.0577,87.871
1.0577,85.233
1.0733,83.279
1.1163,82.058
1.1984,81.228
1.3245,80.544
1.4927,80.007
1.6901,79.665
1.9013,79.567
2.1075,79.421
2.2933,79.225
2.433,78.981
2.5347,78.737
2.6197,78.541
2.6813,78.346
2.7204,78.053
2.7419,77.613
2.7507,77.125
2.7488,76.636
2.737,76.099
2.7146,75.562
2.6794,74.976
2.6305,74.487
2.5689,73.999
2.5034,73.51
2.4321,73.071
2.348,72.533
2.2551,72.094
2.1593,71.654
2.0655,71.215
1.9736,70.726
1.8856,70.238
1.8055,69.652
1.7351,69.163
1.6755,68.675
1.6276,68.089
1.5943,67.551
1.5718,66.965
1.5533,66.477
1.5357,66.037
1.5191,65.695
1.5034,65.842
1.4878,67.796
1.4702,73.071
1.4516,82.107
1.4321,93.243
1.4115,103.16
1.3891,109.85
1.3646,113.66
1.3441,116.49
1.3255,119.47
1.305,122.11
1.2835,123.28
1.261,122.99
1.2385,121.82
1.2151,120.35
1.1906,118.74
1.1652,116.69
1.1408,114.25
1.1183,111.66
1.0978,109.12
1.0841,106.43
1.0743,103.55
1.0626,100.47
1.0499,97.444
1.0371,94.318
1.0244,91.192
1.0127,88.261
1.0039,85.673
1.002,83.816
1.0176,82.547
1.0616,81.716
1.1437,81.228
1.2698,80.788
1.4086,80.593
1.563,80.495
1.7556,80.3
1.9609,80.007
2.1593,79.616
2.3333,79.225
2.4927,78.981
2.6256,78.737
2.7126,78.444
2.7654,78.053
2.7928,77.76
2.8006,77.369
2.7908,76.881
2.7693,76.343
2.737,75.806
2.694,75.366
2.6403,74.927
2.5758,74.487
2.4995,73.999
2.4154,73.51
2.3265,73.071
2.2326,72.729
2.1378,72.387
2.0459,71.85
1.9687,71.41
1.9032,70.97
1.8397,70.629
1.784,70.238
1.739,69.798
1.7028,69.31
1.6764,68.87
1.6559,68.479
1.6393,68.089
1.6256,67.698
1.6129,67.112
1.6012,67.112
1.5914,68.479
1.5846,72.778
1.5787,80.984
1.5709,91.925
1.5601,102.67
1.5445,110.49
1.5249,115.08
1.5034,118.25
1.4809,121.57
1.4604,124.85
1.4389,126.99
1.4164,127.39
1.393,126.6
1.3744,125.68
1.3597,124.7
1.3441,123.38
1.3284,121.67
1.3138,119.67
1.3011,117.47
1.2913,115.13
1.2825,112.54
1.2737,109.66
1.2639,106.63
1.2522,103.45
1.2385,100.18
1.2239,96.76
1.2131,93.439
1.2092,90.362
1.2141,87.871
1.2424,86.063
1.3079,84.793
1.4174,84.012
1.5728,83.475
1.7693,83.035
1.9902,82.595
2.219,82.156
2.437,81.912
2.6285,81.814
2.7683,81.716
2.8671,81.57
2.9482,81.179
3.0068,80.886
3.042,80.544
3.0587,80.153
3.0626,79.665
3.0547,78.981
3.0381,78.102
3.0108,77.418
2.9736,76.881
2.9277,76.343
2.87,75.806
2.8074,75.171
2.74,74.487
2.6608,74.097
2.5718,73.852
2.477,73.51
2.3793,72.729
2.2786,72.045
2.1818,71.508
2.0919,71.166
2.0127,70.922
1.9423,70.482
1.8837,69.994
1.8387,69.505
1.8045,69.066
1.7742,68.626
1.7488,68.089
1.7283,67.6
1.7136,67.844
1.7058,69.994
1.7028,75.562
1.7009,84.989
1.6979,96.418
1.694,106.63
1.6852,113.37
1.6725,117.23
1.6588,120.45
1.6432,124.02
1.6227,127.24
1.6002,129
1.5748,129.19
1.5455,128.56
1.5152,127.73
1.4839,126.75
1.4516,125.24
1.4174,123.14
1.3851,120.74
1.3568,118.35
1.3363,115.86
1.3196,113.07
1.3021,109.95
1.2854,106.68
1.2698,103.5
1.2551,100.23
1.2424,96.907
1.2326,93.488
1.2307,90.215
1.2463,87.529
1.2923,85.624
1.3783,84.403
1.5083,83.621
1.65,82.986
1.8094,82.498
2.0098,82.107
2.2258,81.912
2.4321,81.814
2.6129,81.667
2.7615,81.374
2.8759,80.984
2.9599,80.593
3.0186,80.349
3.0577,80.055
3.0802,79.567
3.085,78.932
3.0782,78.297
3.0645,77.76
3.0401,77.32
3.0029,76.783
2.9521,76.197
2.8876,75.464
2.8123,74.78
2.7283,74.341
2.6334,73.901
2.5308,73.51
2.4252,72.924
2.3196,72.436
2.2278,72.045
2.1457,71.752
2.0635,71.41
1.9883,70.922
1.9228,70.433
1.869,69.945
1.825,69.554
1.7889,69.163
1.7586,68.675
1.7351,68.089
1.7175,67.796
1.7009,68.431
1.6862,71.166
1.6725,77.418
1.6559,87.187
1.6373,98.323
1.6188,107.75
1.5982,113.81
1.5758,117.47
1.5513,120.6
1.5239,124.02
1.4956,126.85
1.4673,128.36
1.4389,128.41
1.4106,127.68
1.3891,126.75
1.3715,125.48
1.3509,123.87
1.3324,121.72
1.3128,119.37
1.2933,116.79
1.2747,114.2
1.2581,111.41
1.2414,108.39
1.2258,105.16
1.2102,101.79
1.1926,98.323
1.1789,94.855
1.1691,91.68
1.1632,88.799
1.172,86.601
1.2092,85.038
1.2884,84.11
1.4135,83.426
1.5836,82.937
1.7869,82.498
2.0078,82.156
2.2278,81.912
2.4282,81.814
2.5982,81.57
2.7195,81.228
2.8025,80.886
2.869,80.544
2.9159,80.251
2.9472,79.86
2.9638,79.323
2.9658,78.737
2.956,78.199
2.9345,77.662
2.9003,77.027
2.8524,76.49
2.7947,75.855
2.7341,75.318
2.6676,74.78
2.5875,74.243
2.4966,73.755
2.3988,73.217
2.2991,72.875
2.2014,72.485
2.1085,72.045
2.0225,71.605
1.9453,71.166
1.8788,70.726
1.8231,70.384
1.782,69.945
1.7507,69.505
1.7214,68.968
1.694,68.528
1.6706,68.089
1.6491,67.747
1.6285,67.991
1.609,70.042
1.5914,75.366
1.5728,84.354
1.5533,95.344
1.5308,105.31
1.5073,112.05
1.4878,116.05
1.4692,119.18
1.4467,122.55
1.4242,125.68
1.3998,127.53
1.3744,127.87
1.35,127.29
1.3255,126.41
1.303,125.29
1.2845,123.67
1.2669,121.62
1.2493,119.23
1.2346,116.74
1.1848,114.05
1.1163,111.17
1.0743,108.19
1.044,105.01
1.0186,101.69
0.99609,98.323
0.97556,95.002
0.95894,91.729
0.9521,88.994
0.96481,86.796
1.0088,85.282
1.0948,84.354
1.2023,83.67
1.3372,83.133
1.522,82.693
1.738,82.449
1.9658,82.253
2.1818,82.009
2.3705,81.716
2.522,81.423
2.6373,81.179
2.7195,80.935
2.7742,80.544
2.8074,80.055
2.8221,79.469
2.824,78.981
2.8201,78.492
2.8074,78.004
2.7849,77.369
2.7498,76.685
2.7019,76.001
2.6403,75.366
2.565,74.78
2.478,74.292
2.3822,73.803
2.2805,73.364
2.1769,73.071
2.085,72.631
2.002,72.192
1.9198,71.752
1.8436,71.361
1.7771,70.97
1.7224,70.629
1.6784,70.091
1.6432,69.652
1.6139,69.261
1.5894,68.821
1.567,68.284
1.5455,67.796
1.5279,67.698
1.5093,68.724
1.4858,72.436
1.4604,79.762
1.435,90.069
1.4076,100.72
1.3793,108.97
1.3509,114
1.3245,117.23
1.3011,120.5
1.2766,123.92
1.2522,126.56
1.2287,127.53
1.2102,127.29
1.1955,126.41
1.1779,125.29
1.1574,123.87
1.1369,121.91
1.1153,119.57
1.0948,117.03
1.0762,114.44
1.0587,111.61
1.042,108.53
1.0254,105.26
1.0078,101.89
0.99413,98.421
0.98143,95.051
0.96579,91.68
0.95308,88.603
0.95112,86.112
0.97165,84.403
1.0283,83.377
1.129,82.595
1.2776,82.009
1.4673,81.472
1.6843,81.179
1.9101,80.935
2.1271,80.69
2.2981,80.349
2.4291,80.055
2.5445,79.762
2.6344,79.469
2.696,79.127
2.7351,78.688
2.7546,78.199
2.7586,77.76
2.7488,77.369
2.7283,76.881
2.697,76.294
2.6559,75.757
2.609,75.122
2.5552,74.536
2.4897,73.999
2.4106,73.51
2.3206,73.071
2.2229,72.68
2.1193,72.24
2.0137,71.752
1.9091,71.215
1.8104,70.726
1.7214,70.287
1.6442,69.798
1.5797,69.359
1.5327,68.87
1.4966,68.431
1.4643,68.04
1.436,67.6
1.4086,67.161
1.3832,66.721
1.3578,66.281
1.3333,66.428
1.3079,68.04
1.2825,72.729
1.2581,81.277
1.2336,92.413
1.2141,102.87
1.1975,109.95
1.1769,113.86
1.1544,116.54
1.13,119.67
1.1036,122.7
1.0792,124.41
1.0557,124.41
1.0332,123.43
1.0098,122.26
0.98338,120.94
0.95699,119.18
0.93157,116.93
0.91202,114.34
0.89638,111.8
0.87586,109.12
0.85533,106.24
0.83675,103.16
0.82111,99.984
0.80645,96.809
0.79081,93.634
0.77517,90.362
0.76246,87.236
0.7566,84.696
0.76931,82.986
0.80156,82.058
0.86315,81.472
0.97263,80.984
1.1329,80.544
1.3372,80.3
1.5709,80.153
1.8133,79.909
2.042,79.567
2.2395,79.225
2.3969,79.127
2.5132,79.03
2.5904,78.981
2.6373,78.786
2.6588,78.59
2.6628,78.297
2.6559,77.906
2.6403,77.369
2.6149,76.881
2.5777,76.49
2.5269,76.246
2.4633,75.904
2.3851,75.415
2.2942,74.878
2.1935,74.341
2.085,73.901
1.9873,73.559
1.8974,73.071
1.8025,72.485
1.7126,71.947
1.6315,71.41
1.5621,70.922
1.5083,70.433
1.4702,69.847
1.4438,69.31
1.4262,68.821
1.4164,68.382
1.4106,67.991
1.4047,67.698
1.3998,67.698
1.3949,68.968
1.3891,73.12
1.3793,80.935
1.3666,91.534
1.3509,102.04
1.3324,109.75
1.3128,114.2
1.2933,117.18
1.2717,120.16
1.2493,123.18
1.2258,125.19
1.2092,125.58
1.1975,124.8
1.1828,123.72
1.1672,122.55
1.1515,121.13
1.1349,119.03
1.1202,116.69
1.1075,114.05
1.0968,111.41
1.087,108.68
1.0782,105.85
1.0714,102.91
1.0674,99.886
1.0635,96.662
1.0547,93.488
1.043,90.508
1.0332,87.871
1.0332,85.868
1.0557,84.549
1.1134,83.865
1.217,83.426
1.3705,83.035
1.567,82.595
1.7928,82.253
2.0283,82.009
2.2258,81.667
2.3881,81.277
2.5415,80.935
2.6676,80.593
2.7615,80.349
2.825,80.153
2.8651,79.86
2.8866,79.469
2.8935,79.127
2.8886,78.59
2.8729,78.102
2.8446,77.467
2.8055,76.783
2.7566,76.099
2.694,75.562
2.6197,75.073
2.5337,74.536
2.4379,73.999
2.3333,73.413
2.2248,72.875
2.1183,72.387
2.0176,71.947
1.9286,71.557
1.8524,71.166
1.7898,70.824
1.7449,70.482
1.7126,70.091
1.6862,69.749
1.6637,69.359
1.6442,68.919
1.6237,68.479
1.6022,67.991
1.6305,67.6
1.6833,67.844
1.6999,69.994
1.6989,75.464
1.6891,84.842
1.6764,96.223
1.6628,106.48
1.6461,113.37
1.6285,117.37
1.6109,120.6
1.5943,124.16
1.5787,127.43
1.563,129.24
1.5484,129.49
1.5357,128.85
1.5239,128.17
1.5122,127.43
1.5005,126.16
1.4917,124.41
1.4848,122.45
1.4751,120.16
1.4653,117.81
1.4545,115.08
1.4418,112.05
1.4282,108.87
1.4115,105.55
1.392,102.04
1.3705,98.616
1.348,95.197
1.3324,92.071
1.3294,89.385
1.35,87.382
1.4057,85.966
1.5073,85.038
1.6569,84.354
1.8465,83.865
2.0645,83.426
2.2913,83.182
2.5083,82.937
2.6989,82.742
2.8543,82.498
2.9726,82.107
3.0577,81.667
3.1075,81.228
3.1339,80.788
3.1535,80.3
3.1652,79.811
3.1691,79.176
3.1642,78.59
3.1486,78.053
3.1202,77.564
3.0782,76.929
3.0225,76.294
2.9541,75.757
2.8739,75.171
2.7947,74.731
2.7136,74.194
2.6237,73.657
2.5298,73.168
2.435,72.778
2.3451,72.436
2.261,72.094
2.1838,71.752
2.1153,71.361
2.0547,70.97
2.0029,70.629
1.958,70.091
1.9198,69.407
1.8905,68.724
1.8661,68.235
1.8407,68.382
1.8152,70.189
1.7908,74.927
1.7674,83.426
1.7439,94.513
1.7185,105.01
1.695,112.54
1.6725,116.93
1.652,120.06
1.6334,123.38
1.6178,126.7
1.6041,128.85
1.5855,129.44
1.565,128.95
1.5445,128.17
1.5239,127.29
1.5024,126.12
1.479,124.41
1.4545,122.35
1.4311,120.01
1.4096,117.57
1.391,114.93
1.3754,112.1
1.3646,109.12
1.3558,105.94
1.3431,102.67
1.3275,99.251
1.3109,95.783
1.2981,92.413
1.2972,89.434
1.3187,87.138
1.3754,85.673
1.4761,84.793
1.6217,84.158
1.8065,83.621
1.9863,83.182
2.1613,82.937
2.3548,82.742
2.5386,82.547
2.697,82.253
2.8231,81.814
2.9169,81.423
2.9834,81.179
3.0264,80.788
3.0518,80.349
3.0626,79.762
3.0635,79.176
3.0547,78.737
3.0342,78.248
3.002,77.564
2.9589,76.881
2.9071,76.197
2.8456,75.66
2.7722,75.318
2.6901,74.878
2.6012,74.341
2.5064,73.852
2.4076,73.413
2.3089,73.071
2.2141,72.631
2.1339,72.192
2.0665,71.654
2.001,71.215
1.9433,70.873
1.8944,70.482
1.8534,70.042
1.8192,69.505
1.7908,68.87
1.7674,68.431
1.7439,68.382
1.7185,69.554
1.694,73.413
1.6716,81.13
1.653,91.729
1.6364,102.67
1.6168,110.97
1.5943,115.91
1.5699,119.18
1.5445,122.5
1.5181,125.97
1.4927,128.51
1.4702,129.29
1.4487,128.95
1.4301,128.17
1.4115,127.48
1.3969,126.41
1.3842,124.85
1.3685,122.79
1.35,120.5
1.3314,118.06
1.3128,115.47
1.2962,112.68
1.2825,109.56
1.2698,106.28
1.2561,103.01
1.2395,99.593
1.2239,96.174
1.2151,92.804
1.2151,89.824
1.2297,87.431
1.2717,85.868
1.3539,84.94
1.48,84.305
1.6471,83.719
1.8456,83.279
2.0587,83.035
2.2688,82.937
2.4604,82.791
2.6217,82.449
2.7498,82.058
2.8368,81.618
2.8935,81.277
2.9384,80.935
2.9687,80.446
2.9883,79.86
2.998,79.225
2.9971,78.737
2.9834,78.199
2.956,77.613
2.9159,76.929
2.8641,76.246
2.8016,75.611
2.737,75.122
2.6676,74.536
2.5855,73.999
2.4956,73.364
2.3998,72.729
2.303,72.192
2.2092,71.654
2.1212,71.166
2.042,70.629
1.9736,70.042
1.9169,69.505
1.869,69.066
1.8289,68.626
1.7996,68.089
1.7791,67.551
1.7595,66.916
1.738,66.428
1.7146,66.526
1.6911,68.186
1.6667,72.68
1.6432,80.984
1.6178,92.169
1.5904,103.11
1.5621,111.07
1.5347,115.61
1.5132,118.69
1.4936,122.01
1.4702,125.43
1.4467,127.73
1.4233,128.31
1.3998,127.68
1.3763,126.95
1.35,126.16
1.3226,125.14
1.2942,123.58
1.2659,121.48
1.2385,119.18
1.2131,116.74
1.1945,114.2
1.1808,111.41
1.1672,108.43
1.1515,105.16
1.1329,101.79
1.1134,98.225
1.0948,94.758
1.0811,91.485
1.0802,88.701
1.1036,86.601
1.1632,85.184
1.2669,84.256
1.3891,83.621
1.5347,83.133
1.7253,82.595
1.9384,82.253
2.1525,82.009
2.347,81.814
2.5103,81.667
2.6383,81.423
2.7312,81.032
2.7937,80.593
2.8328,80.153
2.8543,79.811
2.8622,79.225
2.8573,78.59
2.8016,77.906
2.7204,77.369
2.6598,76.881
2.6041,76.441
2.5474,75.904
2.4839,75.464
2.4115,75.073
2.3314,74.78
2.2454,74.634
2.1544,74.487
2.0616,74.243
1.9795,73.852
1.9052,73.364
1.828,72.924
1.7537,72.631
1.6872,72.24
1.6305,71.654
1.5816,71.117
1.5406,70.531
1.5044,70.042
1.4731,69.603
1.4448,69.31
1.4184,69.603
1.392,71.996
1.3705,77.858
1.3529,87.48
1.3333,98.665
1.3128,108.04
1.2893,114.1
1.2649,117.81
1.2405,120.99
1.219,124.16
1.1984,126.6
1.1789,127.48
1.1593,127.14
1.1398,126.12
1.1261,124.94
1.1153,123.62
1.1017,121.82
1.087,119.57
1.0714,116.98
1.0557,114.34
1.0401,111.56
1.0254,108.63
1.0117,105.36
0.99902,101.99
0.98534,98.47
0.97067,95.002
0.95503,91.68
0.94526,88.799
0.94428,86.552
0.95406,85.135
0.98729,84.158
1.0538,83.572
1.1623,83.133
1.3118,82.791
1.4946,82.693
1.6989,82.595
1.9071,82.498
2.1017,82.156
2.2669,81.716
2.3851,81.423
2.4653,81.032
2.5259,80.739
2.565,80.349
2.5826,79.909
2.5836,79.567
2.5738,79.176
2.5543,78.688
2.5259,78.199
2.4888,77.564
2.4438,76.978
2.3891,76.441
2.3265,75.904
2.2649,75.464
2.2033,75.073
2.1329,74.536
2.0577,74.097
1.9814,73.657
1.9052,73.217
1.8309,72.778
1.7634,72.289
1.7058,71.85
1.6588,71.41
1.6227,71.117
1.5953,70.873
1.5758,70.629
1.5621,70.189
1.5455,69.554
1.5269,68.919
1.5064,68.528
1.4848,68.87
1.4633,70.922
1.4438,76.197
1.4242,85.379
1.4057,96.858
1.3871,107.31
1.3675,114.44
1.348,118.54
1.3343,121.72
1.3236,125.24
1.3109,128.56
1.2991,130.56
1.2893,131
1.2776,130.56
1.2649,129.88
1.2502,128.95
1.2346,127.63
1.216,125.87
1.1945,123.87
1.174,121.62
1.1593,119.18
1.1476,116.35
1.1329,113.42
1.1193,110.44
1.1065,107.26
1.0929,103.94
1.0792,100.23
1.0655,96.565
1.0577,93.097
1.0665,90.362
1.1036,88.408
1.1789,87.138
1.2981,86.161
1.433,85.428
1.5885,84.94
1.7879,84.549
2.0059,84.305
2.218,84.11
2.4086,83.914
2.5679,83.67
2.6931,83.475
2.784,83.182
2.8475,82.791
2.8895,82.351
2.913,81.863
2.9189,81.423
2.911,80.886
2.8944,80.251
2.8661,79.567
2.826,78.932
2.7732,78.297
2.7087,77.662
2.6354,77.027
2.5533,76.49
2.4653,76.001
2.3705,75.464
2.2708,75.073
2.1818,74.634
2.0997,74.194
2.0147,73.803
1.9335,73.364
1.8612,72.924
1.8006,72.485
1.7498,72.045
1.7107,71.654
1.6804,71.215
1.6559,70.726
1.6364,70.189
1.6217,69.798
1.609,69.798
1.5992,71.215
1.5904,75.366
1.5806,83.279
1.5699,94.171
1.5562,105.11
1.5396,113.32
1.5191,118.35
1.4966,121.91
1.4731,125.58
1.4497,129.19
1.4291,131.68
1.4106,132.51
1.3959,132.17
1.3822,131.63
1.3675,130.95
1.3529,129.93
1.3392,128.26
1.3265,126.12
1.3128,123.82
1.2991,121.43
1.2835,118.94
1.2639,116.1
1.2444,113.07
1.2258,109.75
1.2072,106.28
1.1935,102.72
1.1828,99.056
1.1711,95.49
1.1672,92.315
1.1838,89.824
1.2307,88.115
1.3167,86.991
1.4467,86.161
1.6168,85.624
1.8162,85.233
2.0283,84.94
2.2356,84.696
2.4018,84.305
2.5308,83.914
2.6461,83.572
2.739,83.182
2.8084,82.742
2.8583,82.302
2.8915,81.814
2.915,81.277
2.9306,80.739
2.9394,80.104
2.9394,79.567
2.9296,78.932
2.9101,78.346
2.8817,77.76
2.8436,77.223
2.7947,76.685
2.7351,76.197
2.6647,75.611
2.5855,75.073
2.5015,74.536
2.4174,74.048
2.3353,73.559
2.2581,73.071
2.1857,72.533
2.1212,71.996
2.0684,71.508
2.0235,70.97
1.9814,70.482
1.9433,69.945
1.9081,69.359
1.8739,68.821
1.8407,68.626
1.8084,69.603
1.7781,73.315
1.7488,80.739
1.7195,91.387
1.6921,102.57
1.6657,111.32
1.6422,116.69
1.6197,120.3
1.5943,123.87
1.567,127.68
1.5396,130.51
1.5112,131.68
1.4839,131.44
1.4575,130.76
1.4311,129.97
1.4066,128.95
1.3822,127.43
1.3597,125.48
1.3431,123.23
1.3304,120.74
1.3157,118.06
1.2991,115.13
1.2815,112.05
1.262,108.82
1.2405,105.41
1.2151,101.79
1.2014,98.03
1.1955,94.416
1.1838,91.29
1.1828,88.847
1.2082,87.187
1.2561,85.917
1.3343,84.989
1.4594,84.256
1.6227,83.719
1.8084,83.377
1.999,83.133
2.175,82.937
2.3236,82.693
2.4389,82.449
2.5181,82.156
2.5679,81.814
2.5943,81.472
2.6031,81.13
2.6022,80.593
2.5963,80.104
2.5855,79.616
2.5679,79.127
2.5435,78.59
2.5093,78.053
2.4643,77.467
2.4096,76.978
2.3431,76.539
2.2649,76.099
2.1779,75.66
2.0841,75.318
1.9971,74.78
1.9159,74.243
1.826,73.657
1.7361,73.168
1.651,72.631
1.5748,72.045
1.5083,71.361
1.4536,70.726
1.4066,70.189
1.3675,69.603
1.3343,69.066
1.3069,68.675
1.2893,69.163
1.2747,71.947
1.2571,78.297
1.2366,88.359
1.2141,99.886
1.1906,109.36
1.1681,115.37
1.1466,119.03
1.1251,122.5
1.1026,126.16
1.0792,129
1.0547,130.17
1.0303,129.97
1.0117,129.24
0.99609,128.26
0.97654,126.95
0.95503,125.24
0.93353,123.23
0.91202,120.99
0.89052,118.5
0.86999,115.81
0.85337,112.78
0.83969,109.61
0.82796,106.28
0.81623,102.87
0.80841,99.3
0.80156,95.734
0.78983,92.413
0.78104,89.678
0.78299,87.724
0.80938,86.503
0.87195,85.673
0.97849,85.038
1.132,84.549
1.3245,84.158
1.5415,83.914
1.7625,83.719
1.9707,83.426
2.1339,83.133
2.2581,82.791
2.3646,82.498
2.4448,82.156
2.4995,81.814
2.5347,81.423
2.5562,80.935
2.567,80.349
2.5689,79.811
2.5621,79.176
2.5455,78.492
2.521,77.858
2.4897,77.174
2.4506,76.636
2.3998,76.099
2.3382,75.611
2.2669,75.122
2.1857,74.634
2.0978,74.048
2.0068,73.559
1.9179,72.973
1.8368,72.387
1.7683,71.85
1.7116,71.361
1.6676,70.922
1.6383,70.482
1.6188,69.994
1.6041,69.407
1.5924,69.066
1.5816,69.114
1.5689,70.482
1.5572,74.683
1.5484,82.693
1.5396,93.781
1.5337,105.01
1.5327,113.22
1.5376,118.11
1.5474,121.48
1.5611,125.24
1.5797,129
1.5992,131.49
1.6168,132.12
1.6315,131.68
1.6403,131
1.6442,130.22
1.6413,129.09
1.6325,127.53
1.6207,125.63
1.6051,123.48
1.5894,121.13
1.5748,118.5
1.5582,115.57
1.5435,112.44
1.5288,109.17
1.5152,105.75
1.5024,102.18
1.4927,98.47
1.4878,95.002
1.4907,91.925
1.5142,89.531
1.5679,87.919
1.6628,87.04
1.7752,86.405
1.913,85.917
2.0978,85.477
2.3079,85.184
2.521,84.842
2.7165,84.549
2.8807,84.061
3.0088,83.621
3.1007,83.279
3.1613,82.986
3.1994,82.693
3.2229,82.302
3.2317,81.863
3.2307,81.374
3.2278,80.886
3.2209,80.251
3.2053,79.567
3.1808,78.883
3.1457,78.102
3.0987,77.564
3.0401,76.978
2.9697,76.441
2.8886,76.001
2.8006,75.562
2.7067,75.122
2.6197,74.634
2.5376,74.097
2.4516,73.657
2.3695,73.315
2.2933,72.924
2.2248,72.485
2.1652,71.996
2.1124,71.508
2.0665,70.922
2.0264,70.531
1.9922,70.531
1.9619,71.801
1.9384,75.806
1.9189,83.426
1.9003,94.171
1.8837,105.26
1.869,113.66
1.8563,118.89
1.8446,122.55
1.8328,126.41
1.8211,130.36
1.8074,133.1
1.7908,134.13
1.7713,134.08
1.7507,133.54
1.7312,132.81
1.7107,131.63
1.6843,129.83
1.6559,127.63
1.6276,125.24
1.6002,122.7
1.5748,119.86
1.5513,116.88
1.5298,113.81
1.5093,110.63
1.4878,107.26
1.4643,103.6
1.4448,99.789
1.4272,96.174
1.4096,92.999
1.4047,90.557
1.4252,88.847
1.4839,87.626
1.5865,86.747
1.7322,85.966
1.912,85.477
2.1095,85.135
2.3079,84.793
2.4917,84.5
2.6461,84.158
2.7566,84.012
2.8338,83.719
2.8974,83.475
2.9443,83.133
2.9765,82.693
2.9961,82.253
3.0029,81.667
2.998,81.179
2.9814,80.593
2.9531,80.055
2.9101,79.567
2.8534,79.127
2.7937,78.688
2.7283,78.248
2.6491,77.76
2.5582,77.125
2.4604,76.539
2.3578,76.05
2.2551,75.562
2.1574,74.976
2.0645,74.438
1.9795,73.852
1.9062,73.364
1.8446,72.875
1.7937,72.436
1.7586,71.85
1.7322,71.215
1.7077,70.726
1.6862,70.873
1.6647,72.875
1.6422,78.199
1.6168,87.187
1.5904,98.372
1.5621,108.53
1.5337,115.61
1.5073,120.06
1.4809,123.72
1.4594,127.83
1.4409,131.54
1.4477,133.93
1.4692,134.66
1.4692,134.42
1.4575,133.74
1.4409,132.76
1.4223,131.24
1.4008,129.24
1.3754,126.99
1.348,124.5
1.3177,121.72
1.2835,118.89
1.2542,115.76
1.2258,112.54
1.1896,109.17
1.1476,105.6
1.1026,101.79
1.0587,97.932
1.0196,94.318
0.99413,91.094
0.99022,88.75
1.0186,87.04
1.086,85.917
1.1945,85.135
1.3157,84.5
1.4487,84.061
1.608,83.719
1.7713,83.475
1.9218,83.279
2.0479,83.035
2.1466,82.84
2.218,82.693
2.2659,82.351
2.2952,82.107
2.3128,81.814
2.3206,81.423
2.3216,80.984
2.3167,80.495
2.306,80.055
2.2893,79.567
2.2649,78.981
2.2307,78.444
2.1867,77.809
2.1329,77.223
2.0704,76.685
2.001,76.099
1.9267,75.464
1.8495,74.878
1.7732,74.243
1.7087,73.559
1.654,72.924
1.5992,72.289
1.5494,71.752
1.5083,71.117
1.478,70.482
1.4575,69.945
1.4438,69.31
1.434,68.968
1.4262,69.749
1.4194,72.875
1.4145,79.86
1.4076,90.313
1.4027,101.74
1.3998,110.97
1.393,116.74
1.3842,120.55
1.3754,124.36
1.3666,128.56
1.3578,131.93
1.35,133.64
1.3421,133.74
1.3363,133.25
1.3314,132.37
1.3255,131.1
1.3226,129.39
1.3206,127.14
1.3148,124.6
1.306,121.87
1.2952,118.94
1.2845,115.81
1.2737,112.54
1.262,109.17
1.2502,105.7
1.2366,101.99
1.2219,98.225
1.2072,94.513
1.2004,91.045
1.2043,88.359
1.2239,86.552
1.2678,85.428
1.3431,84.5
1.4516,83.67
1.5894,82.986
1.7449,82.595
1.9042,82.351
2.0538,82.107
2.1838,81.912
2.2903,81.863
2.3734,81.863
2.4301,81.863
2.4682,81.716
2.5024,81.618
2.5318,81.423
2.5543,81.032
2.5689,80.593
2.5738,80.153
2.5689,79.665
2.5523,79.225
2.522,78.737
2.478,78.248
2.4203,77.76
2.3597,77.174
2.2962,76.685
2.2199,76.099
2.1369,75.464
2.0508,74.78
1.9687,74.097
1.8925,73.51
1.824,72.875
1.7664,72.24
1.7195,71.557
1.6833,70.873
1.6569,70.238
1.6383,69.652
1.6276,69.554
1.6207,70.922
1.6158,75.415
1.6119,84.012
1.607,95.295
1.6022,106.04
1.5973,113.66
1.5914,118.35
1.5836,122.06
1.5738,126.07
1.5611,129.88
1.5445,132.42
1.5288,133.25
1.5132,132.81
1.4936,131.78
1.4712,130.51
1.4477,128.7
1.4233,126.31
1.3998,123.58
1.3773,120.69
1.3548,117.62
1.3343,114.44
1.3157,110.97
1.2972,107.36
1.2796,103.74
1.2669,100.03
1.2561,96.321
1.2414,92.657
1.2278,89.531
1.218,87.236
1.2199,85.721
1.2434,84.793
1.2952,84.158
1.3812,83.816
1.4995,83.621
1.6422,83.475
1.7967,83.23
1.9326,83.035
2.0479,82.84
2.1564,82.742
2.2444,82.595
2.3089,82.498
2.35,82.302
2.3724,82.009
2.3803,81.374
2.3783,80.69
2.3666,80.007
2.348,79.323
2.3226,78.59
2.2913,77.858
2.259,77.027
2.2219,76.441
2.174,75.855
2.1173,75.366
2.0538,74.878
1.9844,74.341
1.913,73.901
1.8426,73.413
1.7761,73.071
1.7155,72.533
1.6628,72.045
1.6197,71.557
1.5885,71.117
1.566,70.726
1.5445,70.238
1.5259,69.749
1.5093,69.505
1.4927,70.531
1.4751,74.341
1.4575,82.058
1.4409,93.048
1.4242,104.38
1.4086,113.12
1.392,118.54
1.3754,122.6
1.3627,126.85
1.3519,131.2
1.3402,134.32
1.3284,135.64
1.3167,135.54
1.305,134.81
1.2933,133.69
1.2825,132.07
1.2698,129.88
1.2551,127.39
1.2405,124.7
1.2258,121.82
1.216,118.79
1.2082,115.66
1.1965,112.49
1.1808,109.17
1.1642,105.6
1.1457,101.99
1.1261,98.225
1.1085,94.611
1.0958,91.387
1.0958,88.701
1.1163,86.747
1.1632,85.624
1.2434,85.184
1.3363,84.842
1.4428,84.305
1.5767,83.67
1.7214,83.23
1.8602,82.986
1.9824,82.742
2.0821,82.547
2.1564,82.498
2.2072,82.595
2.2375,82.595
2.2522,82.302
2.2532,81.667
2.2444,81.032
2.2287,80.739
2.2053,80.593
2.172,80.349
2.13,79.811
2.0782,79.03
2.0176,78.346
1.9501,77.662
1.8798,76.978
1.8065,76.343
1.7312,75.806
1.6569,75.22
1.5865,74.536
1.5298,73.901
1.4819,73.559
1.2424,127.48
1.2395,124.7
1.2326,121.57
1.2239,118.3
1.2121,114.88
1.1994,111.41
1.1857,107.85
1.1711,104.14
1.1554,100.23
1.1408,96.467
1.1349,92.999
1.1388,90.117
1.1564,87.871
1.2014,86.308
1.2805,85.233
1.3978,84.598
1.5494,84.158
1.7243,83.865
1.9091,83.475
2.089,83.182
2.2493,82.986
2.3803,82.937
2.4809,82.84
2.5503,82.595
2.5963,82.302
2.6315,82.058
2.6569,81.716
2.6725,81.374
2.6804,80.935
2.6794,80.446
2.6667,79.909
2.6442,79.323
2.61,78.59
2.567,78.004
2.5171,77.467
2.4682,77.027
2.4184,76.636
2.3578,76.099
2.2933,75.611
2.2268,75.122
2.1613,74.487
2.0968,73.901
2.0371,73.364
1.9844,72.875
1.9394,72.289
1.9032,71.654
1.8759,70.97
1.8563,70.384
1.8426,69.994
1.8319,70.482
1.8231,73.168
1.8152,79.372
1.8055,89.189
1.7937,100.57
1.7801,110.29
1.7644,116.74
1.7468,120.99
1.7283,124.99
1.7077,129.49
1.6872,133.54
1.6735,135.93
1.6637,136.42
1.653,135.79
1.6452,134.76
1.6403,133.3
1.6383,131.29
1.6354,128.85
1.6305,126.16
1.6227,123.23
1.6109,120.16
1.5963,116.93
1.5797,113.61
1.567,110.24
1.5562,106.63
1.5406,102.72
1.521,98.812
1.4985,95.099
1.478,91.876
1.4653,89.092
1.4721,87.04
1.5054,85.575
1.5709,84.598
1.6716,83.914
1.8035,83.621
1.955,83.377
2.0958,83.23
2.2239,82.986
2.3558,82.742
2.4721,82.693
2.564,82.693
2.6315,82.595
2.6784,82.351
2.7067,82.009
2.7204,81.472
2.7224,80.935
2.7155,80.349
2.6989,79.665
2.6764,78.932
2.6481,78.053
2.61,77.223
2.5601,76.734
2.5005,76.441
2.433,76.246
2.3587,75.806
2.2796,75.22
2.1975,74.536
2.1163,73.999
2.0381,73.413
1.9668,72.875
1.9052,72.387
1.8592,71.85
1.825,71.361
1.7957,70.824
1.7722,70.287
1.7546,69.847
1.74,69.603
1.7263,70.482
1.7107,74.048
1.694,81.667
1.6755,92.608
1.6549,103.99
1.6305,112.68
1.61,118.06
1.5904,122.16
1.5679,126.7
1.5445,131.44
1.523,135.05
1.5034,136.67
1.4848,136.76
1.4673,135.79
1.4516,134.52
1.436,132.81
1.4203,130.61
1.4027,128.07
1.3832,125.29
1.3685,122.31
1.3578,119.18
1.346,115.81
1.3343,112.39
1.3216,108.73
1.306,104.92
1.2884,100.91
1.2688,96.858
1.2483,92.999
1.2336,89.678
1.2317,86.991
1.2532,85.233
1.2952,84.158
1.3646,83.475
1.4731,82.937
1.6158,82.449
1.782,82.107
1.957,82.058
2.1251,82.058
2.2737,81.912
2.3978,81.814
2.4936,81.716
2.563,81.618
2.608,81.472
2.6344,81.277
2.6452,81.032
2.6461,80.739
2.6413,80.349
2.6305,79.909
2.6119,79.469
2.5855,79.127
2.5513,78.883
2.5083,78.492
2.4565,78.102
2.3969,77.613
2.3294,76.978
2.2561,76.343
2.1877,75.757
2.1212,75.171
2.0469,74.634
1.9717,73.999
1.9003,73.217
1.8358,72.436
1.782,71.752
1.739,71.166
1.7058,70.629
1.6823,70.238
1.6657,70.97
1.6549,74.536
1.6491,82.156
1.6471,93.097
1.6461,104.28
1.6422,112.63
1.6383,117.57
1.6334,121.18
1.6276,125.24
1.6207,129.53
1.6129,132.81
1.6031,134.17
1.5904,134.08
1.5767,133.2
1.5611,131.88
1.5484,130.17
1.5367,127.97
1.5191,125.29
1.4976,122.31
1.4761,119.03
1.4545,115.61
1.433,112.05
1.4106,108.43
1.3851,104.72
1.3597,100.91
1.3324,97.102
1.304,93.439
1.2776,89.971
1.26,87.284
1.2561,85.428
1.2688,84.305
1.3109,83.475
1.39,82.937
1.5083,82.547
1.6588,82.351
1.8319,82.156
2.0098,82.009
2.176,81.716
2.3196,81.57
2.434,81.423
2.5093,81.374
2.5562,81.228
2.5875,80.935
2.6031,80.593
2.6061,80.3
2.5973,80.104
2.5787,79.86
2.5523,79.469
2.5171,78.932
2.4741,78.297
2.4242,77.613
2.3685,76.978
2.3079,76.343
2.2502,75.855
2.1916,75.22
2.1417,74.634
2.089,73.999
2.0098,73.51
1.9218,73.071
1.8348,72.68
1.7566,72.192
1.694,71.654
1.6491,71.215
1.6188,70.873
1.6012,70.433
1.5943,69.847
1.5943,69.798
1.5953,71.41
1.5934,76.294
1.5875,85.135
1.5767,96.369
1.5611,106.87
1.5435,114.34
1.5269,119.18
1.5122,123.43
1.4985,128.26
1.4848,132.76
1.4721,135.69
1.4653,136.57
1.4614,135.98
1.4555,134.86
1.4467,133.34
1.4379,131.49
1.4282,129
1.4164,126.07
1.4047,122.94
1.3949,119.81
1.3851,116.69
1.3763,113.56
1.3685,110.19
1.3666,106.68
1.3695,103.06
1.3685,99.3
1.3656,95.637
1.3656,92.218
1.3715,89.434
1.392,87.236
1.437,85.624
1.5161,84.549
1.6334,83.816
1.7898,83.377
1.9765,83.182
2.1525,82.986
2.3187,82.742
2.4966,82.498
2.6637,82.302
2.8084,82.253
2.9247,82.156
3.0137,81.912
3.0792,81.618
3.1241,81.228
3.1525,80.935
3.1662,80.544
3.1681,80.104
3.1554,79.469
3.13,78.883
3.0958,78.248
3.0508,77.76
2.9951,77.223
2.9306,76.783
2.8602,76.246
2.7849,75.66
2.7067,75.171
2.6276,74.731
2.5513,74.341
2.48,73.852
2.4145,73.217
2.3597,72.631
2.3128,71.996
2.2659,71.508
2.2199,70.97
2.175,70.433
2.1329,69.994
2.0958,70.384
2.0616,72.924
2.0303,79.03
2.002,88.799
1.9795,100.13
1.9629,109.56
1.9492,115.81
1.9374,120.11
1.9267,124.41
1.912,129.29
1.8964,133.44
1.8788,135.69
1.8612,136.18
1.8446,135.74
1.8299,134.91
1.8162,133.69
1.8025,131.63
1.7889,128.95
1.7732,125.92
1.7586,122.84
1.7449,119.77
1.7292,116.44
1.7126,112.88
1.696,109.12
1.6794,105.36
1.6628,101.55
1.6432,97.737
1.6197,93.976
1.5982,90.557
1.5865,87.675
1.5953,85.624
1.6354,84.256
1.6989,83.377
1.7898,82.693
1.9267,82.156
2.1007,81.814
2.2952,81.618
2.4946,81.57
2.6813,81.472
2.8446,81.374
2.9795,81.179
3.0841,80.935
3.1603,80.69
3.2141,80.495
3.2434,80.251
3.2561,80.007
3.261,79.469
3.2561,78.883
3.2405,78.199
3.2131,77.613
3.173,77.174
3.1193,76.783
3.0499,76.246
2.9677,75.611
2.8759,74.976
2.7771,74.536
2.6735,74.097
2.5797,73.608
2.4946,72.973
2.4057,72.24
2.3196,71.508
2.2434,70.824
2.1789,70.189
2.1271,69.554
2.088,68.724
2.0587,67.942
2.0362,67.503
2.0186,68.431
2.0029,72.094
1.9912,79.567
1.9804,90.362
1.9677,101.74
1.9521,110.73
1.9345,116.44
1.914,120.5
1.8905,124.75
1.8651,129.39
1.8407,133
1.8162,134.76
1.7898,134.86
1.7605,134.13
1.7302,132.86
1.7058,131.05
1.6843,128.7
1.6598,125.82
1.6344,122.94
1.61,120.01
1.5885,116.88
1.5679,113.42
1.5503,109.8
1.5347,106.19
1.52,102.57
1.5054,98.909
1.4878,95.246
1.4741,91.534
1.4624,88.359
1.4506,85.917
1.4516,84.354
1.4809,83.377
1.5503,82.547
1.6647,81.912
1.8231,81.472
2.0147,81.228
2.2219,81.179
2.4262,81.13
2.6109,81.032
2.7664,80.886
2.8768,80.593
2.9531,80.349
3.0137,80.153
3.0547,80.055
3.0792,79.811
3.088,79.372
3.0821,78.883
3.0645,78.444
3.0371,78.004
2.998,77.613
2.9482,77.125
2.8895,76.539
2.8289,76.001
2.7664,75.464
2.6911,74.976
2.61,74.487
2.523,73.901
2.434,73.217
2.348,72.533
2.2659,71.85
2.1906,71.312
2.1232,70.677
2.0655,70.042
2.0166,69.31
1.9765,68.626
1.9482,68.235
1.9247,68.919
1.9003,72.094
1.8739,79.176
1.8475,89.824
1.8231,101.16
1.7996,110.19
1.7761,115.81
1.7537,119.57
1.7312,123.43
1.7097,127.68
1.6872,131.05
1.6696,132.66
1.653,132.56
1.6295,131.63
1.6002,130.32
1.5679,128.41
1.5327,125.97
1.4946,123.14
1.4585,120.01
1.4262,116.93
1.3988,113.76
1.3763,110.44
1.3578,106.92
1.3421,103.31
1.3333,99.593
1.3255,95.881
1.3109,92.218
1.2893,89.043
1.2639,86.552
1.2414,84.793
1.2317,83.719
1.2454,82.986
1.2952,82.498
1.3881,82.058
1.523,81.716
1.6911,81.423
1.8534,81.277
2.0088,81.179
2.173,81.032
2.3275,80.935
2.4614,80.935
2.5699,80.886
2.6549,80.69
2.7195,80.3
2.7674,79.909
2.7351,79.421
2.6569,78.883
2.6149,78.199
2.5865,77.467
2.5591,76.783
2.5259,76.099
2.4848,75.464
2.434,74.927
2.3734,74.341
2.305,73.803
2.2297,73.168
2.1515,72.631
2.0762,71.996
2.0059,71.41
1.9433,70.922
1.8915,70.433
1.8543,69.847
1.8289,69.261
1.8074,68.626
1.7918,68.089
1.7801,68.04
1.7703,69.359
1.7605,73.657
1.7498,82.009
1.738,93.195
1.7263,104.23
1.7165,112.24
1.7067,117.18
1.7009,121.04
1.6979,125.29
1.694,129.53
1.6872,132.37
1.6794,133.3
1.6716,132.86
1.6637,131.78
1.653,130.32
1.6393,128.36
1.6246,125.97
1.61,123.28
1.5963,120.6
1.5865,117.76
1.5816,114.64
1.5787,111.36
1.5728,107.99
1.564,104.62
1.5523,101.16
1.5357,97.591
1.5122,93.976
1.4839,90.606
1.4575,87.822
1.4418,85.721
1.4526,84.354
1.5005,83.377
1.5738,82.547
1.6794,82.009
1.8377,81.618
2.0381,81.423
2.261,81.277
2.4848,81.13
2.6911,80.886
2.8671,80.69
3.0068,80.544
3.1114,80.446
3.1838,80.251
3.2307,79.909
3.2561,79.469
3.26,79.03
3.2473,78.541
3.2219,78.102
3.1818,77.564
3.1281,76.978
3.0616,76.343
2.9863,75.904
2.9042,75.464
2.8162,75.171
2.7243,74.731
2.6295,74.194
2.5327,73.559
2.4448,72.924
2.3646,72.485
2.2805,72.045
2.1984,71.605
2.1212,71.068
2.0528,70.482
1.9961,69.945
1.9492,69.407
1.911,69.114
1.8807,69.652
1.8583,72.533
1.8407,79.127
1.826,89.287
1.8143,100.67
1.8045,110
1.7928,116
1.7801,120.06
1.7674,124.11
1.7546,128.56
1.74,132.17
1.7234,133.98
1.7067,134.22
1.6891,133.54
1.6725,132.56
1.6549,131
1.6413,128.85
1.6276,126.26
1.61,123.43
1.5924,120.5
1.5758,117.37
1.5611,114
1.5474,110.63
1.5337,107.31
1.52,103.84
1.5034,100.18
1.4839,96.321
1.4643,92.608
1.4477,89.482
1.4389,86.991
1.4457,85.233
1.477,84.061
1.5474,83.23
1.6628,82.693
1.825,82.302
2.0264,82.107
2.2512,82.009
2.48,81.814
2.6911,81.618
2.8719,81.423
3.0156,81.374
3.1114,81.179
3.1711,80.886
3.2151,80.495
3.2414,80.055
3.2512,79.616
3.2473,79.03
3.2317,78.444
3.2043,77.76
3.1662,77.174
3.1173,76.685
3.0587,76.05
2.9902,75.464
2.914,74.927
2.8377,74.487
2.7615,73.999
2.6735,73.413
2.5787,72.875
2.4819,72.289
2.3881,71.801
2.2981,71.312
2.218,70.873
2.1496,70.287
2.0929,69.749
2.0489,69.163
2.0166,68.724
1.9932,68.919
1.9775,70.922
1.9658,76.246
1.9531,85.379
1.9384,96.565
1.9228,106.72
1.9062,113.66
1.8895,118.06
1.871,121.82
1.8534,125.97
1.8368,129.88
1.8172,132.17
1.7977,132.76
1.7801,132.17
1.7634,131.24
1.7439,129.88
1.7214,127.92
1.695,125.43
1.6647,122.7
1.6325,119.86
1.5992,116.93
1.566,113.76
1.5347,110.44
1.5054,106.97
1.478,103.45
1.4565,99.789
1.4379,96.125
1.4164,92.608
1.3939,89.482
1.3763,86.943
1.3724,85.038
1.3949,83.719
1.4565,82.742
1.5679,82.009
1.7302,81.423
1.9335,81.032
2.1632,80.788
2.3978,80.69
2.5924,80.495
2.7517,80.3
2.9013,80.104
3.0225,80.007
3.1105,79.86
3.1681,79.665
3.1994,79.225
3.2082,78.737
3.1984,78.199
3.175,77.76
3.1378,77.223
3.088,76.734
3.0332,76.099
2.9717,75.562
2.8964,74.976
2.8084,74.536
2.7107,74.048
2.6051,73.559
2.4946,73.071
2.3832,72.533
2.2757,72.045
2.175,71.557
2.085,70.97
2.0078,70.482
1.9433,69.994
1.8964,69.505
1.8631,68.87
1.8358,68.235
1.8152,67.942
1.7986,68.87
1.783,72.24
1.7693,79.323
1.7556,89.482
1.7429,100.37
1.7292,109.07
1.7136,114.69
1.697,118.54
1.6833,122.45
1.6716,126.56
1.6569,129.88
1.6393,131.44
1.6178,131.39
1.5953,130.36
1.5728,129.05
1.5484,127.39
1.522,125.19
1.4936,122.5
1.4653,119.57
1.4379,116.54
1.4174,113.51
1.3998,110.24
1.3783,106.82
1.3539,103.35
1.3304,99.886
1.3079,96.321
1.2845,92.755
1.261,89.385
1.2395,86.503
1.2278,84.354
1.2385,82.937
1.2835,81.863
1.3734,80.984
1.4858,80.446
1.6246,80.104
1.8123,80.055
1.9677,79.909
2.0968,79.762
2.2581,79.616
2.4135,79.567
2.5464,79.469
2.6491,79.225
2.7195,78.932
2.7634,78.541
2.7849,78.199
2.7869,77.76
2.7752,77.223
2.7546,76.734
2.7234,76.294
2.6804,75.806
2.6276,75.366
2.567,74.878
2.4966,74.438
2.4194,73.999
2.3353,73.559
2.2463,73.071
2.1515,72.533
2.0538,71.996
1.9687,71.41
1.8935,70.873
1.8143,70.287
1.738,69.798
1.6696,69.261
1.6129,68.675
1.566,68.089
1.5288,67.698
1.4995,67.698
1.478,69.066
1.4594,73.51
1.4428,81.814
1.4311,92.804
1.4194,103.35
1.4057,110.83
1.39,115.32
1.3754,118.79
1.3597,122.7
1.3421,126.31
1.3206,128.61
1.2952,129.05
1.2678,128.41
1.2414,127.29
1.2131,125.87
1.1848,123.87
1.1632,121.38
1.1457,118.59
1.1251,115.76
1.1056,112.88
1.089,109.8
1.0743,106.48
1.0606,103.06
1.0469,99.593
1.0293,96.125
1.0078,92.608
0.98143,89.238
0.9521,86.356
0.93157,84.256
0.92375,82.84
0.93157,82.009
0.97165,81.374
1.0557,80.935
1.1877,80.593
1.3617,80.495
1.566,80.349
1.783,80.251
1.9902,80.104
2.172,80.007
2.3196,79.86
2.4301,79.762
2.4985,79.469
2.5347,79.225
2.5543,78.932
2.5582,78.541
2.5503,78.199
2.5318,77.662
2.5044,77.174
2.4663,76.734
2.4194,76.294
2.3656,75.806
2.304,75.318
2.2336,74.878
2.1652,74.438
2.0978,73.901
2.0205,73.364
1.9374,72.729
1.8543,72.192
1.7732,71.605
1.6999,70.97
1.6364,70.384
1.5846,69.798
1.5435,69.261
1.5142,68.675
1.4946,68.284
1.48,68.479
1.4712,70.531
1.4643,75.904
1.4575,85.184
1.4477,96.467
1.434,106.38
1.4194,112.78
1.4037,116.74
1.3851,120.3
1.3646,124.16
1.3441,127.29
1.3236,128.75
1.303,128.61
1.2864,127.68
1.2717,126.51
1.2542,124.99
1.2375,122.99
1.2239,120.6
1.2131,118.01
1.2033,115.22
1.1945,112.39
1.1857,109.31
1.1769,106.14
1.1681,102.82
1.1564,99.544
1.1417,96.174
1.131,92.657
1.1202,89.287
1.1056,86.356
1.0938,84.256
1.0929,82.937
1.1153,82.156
1.174,81.618
1.2786,81.179
1.4321,80.935
1.6266,80.788
1.8475,80.69
2.0753,80.544
2.2669,80.3
2.4233,80.055
2.5679,79.86
2.6843,79.616
2.7703,79.323
2.827,78.932
2.8583,78.541
2.87,78.102
2.8651,77.613
2.8465,77.027
2.8143,76.441
2.7713,75.806
2.7185,75.318
2.6637,74.78
2.6041,74.243
2.5337,73.755
2.4565,73.217
2.3744,72.729
2.2884,72.24
2.1975,71.752
2.1075,71.166
2.0215,70.726
1.9404,70.384
1.8671,69.945
1.8025,69.505
1.7527,68.968
1.7146,68.431
1.6794,67.942
1.65,67.503
1.6246,67.747
1.6022,69.554
1.5806,74.634
1.5591,83.572
1.5386,94.806
1.5181,105.26
1.4985,112.39
1.48,116.64
1.4604,120.01
1.4428,123.87
1.4252,127.63
1.4047,129.88
1.3822,130.22
1.3568,129.49
1.3284,128.51
1.2952,127.43
1.261,125.87
1.2297,123.62
1.2014,121.04
1.175,118.5
1.1496,115.86
1.131,112.98
1.1183,109.8
1.1056,106.48
1.0929,103.11
1.0802,99.74
1.0674,96.223
1.0528,92.755
1.0362,89.482
1.0244,86.943
1.0254,85.135
1.0508,84.012
1.1134,83.182
1.1984,82.498
1.3148,81.863
1.4819,81.57
1.6852,81.374
1.9042,81.277
2.1183,81.13
2.3109,80.788
2.4741,80.495
2.6041,80.3
2.6999,80.055
2.7654,79.762
2.8045,79.323
2.8211,78.737
2.8192,78.248
2.8025,77.809
2.7752,77.32
2.7361,76.636
2.6872,75.855
2.6276,75.171
2.5591,74.731
2.4839,74.292
2.4018,73.852
2.3148,73.364
2.2278,72.778
2.1398,72.289
2.0616,71.85
1.9892,71.41
1.912,70.97
1.8368,70.531
1.7644,70.091
1.6989,69.652
1.6413,69.114
1.5924,68.431
1.5494,67.844
1.5103,67.942
1.4761,69.603
1.4448,74.487
1.4145,83.133
1.391,93.976
1.3715,104.14
1.3519,111.22
1.3314,115.61
1.3099,119.13
1.2864,122.94
1.263,126.51
1.2395,128.75
1.218,129.29
1.1955,128.8
1.172,127.87
1.1476,126.6
1.1281,124.8
1.1114,122.5
1.0899,120.06
1.0655,117.47
1.042,114.78
2.6999,77.125
2.6921,76.636
2.6735,76.05
2.6452,75.415
2.607,74.683
2.5601,74.048
2.5044,73.559
2.4389,73.168
2.3724,72.729
2.304,72.094
2.2239,71.557
2.1349,71.117
2.042,70.726
1.9501,70.384
1.8651,69.847
1.7889,69.31
1.7243,68.821
1.6696,68.382
1.6266,67.942
1.5953,67.405
1.5738,66.819
1.5582,66.526
1.5415,67.698
1.5249,71.654
1.5073,79.421
1.4878,90.069
1.4643,100.62
1.437,108.43
1.4057,113.22
1.3724,116.69
1.3392,120.25
1.304,123.82
1.2688,126.31
1.2414,127.19
1.218,126.85
1.1926,125.92
1.1681,124.75
1.1457,123.04
1.1261,120.74
1.1095,118.2
1.0919,115.57
1.0733,112.93
1.0557,110
1.0381,106.82
1.0225,103.45
1.0127,100.18
1.0059,96.858
0.99511,93.488
0.98143,90.069
0.96774,86.845
0.95797,84.354
0.95797,82.595
0.98045,81.423
1.0371,80.544
1.1388,79.811
1.2874,79.176
1.479,78.786
1.6999,78.688
1.9013,78.541
2.0831,78.444
2.2678,78.199
2.4301,77.906
2.5591,77.662
2.652,77.564
2.7107,77.418
2.7419,77.174
2.7537,76.734
2.7527,76.246
2.741,75.757
2.7175,75.318
2.6872,74.78
2.6491,74.194
2.6012,73.559
2.5415,72.973
2.4682,72.533
2.3803,72.192
2.2796,71.801
2.1701,71.312
2.0547,70.726
1.9384,70.238
1.827,69.847
1.7234,69.505
1.6315,68.968
1.5611,68.382
1.5064,67.698
1.4565,67.063
1.4154,66.526
1.3812,66.037
1.3539,65.793
1.3304,66.477
1.3069,69.505
1.2835,76.246
1.259,86.503
1.2326,97.542
1.2063,106.28
1.1867,111.61
1.1701,115.08
1.1486,118.3
1.1281,121.62
1.1065,123.92
1.087,124.55
1.0674,123.87
1.0479,122.55
1.0264,121.13
1.0039,119.37
0.9824,117.18
0.96188,114.64
0.94428,111.95
0.93451,109.12
0.92962,106.28
0.92473,103.31
0.91984,100.23
0.91496,96.907
0.91105,93.536
0.90616,90.215
0.89834,87.138
0.88759,84.5
0.87683,82.547
0.87292,81.179
0.88661,80.3
0.91984,79.665
0.98143,79.372
1.089,79.225
1.2454,79.127
1.4389,78.883
1.654,78.541
1.8739,78.346
2.0792,78.248
2.2532,78.102
2.39,77.906
2.4897,77.613
2.5552,77.174
2.5924,76.783
2.607,76.441
2.6061,76.05
2.5943,75.611
2.5709,75.073
2.5357,74.438
2.4917,73.901
2.4379,73.559
2.3754,73.168
2.306,72.778
2.2317,72.289
2.1535,71.752
2.0733,71.312
2.0039,70.922
1.9394,70.531
1.8719,70.091
1.8065,69.554
1.7498,68.968
1.7028,68.431
1.6647,68.04
1.6334,67.698
1.61,67.258
1.5904,66.819
1.5728,66.965
1.5552,69.261
1.5415,75.122
1.5308,84.696
1.5181,95.783
1.5044,105.16
1.4897,111.17
1.4741,114.88
1.4594,118.11
1.4457,121.57
1.4311,124.26
1.4145,125.19
1.3959,124.7
1.3763,123.62
1.3558,122.5
1.3402,121.04
1.3265,119.03
1.3118,116.69
1.2952,114.2
1.2766,111.61
1.259,108.92
1.2424,106.14
1.2258,103.11
1.2102,99.935
1.1955,96.662
1.1808,93.341
1.1642,90.166
1.1515,87.138
1.1408,84.403
1.13,82.351
1.131,81.13
1.1564,80.349
1.219,79.909
1.3294,79.616
1.4888,79.421
1.6891,79.323
1.9159,79.127
2.1457,78.981
2.3587,78.883
2.5396,78.737
2.6667,78.59
2.7507,78.346
2.8123,78.053
2.8485,77.809
2.8641,77.418
2.8661,76.978
2.8553,76.441
2.8338,75.806
2.8016,75.171
2.7605,74.536
2.7097,73.999
2.65,73.51
2.5894,72.924
2.5239,72.436
2.4477,71.947
2.3617,71.508
2.2698,71.068
2.176,70.629
2.0831,70.189
1.9941,69.749
1.913,69.31
1.8426,68.968
1.784,68.675
1.737,68.186
1.6999,67.6
1.6735,66.965
1.653,66.477
1.6325,66.526
1.6139,68.089
1.5992,72.68
1.5865,80.935
1.5728,91.778
1.5572,102.38
1.5415,109.85
1.5249,114.34
1.5083,117.62
1.4917,121.13
1.479,124.5
1.4663,126.7
1.4487,127.24
1.4301,126.7
1.4438,125.82
1.4731,124.7
1.477,123.14
1.4702,121.13
1.4585,118.89
1.4438,116.44
1.4282,113.81
1.4125,110.97
1.3959,107.95
1.3851,104.82
1.3773,101.6
1.3675,98.225
1.3548,94.806
1.3421,91.436
1.3294,88.359
1.3177,85.917
1.3148,84.158
1.3343,82.937
1.3881,82.009
1.4878,81.277
1.6364,80.788
1.7967,80.495
1.9717,80.3
2.1828,80.251
2.4027,80.055
2.608,79.86
2.782,79.567
2.9179,79.225
3.0156,78.932
3.0782,78.59
3.1153,78.199
3.132,77.662
3.132,77.125
3.1202,76.539
3.0997,76.001
3.0723,75.366
3.0381,74.731
2.9951,74.097
2.9423,73.608
2.8788,73.12
2.8025,72.631
2.7155,72.094
2.6188,71.605
2.5171,71.166
2.4135,70.677
2.3118,70.238
2.2248,69.798
2.1505,69.407
2.0782,69.114
2.0147,68.626
1.9619,68.089
1.9198,67.503
1.8876,66.916
1.8641,66.672
1.8436,67.6
1.8231,71.215
1.8025,78.492
1.782,88.799
1.7595,99.495
1.738,107.75
1.7185,112.88
1.696,116.25
1.6725,119.67
1.6481,123.14
1.6237,125.72
1.5992,126.75
1.5758,126.41
1.5533,125.48
1.5318,124.36
1.5112,122.94
1.4917,120.99
1.4761,118.69
1.4633,116.2
1.4487,113.61
1.433,110.83
1.4164,107.8
1.4008,104.67
1.3842,101.5
1.3666,98.177
1.348,94.806
1.3275,91.387
1.3069,88.115
1.2903,85.428
1.2825,83.426
1.2903,82.107
1.3216,81.179
1.39,80.544
1.5044,80.055
1.6628,79.762
1.8573,79.567
2.0733,79.372
2.2913,79.225
2.4946,78.981
2.6696,78.737
2.8084,78.492
2.9101,78.248
2.9717,77.906
3.0049,77.564
3.0264,77.125
3.0342,76.636
3.0313,76.05
3.0176,75.415
2.9941,74.878
2.9599,74.243
2.915,73.657
2.8592,73.12
2.7908,72.533
2.7126,72.094
2.6246,71.654
2.5396,71.312
2.4555,70.873
2.3636,70.384
2.2688,69.945
2.1769,69.505
2.0919,69.066
2.0166,68.626
1.9531,68.186
1.9003,67.6
1.8583,67.063
1.8231,66.477
1.7947,66.135
1.7732,66.526
1.7556,69.114
1.737,75.122
1.7195,84.598
1.7009,95.49
1.6784,104.67
1.6549,110.63
1.6295,114.25
1.6022,117.42
1.5748,120.89
1.5484,123.87
1.5249,125.43
1.5034,125.43
1.4858,124.6
1.4731,123.48
1.4594,122.16
1.4448,120.45
1.4291,118.25
1.4125,115.81
1.3959,113.22
1.3783,110.49
1.3587,107.51
1.3372,104.28
1.3167,101.06
1.2962,97.786
1.2805,94.513
1.2678,91.192
1.2502,88.115
1.2326,85.477
1.2209,83.475
1.2239,82.107
1.2532,81.032
1.3206,80.3
1.433,79.811
1.5904,79.421
1.7849,79.176
2.0029,78.981
2.1975,78.786
2.3685,78.59
2.5376,78.346
2.6843,78.102
2.7996,77.809
2.8837,77.467
2.9404,77.027
2.9746,76.539
2.9902,76.05
2.9932,75.562
2.9863,74.976
2.9687,74.438
2.9384,73.803
2.9022,73.217
2.8573,72.68
2.7986,72.192
2.7253,71.752
2.6393,71.361
2.5435,70.97
2.4438,70.629
2.3431,70.189
2.2444,69.749
2.1505,69.31
2.0655,68.87
1.9902,68.431
1.9326,67.991
1.8886,67.503
1.8504,67.063
1.8172,66.526
1.7898,66.037
1.7654,65.988
1.7429,67.258
1.7204,71.166
1.697,78.786
1.6725,89.189
1.6481,99.495
1.6237,107.12
1.6002,111.66
1.5826,114.78
1.567,118.01
1.5484,121.18
1.5288,123.38
1.5093,124.06
1.4888,123.58
1.4692,122.5
1.4506,121.23
1.4311,119.57
1.4096,117.42
1.3871,114.93
1.3636,112.29
1.347,109.61
1.3353,106.72
1.3236,103.7
1.3118,100.47
1.2991,97.2
1.2845,93.878
1.2669,90.41
1.2483,87.04
1.2307,84.012
1.217,81.716
1.2131,80.3
1.2307,79.372
1.2796,78.737
1.35,78.248
1.4487,77.906
1.5963,77.809
1.782,77.809
1.9912,77.76
2.2033,77.662
2.3988,77.467
2.566,77.32
2.697,77.125
2.7928,76.783
2.8573,76.49
2.8954,76.05
2.911,75.562
2.912,75.073
2.9042,74.536
2.8866,73.999
2.8592,73.51
2.8211,72.973
2.7703,72.485
2.7077,72.045
2.6334,71.605
2.5494,71.166
2.4565,70.824
2.3578,70.433
2.2532,70.042
2.1584,69.554
2.0723,68.968
1.9814,68.431
1.8944,67.844
1.8162,67.307
1.7498,66.672
1.696,66.135
1.654,65.549
1.6227,65.109
1.5992,65.256
1.5327,66.965
1.4428,71.752
1.391,80.251
1.3587,90.997
1.3324,100.86
1.3089,107.7
1.2874,111.61
1.2678,114.54
1.2483,117.57
1.2268,120.11
1.2043,121.43
1.1808,121.28
1.1584,120.25
1.1378,118.79
1.1193,117.13
1.1065,115.13
1.0968,112.73
1.0831,110.19
1.0665,107.55
1.0499,104.82
1.0323,101.94
1.0147,98.909
1,95.783
0.98534,92.657
0.9697,89.482
0.95112,86.503
0.92962,83.865
0.91202,81.912
0.90029,80.593
0.89345,79.86
0.90323,79.421
0.94428,79.03
1.0283,78.786
1.1613,78.59
1.3392,78.444
1.5503,78.248
1.7761,78.004
1.9961,77.809
2.1916,77.662
2.3509,77.564
2.4614,77.32
2.5327,76.978
2.5836,76.636
2.6129,76.099
2.6246,75.611
2.6217,75.073
2.6061,74.487
2.5806,73.999
2.5445,73.51
2.4985,72.973
2.4418,72.533
2.3734,72.094
2.304,71.752
2.2336,71.312
2.1525,70.873
2.0645,70.433
1.9726,69.945
1.8827,69.359
1.7977,68.87
1.7214,68.479
1.6569,68.04
1.6022,67.6
1.5591,67.112
1.5269,66.526
1.5024,66.135
1.4848,66.379
1.4702,68.382
1.4545,73.657
1.4389,82.791
1.4223,93.781
1.4066,103.55
1.392,110
1.3783,113.81
1.3646,116.79
1.348,120.01
1.3294,122.6
1.3099,123.82
1.2923,123.62
1.2766,122.7
1.261,121.48
1.2444,120.11
1.2278,118.35
1.2111,116.2
1.1945,113.86
1.1779,111.41
1.1603,108.82
1.1457,105.99
1.1349,103.06
1.129,99.984
1.1261,96.907
1.1261,93.732
1.1271,90.606
1.1261,87.626
1.1222,85.038
1.1183,83.23
1.1222,82.058
1.1466,81.374
1.2043,80.788
1.3069,80.446
1.4575,80.055
1.6491,79.811
1.871,79.616
2.0723,79.372
2.2561,79.127
2.4448,78.786
2.6119,78.541
2.7468,78.297
2.8465,78.004
2.914,77.564
2.9541,77.125
2.9717,76.636
2.9726,76.001
2.9589,75.366
2.9335,74.78
2.8983,74.243
2.8543,73.657
2.7996,73.12
2.7361,72.631
2.6628,72.094
2.5797,71.654
2.4897,71.312
2.3949,70.873
2.2981,70.384
2.2033,69.945
2.1144,69.407
2.0342,68.968
1.9648,68.626
1.911,68.235
1.869,67.796
1.8328,67.307
1.8045,66.721
1.782,66.281
1.7625,66.623
1.7439,68.87
1.7263,74.487
1.7067,83.719
1.6852,94.855
1.6647,104.67
1.6442,111.12
1.6266,114.98
1.61,118.11
1.5914,121.57
1.5699,124.6
1.5474,126.26
1.523,126.36
1.4985,125.58
1.4741,124.55
1.4516,123.38
1.4291,121.72
1.4057,119.67
1.3832,117.37
1.3617,114.93
1.3431,112.44
1.3245,109.66
1.303,106.63
1.2825,103.45
1.2639,100.13
1.2444,96.809
1.2229,93.439
1.2014,90.166
1.1808,87.284
1.1662,85.135
1.1672,83.475
1.1965,82.449
1.2483,81.667
1.3333,81.13
1.4712,80.739
1.6579,80.495
1.8798,80.251
2.1163,80.055
2.349,79.811
2.5591,79.567
2.7322,79.225
2.8671,78.932
2.9648,78.688
3.0293,78.248
3.0665,77.76
3.0811,77.223
3.0821,76.636
3.0782,76.05
3.0684,75.415
3.0479,74.878
3.0156,74.292
2.9707,73.803
2.911,73.315
2.8368,72.778
2.7478,72.387
2.6471,71.947
2.5396,71.508
2.4409,71.117
2.346,70.677
2.2454,70.238
2.1466,69.749
2.0577,69.31
1.9804,68.919
1.9159,68.479
1.8661,67.991
1.828,67.405
1.7977,66.965
1.7722,67.551
1.7488,70.384
1.7273,76.734
1.7087,86.356
1.6911,97.102
1.6716,106.14
1.652,111.85
1.6305,115.42
1.6061,118.59
1.5777,121.91
1.5484,124.6
1.521,125.87
1.4946,125.72
1.4692,124.99
1.4438,124.02
1.4223,122.75
1.4047,120.99
1.3851,118.79
1.3646,116.44
1.3441,113.9
1.3236,111.22
1.3001,108.29
1.2766,105.26
1.2551,102.13
1.2336,98.86
1.2102,95.441
1.1857,91.973
1.1613,88.701
1.1447,85.868
1.1369,83.67
1.1369,82.302
1.1593,81.423
1.218,80.886
1.3236,80.446
1.477,80.104
1.6745,79.86
1.9003,79.811
2.1339,79.665
2.3548,79.469
2.5494,79.323
2.6911,78.981
2.7889,78.688
2.8671,78.297
2.9228,77.809
2.958,77.223
2.9765,76.636
2.9814,76.05
2.9765,75.415
2.9638,74.927
2.9404,74.341
2.9042,73.803
2.8543,73.217
2.7908,72.729
2.7224,72.289
2.6491,71.85
2.5611,71.508
2.4624,71.068
2.3548,70.677
2.2463,70.238
2.1466,69.798
2.0567,69.407
1.9785,68.919
1.911,68.431
1.8534,67.942
1.8065,67.356
1.7713,66.868
1.7439,66.721
1.7214,67.844
1.7038,71.654
1.6872,79.127
1.6706,89.385
1.654,99.935
1.6364,107.95
1.6178,112.88
1.5992,116.05
1.5787,119.13
1.5572,122.26
1.5357,124.41
1.5171,125.19
1.5005,124.7
1.479,123.82
1.4555,122.75
1.4301,121.23
1.4047,119.23
1.3793,116.98
1.3558,114.54
1.3363,112
1.3187,109.12
1.3021,106.14
1.2874,103.01
1.2776,99.789
1.2708,96.467
1.261,93.195
1.2473,90.069
1.2317,87.236
1.2151,84.94
1.2043,83.23
1.2082,82.156
1.2395,81.423
1.3089,80.788
1.4233,80.251
1.5816,80.007
1.7752,79.909
1.957,79.811
2.1281,79.469
2.3099,79.127
2.478,78.786
2.6178,78.444
2.7253,77.858
2.7996,77.174
2.8465,76.539
2.8729,76.05
2.8827,75.464
2.8817,74.78
2.87,74.097
2.8495,73.51
2.8192,72.924
2.7791,72.436
2.7302,71.85
2.6706,71.361
2.5992,70.97
2.5181,70.629
2.4291,70.091
2.3353,69.603
2.2405,69.261
2.1466,68.919
2.0587,68.528
1.9775,67.991
1.911,67.405
1.8573,66.965
1.8074,66.623
1.7625,66.184
1.7234,65.598
1.6891,65.305
1.6588,66.233
1.6295,69.798
1.6002,76.929
1.5699,87.236
1.5396,98.03
1.5093,106.68
1.4848,111.85
1.4663,114.98
1.4448,117.81
1.4223,120.69
1.3988,122.84
1.3734,123.58
1.346,123.04
1.3177,122.01
1.2874,120.89
1.2571,119.42
1.2287,117.57
1.2023,115.37
1.1828,113.07
1.1691,110.53
1.1564,107.85
1.1437,104.92
1.1329,101.79
1.1251,98.567
1.1183,95.246
1.1105,91.973
1.1007,88.847
1.087,86.112
1.0694,83.914
1.0557,82.449
1.0577,81.57
1.0772,80.935
1.1232,80.446
1.2111,79.909
1.3441,79.616
1.5181,79.372
1.7195,79.176
1.9306,78.932
2.131,78.59
2.306,78.346
2.4487,78.199
2.5562,77.906
2.6295,77.564
2.6706,77.027
2.6891,76.539
2.696,76.001
2.6921,75.464
2.6794,74.927
2.6598,74.341
2.6325,73.852
2.5943,73.51
2.5464,73.168
2.4868,72.875
2.4174,72.485
2.3392,72.045
2.2532,71.557
2.173,71.117
2.0968,70.677
2.0147,70.189
1.9316,69.603
1.8524,68.968
1.7791,68.479
1.7155,68.04
1.6598,67.6
1.6129,67.063
1.5767,66.672
1.5474,67.307
1.522,70.238
1.5024,76.929
1.4858,86.845
1.4692,97.688
1.4526,106.28
1.435,111.56
1.4164,114.78
1.3969,117.62
1.3763,120.25
1.3578,122.06
1.3402,122.35
1.3245,121.62
1.3089,120.45
1.2933,118.98
1.2815,117.23
1.2717,115.13
1.26,112.88
1.2463,110.53
1.2326,107.99
1.2199,105.11
1.2082,102.04
1.1945,99.007
1.1789,95.881
1.1632,92.755
1.1457,89.629
1.1271,86.747
1.1134,84.5
1.1026,83.035
1.0929,82.107
1.0919,81.423
1.1124,80.788
1.1652,80.3
1.26,80.007
1.3988,79.86
1.5748,79.665
1.7742,79.323
1.9814,78.883
2.1779,78.444
2.35,78.102
2.4751,77.809
2.5621,77.369
2.6285,76.881
2.6735,76.441
2.6979,76.001
2.7058,75.562
2.6999,75.073
2.6833,74.438
2.6579,73.803
2.6237,73.364
2.5797,72.924
2.5259,72.533
2.4682,72.192
2.4057,71.801
2.3294,71.508
2.2444,71.166
2.1564,70.726
2.0704,70.238
1.9883,69.798
1.915,69.359
1.8524,68.919
1.8006,68.479
1.7605,68.04
1.7312,67.698
1.7107,67.307
1.697,66.916
1.6862,66.916
1.6745,68.626
1.6637,73.51
1.65,82.253
1.6344,93.292
1.6168,103.55
1.5982,110.63
1.5787,114.78
1.5572,117.91
1.5357,121.23
1.5132,124.11
1.4946,125.58
1.478,125.48
1.4604,124.8
1.4418,124.06
1.4242,123.18
1.4076,121.67
1.391,119.62
1.3734,117.37
1.3558,115.08
1.3392,112.68
1.3236,110
1.3079,107.12
1.2952,103.99
1.2874,100.81
1.2825,97.591
1.2766,94.318
1.2688,91.094
1.26,88.31
1.2532,86.063
1.2522,84.5
1.2678,83.475
1.3118,82.791
1.3939,82.253
1.5191,81.814
1.6852,81.374
1.911,81.032
2.1105,80.788
2.263,80.544
2.433,80.3
2.5914,80.007
2.7224,79.665
2.8221,79.372
2.8915,78.981
2.9365,78.492
2.9619,78.004
2.9726,77.369
2.9746,76.734
2.9677,76.197
2.9482,75.757
2.9169,75.318
2.8739,74.78
2.8192,74.194
2.7537,73.608
2.6774,73.12
2.5934,72.68
2.5034,72.289
2.4106,71.947
2.3177,71.508
2.2268,70.97
2.1427,70.531
2.0723,70.189
2.0117,69.847
1.9521,69.407
1.8974,68.919
1.8514,68.284
1.8152,67.844
1.7859,67.991
1.7625,69.847
1.7429,74.878
1.7253,83.621
1.7087,94.66
1.6921,104.92
1.6735,112.05
1.6579,116.44
1.6422,119.67
1.6217,123.04
1.5973,125.97
1.5728,127.68
1.5484,127.87
1.5249,127.24
1.5015,126.41
1.478,125.58
1.4555,124.31
1.433,122.5
1.4115,120.35
1.3949,118.06
1.3783,115.66
1.3587,113.07
1.3392,110.09
1.3206,106.87
1.303,103.55
1.2864,100.18
1.2698,96.76
1.2512,93.292
1.2336,90.069
1.2199,87.382
1.216,85.379
1.2326,84.061
1.2688,83.182
1.3343,82.693
1.4477,82.302
1.609,82.107
1.8074,81.912
2.0264,81.716
2.2473,81.374
2.4526,80.984
2.6305,80.69
2.7732,80.446
2.8798,80.104
2.955,79.665
2.9971,79.127
3.0186,78.541
3.0332,77.906
3.0391,77.369
3.0362,76.783
3.0254,76.246
3.0029,75.66
2.9687,75.073
2.9208,74.536
2.8592,74.194
2.7849,73.755
2.6999,73.315
2.6158,72.875
2.5308,72.485
2.434,72.094
2.3324,71.752
2.2307,71.312
2.1339,70.824
2.045,70.287
1.9687,69.847
1.9052,69.359
1.8534,68.87
1.8133,68.431
1.7801,68.382
1.7517,69.945
1.7292,74.487
1.7087,82.84
1.6882,93.781
1.6657,104.14
1.6413,111.41
1.6149,115.76
1.5894,118.79
1.563,122.06
1.5337,125.19
1.5034,127.14
1.4741,127.48
1.4457,126.75
1.4223,125.72
1.4018,124.8
1.3803,123.62
1.3597,121.91
1.3392,119.81
1.3206,117.37
1.303,114.78
1.2864,112.19
1.2708,109.36
1.2551,106.43
1.2395,103.31
1.2219,99.886
1.2023,96.321
1.1877,92.853
1.176,89.824
1.1642,87.382
1.1681,85.575
1.1818,84.256
1.2102,83.279
1.2815,82.742
1.3988,82.351
1.5611,82.107
1.7595,81.814
1.9765,81.472
2.1926,81.228
2.3695,80.984
2.5122,80.69
2.6422,80.251
2.7458,79.616
2.8221,79.127
2.8739,78.737
2.9062,78.297
2.9218,77.662
2.9257,76.929
2.9198,76.197
2.9042,75.611
2.8768,75.171
2.8377,74.683
2.7928,74.097
2.74,73.559
2.6735,73.168
2.5943,72.875
2.5054,72.533
2.4086,72.094
2.3079,71.654
2.2053,71.215
2.1065,70.873
2.0147,70.384
1.9316,69.847
1.8602,69.31
1.8055,68.821
1.7625,68.431
1.7234,67.942
1.6891,67.698
1.6588,68.431
1.6295,71.752
1.6012,78.737
1.5748,88.847
1.5513,99.691
1.5298,108.19
1.5073,113.56
1.4848,117.13
1.4624,120.35
1.4448,123.62
1.4282,125.97
1.4076,126.95
1.3861,126.6
1.3636,125.82
1.3412,124.85
1.3196,123.62
1.2991,121.91
1.2786,119.86
1.2571,117.47
1.2366,114.98
1.217,112.24
1.2023,109.31
1.1916,106.24
1.1769,103.01
1.1603,99.593
1.1417,96.174
1.1222,92.755
1.1007,89.531
1.0811,86.991
1.0694,84.989
1.0723,83.67
1.1007,82.693
1.1672,81.912
1.2776,81.374
1.4047,80.984
1.5543,80.69
1.7498,80.446
1.9658,80.153
2.1808,79.86
2.3773,79.421
2.5425,79.03
2.6716,78.688
2.7664,78.248
2.8309,77.76
2.871,77.125
2.8925,76.49
2.8954,75.904
2.8856,75.415
2.868,74.927
2.8397,74.341
2.7986,73.852
2.7449,73.364
2.6784,72.973
2.5992,72.631
2.5093,72.24
2.4115,71.801
2.3089,71.508
2.2033,71.117
2.0968,70.726
2.0049,70.287
1.9247,69.798
1.8446,69.31
1.7713,68.87
1.7087,68.382
1.6559,67.844
1.6129,67.307
1.5787,66.819
1.5494,66.672
1.523,67.747
1.4976,71.41
1.4712,78.932
1.4487,89.629
1.4291,100.57
1.4057,108.73
1.3803,113.61
1.3539,116.88
1.3255,120.01
1.2962,122.94
1.2659,124.75
1.2346,125.04
1.2043,124.31
1.176,123.23
1.1476,122.06
1.1202,120.55
1.0987,118.59
1.0811,116.35
1.0606,114
1.0401,111.41
1.0225,108.68
1.0078,105.7
0.99413,102.57
0.98338,99.3
0.97654,95.979
0.96774,92.657
0.95797,89.531
0.94721,86.943
0.94037,84.94
0.94037,83.67
0.94819,82.84
0.97556,82.302
1.0362,81.814
1.1525,81.423
1.3177,81.13
1.5103,80.788
1.7224,80.495
1.9413,80.153
2.1505,79.86
2.3343,79.567
2.4819,79.176
2.5826,78.786
2.6461,78.444
2.6891,78.053
2.7116,77.613
2.7165,77.125
2.7077,76.636
2.6882,76.099
2.6579,75.66
2.6188,75.366
2.5709,75.073
2.5112,74.683
2.4418,74.243
2.3734,73.803
2.3021,73.413
2.2199,73.071
2.1329,72.485
2.045,71.996
1.9589,71.41
1.8768,70.922
1.8035,70.433
1.74,69.847
1.6852,69.31
1.6403,68.821
1.6031,68.382
1.5767,67.991
1.5562,68.431
1.5357,70.97
1.5161,77.223
1.4976,87.138
1.48,98.421
1.4643,107.8
1.4506,113.76
1.4379,117.23
1.4242,120.16
1.4096,123.18
1.3939,125.43
1.3773,126.12
1.3636,125.48
1.35,124.41
1.3304,123.23
1.3069,121.87
1.2825,120.11
1.2571,118.01
1.2336,115.66
1.2121,113.22
1.1906,110.53
1.1701,107.7
1.1515,104.62
1.1349,101.5
1.1241,98.323
1.1153,95.051
1.1036,91.876
1.0899,88.994
1.0772,86.698
1.0674,85.184
1.0665,84.305
1.086,83.719
1.1359,83.23
1.2258,82.937
1.3578,82.742
1.5298,82.693
1.7302,82.498
1.914,82.107
2.0821,81.618
2.2551,81.228
2.4086,80.935
2.5337,80.69
2.6256,80.3
2.6872,79.811
2.7253,79.323
2.7429,78.786
2.7449,78.297
2.7361,77.662
2.7185,77.027
2.6931,76.49
2.6608,76.001
2.6197,75.464
2.5689,74.927
2.5103,74.292
2.4448,73.803
2.3715,73.413
2.2942,73.12
2.216,72.631
2.1398,72.094
2.0665,71.557
1.999,71.166
1.9394,70.873
1.8925,70.482
1.8553,69.994
1.8231,69.407
1.7947,68.87
1.7693,68.479
1.7429,68.724
1.7155,70.482
1.6891,75.366
1.6618,84.158
1.6325,95.49
1.6022,106.14
1.5728,113.42
1.5484,117.76
1.5269,121.04
1.5044,124.55
1.4819,127.68
1.4594,129.53
1.437,129.88
1.4135,129.44
1.39,128.85
1.3685,128.17
1.347,126.99
1.3206,125.38
1.2972,123.28
1.2815,120.99
1.2698,118.45
1.26,115.66
1.2493,112.68
1.2395,109.56
1.2317,106.28
1.2239,102.87
1.2141,99.3
1.2033,95.783
1.1896,92.56
1.176,89.873
1.1701,87.822
1.1828,86.405
1.2141,85.624
1.2717,85.038
1.3754,84.549
1.5259,84.158
1.7165,83.816
1.9326,83.475
2.1554,83.182
2.3656,82.791
2.5494,82.351
2.6989,82.009
2.8113,81.618
2.8905,81.228
2.9423,80.886
2.9677,80.349
2.9765,79.762
2.9785,79.03
2.9717,78.444
2.956,77.906
2.9296,77.418
2.8925,76.783
2.8416,76.197
2.7771,75.611
2.7019,75.171
2.6158,74.78
2.521,74.438
2.4311,73.999
2.3431,73.51
2.2454,73.071
2.1466,72.68
2.0518,72.436
1.9638,72.094
1.8847,71.752
1.8162,71.312
1.7595,70.824
1.7136,70.384
1.6755,70.042
1.6442,70.482
1.6188,73.071
1.6022,79.176
1.5894,89.092
1.5748,100.47
1.5601,110.09
1.5464,116.25
1.5347,120.01
1.5239,123.28
1.5142,126.7
1.5034,129.29
1.4936,130.41
1.4848,130.32
1.4761,129.53
1.4692,128.7
1.4624,127.68
1.4536,126.26
1.4418,124.31
1.4272,122.11
1.4135,119.77
1.4018,117.18
1.39,114.34
1.3783,111.36
1.3675,108.19
1.3558,104.87
1.3412,101.3
1.3236,97.737
1.3079,94.318
1.2913,91.241
1.2717,88.799
1.2581,86.991
1.261,85.819
1.2942,85.135
1.3656,84.598
1.4819,84.305
1.6383,84.012
1.824,83.816
2.0225,83.67
2.217,83.475
2.3724,83.279
2.4936,83.035
2.6022,82.595
2.6882,82.107
2.7507,81.618
2.7928,81.13
2.8182,80.593
2.8309,79.909
2.8328,79.176
2.824,78.492
2.8055,77.906
2.7752,77.418
2.7331,76.929
2.6852,76.294
2.6305,75.66
2.564,75.122
2.4888,74.683
2.4057,74.292
2.3177,73.852
2.2268,73.315
2.1388,72.778
2.0567,72.24
1.9824,71.801
1.9169,71.312
1.8622,70.824
1.8221,70.238
1.7928,69.652
1.7674,69.163
1.7449,68.821
1.7263,69.066
1.7097,70.97
1.6921,76.294
1.6735,85.477
1.654,96.809
1.6325,106.97
1.61,113.9
1.5855,118.01
1.5591,121.28
1.5279,124.85
1.5024,127.87
1.4809,129.49
1.4536,129.63
1.4233,129
1.393,128.17
1.3627,127.04
1.3324,125.43
1.3021,123.38
1.2717,121.13
1.2434,118.59
1.2043,115.81
1.1642,112.68
1.1378,109.41
1.1134,106.19
1.0929,102.72
1.0772,99.154
1.0645,95.49
1.0518,91.973
1.0391,88.945
1.0283,86.503
1.0264,84.842
1.042,83.719
1.089,82.937
1.1574,82.351
1.2542,82.009
1.3998,81.716
1.5846,81.57
1.7918,81.228
2.002,80.935
2.1955,80.593
2.3617,80.349
2.4936,80.104
2.5904,79.665
2.6549,79.176
2.695,78.59
2.7165,78.102
2.7224,77.564
2.7195,76.881
2.7116,76.197
2.696,75.464
2.6716,74.78
2.6354,74.048
2.5865,73.364
2.5249,72.778
2.4516,72.289
2.3685,71.947
2.2776,71.557
2.1808,71.117
2.0938,70.726
2.0127,70.238
1.9257,69.652
1.8397,69.066
1.7615,68.528
1.694,68.186
1.6383,67.796
1.5953,67.405
1.564,66.916
1.5406,66.428
1.521,66.037
1.5044,66.233
1.4878,68.186
1.4741,73.364
1.4594,82.351
1.4418,93.536
1.4233,103.74
1.4027,110.73
1.3773,114.88
1.347,117.91
1.3148,121.04
1.2786,123.58
1.2395,124.75
1.1984,124.5
1.1574,123.48
1.1241,122.26
1.0948,120.74
1.0606,118.89
1.0244,116.64
0.98827,114.1
0.95503,111.51
0.92571,108.82
0.89736,105.99
0.87292,102.91
0.85435,99.691
0.84066,96.223
0.83187,92.804
0.82502,89.482
0.82405,86.503
0.82698,84.061
0.82893,82.449
0.8348,81.472
0.85337,80.886
0.89736,80.495
0.97947,80.153
1.1036,80.007
1.2698,79.86
1.4682,79.762
1.6852,79.469
1.9022,79.176
2.0802,78.932
2.2209,78.688
2.346,78.541
2.4428,78.444
2.5112,78.297
2.5562,78.004
2.5816,77.564
2.5934,77.125
2.5963,76.734
2.5914,76.343
2.5758,76.05
2.5494,75.757
2.5103,75.415
2.4653,75.122
2.4125,74.731
2.3431,74.194
2.2581,73.657
2.1603,73.168
2.0557,72.68
1.9482,72.094
1.8426,71.508
1.7439,70.824
1.6579,70.238
1.5865,69.798
1.5298,69.31
1.4907,68.87
1.4633,68.479
1.4399,68.235
1.4184,68.479
1.392,70.238
1.3675,75.073
1.348,83.572
1.3265,94.367
1.304,104.28
1.2815,111.17
1.259,115.42
1.2366,118.59
1.216,121.82
1.2043,124.5
1.1975,125.87
1.1916,125.82
1.1867,124.94
1.1838,123.62
1.1828,122.11
1.1799,120.16
1.1769,118.01
1.172,115.57
1.1652,112.98
1.1564,110.24
1.1447,107.26
1.1359,104.14
1.1281,100.91
1.1183,97.688
1.1075,94.367
1.0978,91.192
1.089,88.359
1.0811,86.259
1.0762,84.842
1.0782,84.061
1.0948,83.475
1.1369,83.133
1.216,82.791
1.3372,82.693
1.4721,82.498
1.6256,82.302
1.8201,81.912
2.0303,81.472
2.2326,81.13
2.4096,80.788
2.5494,80.544
2.6491,80.104
2.7136,79.665
2.7498,79.225
2.7634,78.786
2.7605,78.297
2.7468,77.76
2.7263,77.223
2.6979,76.734
2.6598,76.294
2.6109,75.806
2.5484,75.318
2.4712,74.78
2.3822,74.243
2.2845,73.803
2.1799,73.413
2.0723,73.12
1.9668,72.729
1.869,72.387
1.7908,72.045
1.7302,71.752
1.6764,71.41
1.6344,71.068
1.6061,70.531
1.5914,70.042
1.5855,69.554
1.5846,68.968
1.5865,68.724
1.5875,69.554
1.5855,72.729
1.5816,79.616
1.5767,89.873
1.5709,101.06
1.5621,110.09
1.5513,116
1.5386,119.81
1.5279,123.43
1.5191,127.04
1.5093,129.83
1.4995,131.05
1.4888,131.05
1.4761,130.56
1.4614,129.83
1.4448,128.7
1.4311,127.24
1.4184,125.38
1.4018,123.23
1.3803,120.79
1.3587,118.11
1.3382,115.32
1.3196,112.29
1.303,109.17
1.2864,105.85
1.2727,102.38
1.26,98.763
1.2463,95.246
1.2356,91.973
1.2278,89.238
1.2239,87.138
1.2356,85.868
1.2757,85.233
1.3539,85.038
1.4741,84.793
1.6354,84.354
1.828,83.914
2.0371,83.67
2.2454,83.572
2.435,83.279
2.5787,82.937
2.6843,82.547
2.7761,82.253
2.8475,81.863
2.8993,81.423
2.9316,80.935
2.9492,80.3
2.956,79.665
2.9531,79.03
2.9384,78.444
2.9101,77.809
2.869,77.32
2.8152,77.125
2.7556,77.467
2.6882,78.541
2.607,80.153
2.5152,82.351
2.4154,84.94
2.3118,87.871
2.2072,90.948
2.086,93.927
1.9814,96.809
1.912,99.593
1.8465,102.28
1.7889,104.62
1.7449,106.68
1.7116,109.12
1.6833,112.78
1.6598,118.89
1.6403,127.63
1.6237,137.59
1.6422,146.43
1.6784,152.54
1.6882,156.11
1.6852,158.35
1.6745,160.16
1.6559,161.23
1.6276,161.58
1.5963,161.58
1.5601,161.72
1.5093,161.92
1.4497,161.63
1.3871,160.7
1.3304,159.43
1.2903,157.82
1.2747,155.57
1.2893,152.44
1.3363,148.49
1.4125,143.94
1.5064,138.81
1.5953,133.2
1.6725,127.43
