0.39003,54.563
0.38514,54.172
0.38123,53.781
0.37634,53.585
0.37243,53.39
0.3695,53.194
0.36559,53.39
0.36266,53.977
0.35875,55.541
0.35484,58.67
0.35191,63.364
0.34897,69.426
0.34604,76.271
0.34213,82.921
0.33822,89.179
0.33431,95.046
0.3304,99.935
0.32649,104.04
0.32258,107.17
0.31867,109.13
0.31574,110.1
0.31183,110.3
0.30987,109.52
0.30792,108.34
0.30499,106.58
0.30205,104.24
0.29814,101.89
0.29521,99.153
0.2913,96.219
0.28739,93.09
0.28348,89.57
0.27957,85.854
0.27664,82.334
0.27273,79.205
0.26882,76.271
0.26588,73.924
0.26393,71.969
0.261,70.404
0.25806,69.035
0.25709,67.862
0.25904,67.275
0.26686,66.493
0.28152,66.102
0.30401,65.711
0.33627,65.515
0.37732,65.319
0.42326,65.124
0.46628,65.124
0.50733,65.124
0.55132,64.928
0.59433,64.928
0.63245,64.733
0.66569,64.537
0.6911,64.342
0.71065,64.146
0.72434,63.95
0.73118,63.559
0.73314,63.168
0.73118,62.973
0.72434,62.386
0.71457,61.995
0.70186,61.604
0.68622,61.408
0.66667,61.017
0.64516,60.626
0.6217,60.235
0.59726,59.844
0.57185,59.452
0.54643,59.061
0.52199,58.67
0.49951,58.279
0.47801,58.083
0.45748,57.497
0.43695,57.106
0.42131,56.519
0.40762,56.128
0.39589,55.541
0.38612,55.15
0.3783,54.759
0.37146,54.368
0.36559,53.977
0.3607,53.585
0.35679,53.194
0.35288,52.803
0.34995,52.803
0.34702,52.803
0.34506,52.999
0.34311,53.39
0.34018,54.563
0.33724,56.91
0.33431,60.821
0.33138,66.102
0.32845,72.164
0.32454,78.227
0.3216,84.094
0.31867,89.374
0.31574,94.068
0.31378,97.979
0.31183,101.11
0.3089,103.26
0.30596,104.43
0.30303,104.82
0.3001,104.43
0.29717,103.46
0.29423,101.89
0.2913,99.739
0.28739,97.393
0.28446,94.655
0.28055,91.525
0.27859,88.201
0.27566,84.876
0.2737,81.552
0.26979,78.422
0.26686,75.489
0.26393,73.142
0.26002,71.186
0.25709,69.426
0.25318,68.057
0.25024,66.884
0.24927,65.906
0.25122,65.319
0.25806,64.733
0.26784,64.342
0.2825,64.146
0.30596,63.755
0.33822,63.559
0.37634,63.559
0.41838,63.364
0.46334,63.364
0.50831,63.168
0.54936,63.168
0.58553,62.973
0.61681,62.973
0.64125,62.777
0.65787,62.582
0.66862,62.386
0.67546,61.995
0.67937,61.604
0.6784,61.408
0.67351,61.017
0.66569,60.626
0.65298,60.235
0.63734,59.844
0.61877,59.648
0.59824,59.257
0.57674,59.061
0.55327,58.67
0.53372,58.279
0.51417,58.083
0.49462,57.497
0.47507,57.106
0.4565,56.715
0.43988,56.323
0.42522,55.932
0.41153,55.541
0.3998,55.15
0.39003,54.563
0.38123,54.172
0.37439,53.781
0.3695,53.39
0.36461,52.999
0.3607,52.608
0.35777,52.216
0.35386,52.021
0.35093,51.825
0.348,51.825
0.34506,52.216
0.34213,52.803
0.34018,54.368
0.33724,57.497
0.33431,61.995
0.33138,67.666
0.32942,74.12
0.32845,80.378
0.32551,86.05
0.32356,91.33
0.32063,96.024
0.31769,99.739
0.31574,102.67
0.31281,104.63
0.30987,105.61
0.30694,105.8
0.30499,105.22
0.30205,104.04
0.29912,102.48
0.29814,100.33
0.29521,97.784
0.29228,95.046
0.28837,91.917
0.28543,88.592
0.28152,85.072
0.27859,81.747
0.27468,78.422
0.27175,75.685
0.26784,73.142
0.26491,71.186
0.261,69.426
0.25904,68.057
0.25806,66.884
0.25806,66.102
0.26002,65.319
0.26686,64.928
0.27957,64.537
0.3001,64.342
0.32942,63.95
0.36657,63.95
0.40958,63.755
0.45552,63.755
0.50244,63.559
0.54154,63.559
0.57478,63.559
0.60802,63.364
0.63734,63.168
0.66276,62.973
0.68133,62.777
0.69404,62.386
0.70186,62.19
0.70479,61.799
0.70283,61.408
0.69697,61.017
0.68622,60.821
0.67253,60.43
0.65787,60.039
0.64125,59.844
0.6217,59.452
0.59922,59.257
0.57674,58.866
0.5523,58.475
0.52884,58.279
0.50733,57.888
0.48583,57.497
0.46628,56.91
0.44966,56.519
0.43402,56.128
0.42229,55.737
0.41251,55.346
0.40371,54.759
0.39492,54.368
0.38807,53.977
0.38123,53.585
0.37537,53.194
0.37048,52.803
0.36657,52.412
0.36266,52.216
0.35973,52.216
0.35679,52.216
0.35386,52.803
0.35093,54.172
0.34897,56.715
0.34702,60.821
0.34409,66.102
0.34115,72.36
0.33822,78.814
0.33529,84.876
0.33236,90.352
0.32942,95.241
0.32649,99.544
0.32356,102.67
0.32063,105.22
0.31867,106.58
0.31672,106.98
0.31476,106.78
0.31183,105.8
0.3089,104.24
0.30596,102.48
0.30303,100.13
0.29912,97.784
0.29521,94.85
0.29228,91.721
0.28837,88.396
0.28446,84.876
0.28152,81.552
0.27859,78.422
0.27664,75.685
0.2737,73.338
0.26979,71.382
0.26686,69.622
0.26295,68.253
0.261,67.275
0.26197,66.493
0.26784,65.906
0.27957,65.319
0.29912,64.928
0.32649,64.733
0.35679,64.537
0.39003,64.342
0.43109,64.342
0.47605,64.146
0.52199,64.146
0.56598,63.95
0.60508,63.95
0.63832,63.755
0.66569,63.559
0.68719,63.364
0.70186,63.168
0.71163,62.973
0.71554,62.582
0.71457,62.19
0.71065,61.995
0.70283,61.604
0.69208,61.213
0.67742,61.017
0.65982,60.626
0.64027,60.235
0.61877,59.844
0.59531,59.648
0.57185,59.257
0.54741,58.866
0.52395,58.475
0.5044,58.083
0.4868,57.692
0.46921,57.301
0.45161,56.91
0.43695,56.323
0.42326,55.932
0.41153,55.541
0.40176,55.15
0.39296,54.563
0.38612,54.172
0.37928,53.781
0.37439,53.39
0.37048,52.999
0.36657,52.803
0.36364,52.608
0.3607,52.608
0.35777,53.194
0.35484,54.172
0.35191,56.715
0.35093,60.626
0.35093,66.102
0.34897,72.555
0.34702,79.4
0.34409,85.658
0.34115,91.525
0.33822,96.806
0.33627,101.3
0.33431,105.02
0.33138,107.56
0.32845,109.32
0.32454,110.1
0.3216,110.1
0.31867,109.32
0.31574,107.95
0.31281,106.19
0.3089,104.24
0.30596,101.89
0.30303,99.348
0.30108,96.415
0.29717,93.286
0.29423,89.765
0.29032,86.245
0.28641,82.725
0.28348,79.596
0.27957,76.858
0.27566,74.511
0.27175,72.555
0.26784,70.991
0.26588,69.818
0.26588,68.84
0.26979,67.862
0.27859,67.471
0.29521,67.08
0.32063,66.688
0.35582,66.493
0.39785,66.297
0.44575,66.297
0.49756,66.297
0.54839,66.297
0.59629,66.102
0.6393,66.102
0.67644,66.102
0.70381,65.906
0.72239,65.711
0.739,65.515
0.75073,65.319
0.75855,65.124
0.76051,64.733
0.75855,64.537
0.75269,64.146
0.74291,63.755
0.72923,63.364
0.71163,62.973
0.69208,62.777
0.6696,62.386
0.64809,62.19
0.62561,61.799
0.60215,61.408
0.57771,61.017
0.55327,60.626
0.52981,60.235
0.50733,59.844
0.48778,59.257
0.46921,58.866
0.45357,58.475
0.43988,58.083
0.42913,57.692
0.42033,57.301
0.41251,56.91
0.40665,56.323
0.40078,55.932
0.39589,55.541
0.39101,55.346
0.3871,55.15
0.38416,55.15
0.38123,55.541
0.3783,56.519
0.37537,58.475
0.37341,62.19
0.37048,67.666
0.36852,74.12
0.36657,81.16
0.36364,87.81
0.36168,94.068
0.35875,99.544
0.35582,104.24
0.35288,108.15
0.34995,110.89
0.348,112.65
0.34506,113.43
0.34213,113.43
0.34018,112.65
0.33822,111.47
0.33627,109.91
0.33333,107.95
0.33138,105.61
0.32845,103.26
0.32454,100.52
0.3216,97.393
0.31867,94.068
0.31574,90.743
0.31281,87.419
0.30987,84.094
0.30694,81.16
0.30303,78.618
0.30108,76.662
0.29912,74.902
0.29717,73.338
0.29619,72.36
0.29912,71.382
0.30792,70.795
0.32454,70.404
0.34995,70.209
0.38319,69.818
0.42522,69.622
0.47214,69.622
0.52199,69.622
0.565,69.426
0.60313,69.426
0.64223,69.231
0.67937,69.035
0.71065,68.644
0.73607,68.253
0.75464,67.862
0.76833,67.471
0.77615,67.08
0.77908,66.493
0.77713,65.906
0.77126,65.515
0.76246,65.124
0.75073,64.733
0.73607,64.342
0.71945,63.95
0.69892,63.559
0.67742,63.168
0.65298,62.973
0.62854,62.582
0.60411,62.19
0.58065,61.799
0.55816,61.408
0.53666,60.821
0.51711,60.235
0.50147,59.648
0.48778,59.061
0.47507,58.475
0.46432,58.083
0.45357,57.497
0.44575,57.106
0.43793,56.715
0.43206,56.128
0.4262,55.737
0.42131,55.346
0.4174,55.15
0.41349,55.15
0.40958,55.346
0.40567,56.128
0.40274,58.279
0.39883,61.799
0.39492,67.275
0.39101,73.924
0.38612,81.16
0.38221,88.005
0.37732,94.459
0.37243,100.13
0.36852,105.22
0.36364,109.13
0.35973,112.06
0.35582,114.02
0.35288,114.8
0.34995,114.8
0.34604,114.02
0.34213,112.84
0.33724,111.08
0.33333,109.13
0.32845,106.98
0.32356,104.43
0.31867,101.5
0.31378,98.566
0.30792,95.046
0.30303,91.525
0.29912,87.81
0.29619,84.485
0.29228,81.356
0.28739,78.618
0.2825,76.271
0.27761,74.316
0.27273,72.751
0.27077,71.578
0.27273,70.6
0.28055,70.013
0.29619,69.426
0.32063,69.035
0.34897,68.84
0.38123,68.449
0.42326,68.449
0.47116,68.253
0.52102,68.253
0.56891,68.057
0.6129,67.862
0.652,67.666
0.68328,67.471
0.7087,67.275
0.72727,67.08
0.739,66.688
0.74585,66.297
0.74682,65.906
0.74487,65.515
0.739,65.124
0.73021,64.733
0.7175,64.342
0.70283,63.95
0.68426,63.559
0.66373,63.168
0.64125,62.777
0.61681,62.386
0.5914,61.995
0.56598,61.604
0.5435,61.213
0.52297,60.626
0.50244,60.235
0.48192,59.648
0.46334,59.257
0.44673,58.67
0.43206,58.279
0.41935,57.692
0.4086,57.301
0.39883,56.91
0.39101,56.323
0.38514,55.932
0.38025,55.541
0.37634,55.15
0.37243,54.954
0.36852,54.759
0.36559,54.759
0.36266,55.15
0.35875,56.323
0.35582,58.279
0.35191,62.19
0.348,67.471
0.34506,73.924
0.34115,80.574
0.33724,87.027
0.33431,93.09
0.33236,98.37
0.32942,102.87
0.32551,106.58
0.32258,109.13
0.31867,110.69
0.31574,111.28
0.31183,111.08
0.3089,110.3
0.30499,108.74
0.30205,106.98
0.29814,104.82
0.29521,102.48
0.28935,99.544
0.28055,96.61
0.27468,93.09
0.26882,89.57
0.26491,86.05
0.26002,82.529
0.25611,79.596
0.2522,76.858
0.24829,74.511
0.24536,72.555
0.24145,71.186
0.23949,70.013
0.23949,69.035
0.2434,68.253
0.25122,67.666
0.26491,67.275
0.28739,67.08
0.31867,66.688
0.35679,66.493
0.40078,66.493
0.4477,66.297
0.49462,66.297
0.53959,66.102
0.57967,66.102
0.60997,65.906
0.63343,65.906
0.65396,65.515
0.67058,65.319
0.68231,64.928
0.68817,64.733
0.6911,64.342
0.68817,63.95
0.68231,63.559
0.67253,63.168
0.65885,62.777
0.64321,62.386
0.62366,61.995
0.60411,61.604
0.58456,61.408
0.56207,61.017
0.53861,60.626
0.51515,60.235
0.49267,59.844
0.47019,59.257
0.45064,58.866
0.43206,58.475
0.41642,58.083
0.40176,57.497
0.39003,57.106
0.38025,56.715
0.37341,56.323
0.36559,55.737
0.35973,55.346
0.35386,54.954
0.34897,54.563
0.34506,54.368
0.34115,54.172
0.33822,53.977
0.33529,54.368
0.33236,54.954
0.32942,56.323
0.32649,59.061
0.32454,63.364
0.32258,69.035
0.32063,75.293
0.31769,81.356
0.31476,87.419
0.31183,92.699
0.3089,97.588
0.30499,101.5
0.30205,104.82
0.29912,106.98
0.29619,108.15
0.29326,108.34
0.2913,107.95
0.28935,106.78
0.28739,105.22
0.28446,103.26
0.28152,100.91
0.27761,97.979
0.27468,95.046
0.27077,91.721
0.26686,88.201
0.26393,84.681
0.26002,81.16
0.25709,78.227
0.25318,75.489
0.25122,73.338
0.24927,71.578
0.24633,70.013
0.24438,68.84
0.24242,67.862
0.2434,67.08
0.24829,66.493
0.25904,66.102
0.27761,65.906
0.30401,65.515
0.33822,65.515
0.37928,65.319
0.4174,65.319
0.45455,65.124
0.4956,65.124
0.53763,64.928
0.57478,64.928
0.60802,64.733
0.63441,64.537
0.65591,64.342
0.67058,63.95
0.68035,63.755
0.68426,63.364
0.68426,62.973
0.67937,62.777
0.67155,62.386
0.6608,61.995
0.64614,61.604
0.62854,61.408
0.60899,61.017
0.58651,60.626
0.56305,60.235
0.53959,59.844
0.51613,59.648
0.49267,59.257
0.47116,58.67
0.45064,58.279
0.435,57.888
0.42131,57.301
0.4086,56.91
0.39589,56.519
0.38514,56.128
0.37634,55.737
0.36755,55.346
0.3607,54.759
0.35582,54.368
0.35093,53.977
0.34604,53.781
0.34311,53.585
0.34018,53.585
0.33724,53.781
0.33627,54.172
0.33333,55.541
0.33138,58.279
0.32845,62.582
0.32551,68.253
0.32356,74.511
0.32063,80.965
0.31769,87.027
0.31476,92.503
0.31183,97.393
0.3089,101.5
0.30694,104.63
0.30499,106.78
0.30303,108.15
0.30108,108.34
0.29814,107.95
0.29521,106.98
0.2913,105.41
0.28837,103.46
0.28543,101.11
0.28152,98.566
0.27859,95.632
0.27468,92.308
0.27077,88.983
0.26882,85.463
0.26588,81.943
0.26295,78.814
0.26002,76.076
0.25709,73.729
0.25318,71.969
0.25024,70.209
0.24731,69.035
0.24536,67.862
0.24633,67.08
0.25122,66.493
0.26295,66.102
0.27761,65.711
0.29912,65.515
0.32942,65.319
0.36755,65.124
0.41153,64.928
0.45846,64.928
0.5044,64.928
0.54839,64.928
0.58749,64.733
0.6217,64.537
0.64907,64.342
0.6696,64.146
0.68426,63.95
0.69208,63.755
0.69501,63.364
0.69501,62.973
0.6911,62.777
0.68328,62.386
0.67253,61.995
0.65787,61.604
0.64125,61.408
0.62072,61.017
0.59922,60.626
0.57576,60.43
0.55132,60.039
0.52981,59.648
0.51026,59.257
0.48876,58.866
0.46823,58.279
0.44966,57.888
0.43206,57.497
0.41642,57.106
0.40371,56.715
0.39198,56.128
0.38123,55.737
0.37341,55.346
0.36657,54.954
0.3607,54.563
0.35679,54.172
0.35288,53.781
0.34897,53.585
0.34506,53.585
0.34213,53.781
0.3392,54.368
0.33627,55.932
0.33333,58.866
0.3304,63.364
0.32747,69.426
0.32454,75.88
0.32258,82.529
0.31965,88.788
0.31867,94.459
0.31574,99.348
0.31378,103.65
0.31085,106.78
0.30792,109.13
0.30499,110.3
0.30205,110.69
0.29912,110.3
0.29619,109.32
0.29326,107.76
0.29032,105.8
0.28837,103.65
0.28641,101.11
0.28348,98.37
0.27957,95.241
0.27664,91.721
0.27273,88.201
0.26882,84.485
0.26491,81.16
0.26197,78.227
0.25806,75.489
0.25415,73.338
0.25122,71.578
0.24829,70.209
0.24633,69.035
0.24829,68.057
0.2522,67.471
0.26295,67.08
0.28055,66.688
0.30694,66.493
0.34115,66.297
0.39003,66.102
0.4477,66.102
0.50342,66.102
0.55621,65.906
0.60508,65.906
0.64223,65.906
0.67155,65.711
0.69892,65.319
0.72239,65.124
0.73998,64.928
0.75171,64.537
0.75855,64.342
0.76051,63.95
0.75758,63.559
0.74976,63.168
0.739,62.777
0.72336,62.386
0.70479,61.995
0.68524,61.604
0.66471,61.213
0.64125,61.017
0.61584,60.626
0.58944,60.235
0.56305,59.844
0.53763,59.257
0.5132,58.866
0.49071,58.475
0.47116,57.888
0.45357,57.497
0.43793,57.106
0.4262,56.519
0.4174,56.128
0.4086,55.737
0.40078,55.346
0.39394,54.759
0.3871,54.368
0.38221,54.172
0.3783,53.977
0.37439,53.977
0.37048,54.172
0.36755,54.954
0.36364,56.715
0.3607,60.039
0.35875,64.928
0.35582,71.186
0.35386,78.031
0.34995,84.485
0.34702,90.743
0.34311,96.415
0.34018,101.3
0.33627,105.41
0.33333,108.54
0.32942,110.69
0.32649,111.86
0.32258,112.26
0.31965,111.86
0.31769,110.69
0.31476,109.13
0.31183,107.37
0.30792,105.22
0.30401,102.67
0.30108,99.935
0.29717,96.806
0.29326,93.481
0.28837,90.157
0.28446,86.441
0.28055,83.116
0.27664,79.987
0.2737,77.445
0.27077,75.293
0.26784,73.533
0.26491,71.969
0.26295,70.795
0.26393,70.013
0.26979,69.426
0.2825,69.035
0.30499,68.644
0.33627,68.449
0.37537,68.253
0.42229,68.057
0.46628,68.057
0.50831,68.057
0.55523,67.862
0.60117,67.862
0.64418,67.666
0.68133,67.666
0.71163,67.471
0.73509,67.275
0.75171,66.884
0.76344,66.688
0.76931,66.297
0.76931,65.906
0.76637,65.515
0.75855,65.124
0.74878,64.733
0.73509,64.537
0.7175,64.146
0.69795,63.755
0.67546,63.364
0.65103,62.973
0.62463,62.582
0.59922,62.19
0.57283,61.799
0.54839,61.408
0.52493,61.017
0.50538,60.43
0.48974,60.039
0.47312,59.648
0.45943,59.257
0.44575,58.67
0.435,58.279
0.4262,57.888
0.41838,57.497
0.41153,57.106
0.40567,56.715
0.40078,56.519
0.39687,56.323
0.39394,56.323
0.39101,56.91
0.38905,58.083
0.3871,60.43
0.38416,64.733
0.38123,70.404
0.37928,77.249
0.37634,84.289
0.37341,90.939
0.3695,97.001
0.36657,102.67
0.36364,107.37
0.3607,111.08
0.35875,113.82
0.35679,115.38
0.35386,115.97
0.35191,115.78
0.34897,114.8
0.34604,113.62
0.34311,111.86
0.34018,109.91
0.33627,107.76
0.33333,105.22
0.32942,102.28
0.32649,99.153
0.32258,95.632
0.32063,92.112
0.31867,88.592
0.31574,85.072
0.31281,81.943
0.3089,79.205
0.30596,77.054
0.30205,75.098
0.3001,73.533
0.3001,72.36
0.30401,71.578
0.31378,70.795
0.33236,70.404
0.35386,70.013
0.38123,69.818
0.41935,69.622
0.46432,69.622
0.5132,69.426
0.56403,69.426
0.6129,69.231
0.65689,69.035
0.69501,69.035
0.7263,68.644
0.75073,68.253
0.76931,67.862
0.78006,67.471
0.78495,67.08
0.7869,66.688
0.78592,66.102
0.78104,65.711
0.77224,65.319
0.76051,64.733
0.74487,64.342
0.7263,63.95
0.70577,63.559
0.68231,63.168
0.65787,62.777
0.63245,62.386
0.60899,61.995
0.58651,61.408
0.56403,61.017
0.54154,60.626
0.52102,60.039
0.50147,59.648
0.48387,59.061
0.46921,58.67
0.4565,58.083
0.44575,57.692
0.43597,57.301
0.42815,56.715
0.42131,56.323
0.41642,55.932
0.41153,55.541
0.40665,55.346
0.40176,55.346
0.39687,55.737
0.39198,56.91
0.3871,59.452
0.38221,63.559
0.37732,69.231
0.37243,76.076
0.36755,82.921
0.36266,89.57
0.35875,95.828
0.35484,101.11
0.35093,105.8
0.34604,109.52
0.34213,112.06
0.33724,113.43
0.33333,114.02
0.32845,113.62
0.32454,112.65
0.32063,111.28
0.31574,109.32
0.31183,107.17
0.3089,104.82
0.30596,102.09
0.30205,98.957
0.29717,95.632
0.29326,92.112
0.28935,88.396
0.28446,84.876
0.28055,81.552
0.27566,78.814
0.27175,76.467
0.26686,74.316
0.26295,72.751
0.25904,71.382
0.25904,70.404
0.261,69.426
0.26882,69.035
0.2825,68.449
0.30596,68.253
0.33822,68.057
0.37928,67.862
0.42522,67.862
0.47605,67.666
0.52688,67.471
0.57478,67.471
0.61877,67.275
0.652,67.08
0.67644,66.884
0.6999,66.688
0.7175,66.297
0.73021,65.906
0.73803,65.711
0.74096,65.319
0.739,64.733
0.73314,64.342
0.72336,63.95
0.70968,63.559
0.69306,63.168
0.67351,62.777
0.65298,62.386
0.62561,61.995
0.59238,61.604
0.56305,61.213
0.53666,60.821
0.51124,60.235
0.48778,59.844
0.46725,59.452
0.4477,58.866
0.43011,58.279
0.41544,57.888
0.40274,57.497
0.39296,56.91
0.38514,56.519
0.3783,56.128
0.37146,55.541
0.36559,55.346
0.3607,54.954
0.35679,54.563
0.35288,54.368
0.34897,54.368
0.34604,54.759
0.34213,55.541
0.3392,57.301
0.33627,60.626
0.33333,65.319
0.33138,71.382
0.32845,77.836
0.32551,84.289
0.3216,90.352
0.31867,95.632
0.31476,100.33
0.31183,104.24
0.30792,107.17
0.30499,108.93
0.30205,109.91
0.29814,110.1
0.29619,109.32
0.29423,107.95
0.2913,106.39
0.28837,104.24
0.28446,101.69
0.28152,98.957
0.27761,95.828
0.2737,92.503
0.27077,88.983
0.26686,85.267
0.26295,81.943
0.25904,79.009
0.25513,76.271
0.25318,74.12
0.25122,72.164
0.24829,70.6
0.24536,69.426
0.24438,68.449
0.24438,67.666
0.25024,67.275
0.261,66.688
0.28055,66.493
0.30792,66.297
0.34213,66.102
0.38416,65.906
0.42326,65.906
0.46041,65.711
0.50244,65.711
0.5435,65.515
0.58162,65.515
0.61388,65.319
0.64027,65.124
0.6608,64.733
0.67546,64.537
0.68524,64.146
0.68915,63.755
0.68915,63.364
0.68426,62.973
0.67546,62.582
0.66471,62.19
0.65103,61.995
0.63441,61.604
0.61388,61.213
0.59238,61.017
0.56989,60.626
0.54643,60.235
0.52297,59.844
0.49951,59.452
0.47801,58.866
0.45846,58.475
0.44184,58.083
0.42815,57.497
0.41447,57.106
0.40274,56.715
0.39101,56.128
0.38221,55.737
0.37341,55.346
0.36657,54.954
0.3607,54.563
0.35582,54.172
0.35191,53.781
0.348,53.781
0.34506,53.781
0.34213,53.977
0.34018,54.563
0.33822,56.128
0.33529,58.866
0.33236,62.973
0.32942,68.644
0.32649,74.707
0.32356,80.769
0.32063,86.636
0.31769,91.917
0.31476,96.61
0.31183,100.33
0.3089,103.46
0.30694,105.41
0.30499,106.58
0.30205,106.78
0.29912,106.19
0.29619,105.22
0.29326,103.46
0.29032,101.3
0.28739,98.957
0.28348,96.219
0.28055,93.09
0.27664,89.57
0.27273,86.05
0.27077,82.725
0.26882,79.4
0.26588,76.467
0.26295,73.924
0.26002,71.969
0.25611,70.209
0.25318,68.84
0.25024,67.666
0.24829,66.884
0.24829,66.297
0.25318,65.906
0.26393,65.515
0.27761,65.124
0.29717,64.928
0.32551,64.928
0.36168,64.733
0.40371,64.733
0.4477,64.537
0.49267,64.537
0.53568,64.342
0.5738,64.146
0.60704,64.146
0.63441,63.95
0.65591,63.559
0.66862,63.364
0.67644,62.973
0.68133,62.777
0.68231,62.386
0.6784,61.995
0.67155,61.604
0.6608,61.408
0.64712,61.017
0.62952,60.626
0.60899,60.43
0.58749,60.039
0.56403,59.648
0.54057,59.257
0.51906,58.866
0.49951,58.475
0.47996,58.083
0.46041,57.692
0.44282,57.106
0.4262,56.715
0.41251,56.323
0.3998,55.737
0.39003,55.346
0.38025,54.954
0.37341,54.563
0.36657,54.172
0.36168,53.781
0.35777,53.39
0.35484,53.194
0.35093,52.999
0.348,52.999
0.34506,53.39
0.34213,54.172
0.34018,55.932
0.33724,59.257
0.33431,63.95
0.33138,69.818
0.32845,76.076
0.32551,82.334
0.32356,88.005
0.32258,93.286
0.31965,97.979
0.31672,101.69
0.31476,104.63
0.31183,106.58
0.3089,107.56
0.30596,107.56
0.30303,107.17
0.3001,105.8
0.29717,104.24
0.29423,102.09
0.2913,99.739
0.28935,97.001
0.28641,93.872
0.28348,90.548
0.27957,87.027
0.27566,83.507
0.27273,80.183
0.26882,77.249
0.26588,74.707
0.26197,72.555
0.25904,70.795
0.25513,69.426
0.2522,68.253
0.25122,67.275
0.2522,66.688
0.25709,66.102
0.26686,65.711
0.28348,65.515
0.3089,65.319
0.34213,65.124
0.38221,64.928
0.42717,64.928
0.47312,64.733
0.52004,64.733
0.56305,64.733
0.59629,64.537
0.62268,64.537
0.64809,64.342
0.66862,63.95
0.68426,63.755
0.69501,63.364
0.70088,62.973
0.70186,62.777
0.69795,62.386
0.69013,61.995
0.6784,61.604
0.66276,61.408
0.64516,61.017
0.62659,60.821
0.60802,60.43
0.58553,60.039
0.56305,59.648
0.53861,59.257
0.51613,58.866
0.49365,58.475
0.47312,58.083
0.45357,57.497
0.43695,57.106
0.42229,56.715
0.40958,56.323
0.3998,55.737
0.39198,55.346
0.38514,54.954
0.3783,54.563
0.37243,54.172
0.36657,53.781
0.36266,53.585
0.35875,53.39
0.35875,53.585
0.36168,53.977
0.36168,55.15
0.3607,57.497
0.35777,61.408
0.35582,66.688
0.35484,72.947
0.35191,79.4
0.34897,85.658
0.34604,91.134
0.34213,96.219
0.3392,100.72
0.33627,104.24
0.33333,106.78
0.3304,108.34
0.32747,109.13
0.32454,108.93
0.3216,108.15
0.31965,106.78
0.31769,105.02
0.31378,102.87
0.31085,100.52
0.30694,97.588
0.30303,94.459
0.29912,91.134
0.29521,87.614
0.2913,84.289
0.28739,80.965
0.28348,78.031
0.27957,75.293
0.27664,73.338
0.27468,71.578
0.27077,70.013
0.26882,69.035
0.26686,68.057
0.26882,67.275
0.27566,66.884
0.29032,66.493
0.31281,66.102
0.34409,65.906
0.38319,65.711
0.43011,65.711
0.47312,65.515
0.5132,65.515
0.55816,65.319
0.60313,65.319
0.64321,65.124
0.6784,64.928
0.70674,64.733
0.72825,64.537
0.74291,64.146
0.75269,63.755
0.7566,63.559
0.75562,63.168
0.74976,62.777
0.74096,62.386
0.72923,61.995
0.71359,61.604
0.69501,61.408
0.67351,61.017
0.64907,60.626
0.62463,60.235
0.59824,59.844
0.57283,59.648
0.54741,59.257
0.52297,58.866
0.50147,58.279
0.48289,58.083
0.46725,57.497
0.45259,57.106
0.43891,56.715
0.42717,56.323
0.41642,55.932
0.40762,55.541
0.3998,55.15
0.39296,54.759
0.3871,54.563
0.38221,54.368
0.3783,54.368
0.37439,54.563
0.37146,55.346
0.3695,56.91
0.36657,59.844
0.36364,64.537
0.3607,70.6
0.35777,77.249
0.35386,83.703
0.35093,89.961
0.34702,95.632
0.34409,100.72
0.34018,104.82
0.33724,108.15
0.33431,110.3
0.33236,111.67
0.3304,111.86
0.32747,111.47
0.32454,110.5
0.3216,109.13
0.31769,107.17
0.31476,105.02
0.31085,102.67
0.30694,99.739
0.30303,96.61
0.3001,93.286
0.29717,89.961
0.29521,86.441
0.29228,83.116
0.28935,80.183
0.28543,77.64
0.2825,75.489
0.27859,73.729
0.27566,72.36
0.2737,71.382
0.2737,70.404
0.27859,69.818
0.29032,69.231
0.3089,69.035
0.33236,68.84
0.36168,68.644
0.40078,68.449
0.44673,68.449
0.49756,68.253
0.54839,68.253
0.59726,68.253
0.64223,68.057
0.68035,67.862
0.71261,67.666
0.73803,67.471
0.7566,67.08
0.76735,66.884
0.77224,66.493
0.77419,66.102
0.77322,65.711
0.76735,65.319
0.75855,64.928
0.74585,64.537
0.72923,64.342
0.70968,63.95
0.68817,63.559
0.66471,63.168
0.6393,62.777
0.61388,62.386
0.5914,61.995
0.57087,61.408
0.54936,61.017
0.52786,60.626
0.50929,60.039
0.49169,59.648
0.47605,59.257
0.46237,58.866
0.45161,58.279
0.44184,57.888
0.43402,57.497
0.42717,57.106
0.42229,56.91
0.41838,56.519
0.41447,56.323
0.41056,56.323
0.40762,56.91
0.40371,57.888
0.40078,60.235
0.39883,64.342
0.39589,70.013
0.39198,76.467
0.38905,83.312
0.38612,89.961
0.38319,96.219
0.38025,101.5
0.3783,106.19
0.37537,109.71
0.37243,112.26
0.36852,113.62
0.36559,114.21
0.36266,114.02
0.35973,113.04
0.35679,111.67
0.35288,109.91
0.34995,107.95
0.34604,105.61
0.34311,102.87
0.34018,100.13
0.33724,96.806
0.33333,93.481
0.3304,89.961
0.32649,86.441
0.32258,83.312
0.31867,80.378
0.31476,77.836
0.31085,75.88
0.30694,74.12
0.30401,72.751
0.30303,71.578
0.30499,70.795
0.31085,70.209
0.32356,69.622
0.34311,69.231
0.37243,69.035
0.40958,69.035
0.45357,68.84
0.50244,68.644
0.5523,68.449
0.6002,68.253
0.64418,68.253
0.68231,68.057
0.71065,67.666
0.73118,67.471
0.74878,67.08
0.76246,66.688
0.77126,66.297
0.77517,65.906
0.77517,65.515
0.77028,65.124
0.76246,64.733
0.75073,64.342
0.73509,63.95
0.71652,63.559
0.69501,62.973
0.67449,62.777
0.65298,62.386
0.62952,61.799
0.60411,61.408
0.57869,61.017
0.55425,60.43
0.53079,60.039
0.50929,59.452
0.48974,59.061
0.47214,58.475
0.4565,58.083
0.44379,57.497
0.43304,57.106
0.42522,56.715
0.4174,56.323
0.41056,55.737
0.40371,55.346
0.39883,55.15
0.39296,54.954
0.38905,54.954
0.38319,55.346
0.3783,56.323
0.37439,58.475
0.37048,62.386
0.36657,67.666
0.36364,74.12
0.3607,80.965
0.35679,87.614
0.35288,93.677
0.34897,99.348
0.34506,104.04
0.34115,107.76
0.33627,110.3
0.33236,112.06
0.32845,112.84
0.32454,112.65
0.32063,111.67
0.31769,110.3
0.31476,108.54
0.30792,106.19
0.29717,103.85
0.29032,100.91
0.28446,97.784
0.27957,94.459
0.27566,90.743
0.27077,87.223
0.26686,83.703
0.26295,80.378
0.25904,77.64
0.25415,75.293
0.25122,73.533
0.24927,71.969
0.24633,70.6
0.24438,69.622
0.24438,68.84
0.24927,68.253
0.261,67.862
0.28055,67.471
0.30987,67.471
0.34702,67.275
0.39101,67.08
0.43891,67.08
0.48192,66.884
0.52102,66.884
0.56305,66.688
0.60215,66.493
0.63636,66.297
0.66373,66.102
0.68524,65.906
0.70088,65.515
0.71065,65.124
0.71457,64.733
0.71359,64.342
0.7087,63.95
0.6999,63.559
0.68915,63.168
0.67546,62.777
0.65885,62.386
0.63832,61.995
0.61584,61.604
0.59238,61.213
0.56696,60.821
0.54154,60.43
0.51613,59.844
0.49267,59.452
0.47019,59.061
0.44966,58.475
0.43402,58.083
0.42033,57.692
0.40762,57.106
0.39589,56.715
0.38514,56.128
0.37634,55.737
0.3695,55.346
0.36266,54.954
0.35777,54.563
0.35288,54.368
0.34897,54.172
0.34506,54.172
0.34213,54.368
0.34018,54.954
0.33822,56.323
0.33529,59.061
0.33236,63.168
0.32942,68.644
0.32649,74.902
0.32258,81.16
0.31965,87.027
0.31574,92.503
0.31183,97.197
0.3089,101.11
0.30499,104.24
0.30303,106.19
0.30108,107.37
0.29814,107.56
0.29521,107.17
0.29228,106
0.28837,104.24
0.28543,102.09
0.28152,99.544
0.27761,96.806
0.2737,93.677
0.26979,90.352
0.26588,86.832
0.26295,83.312
0.261,79.987
0.25709,77.054
0.25415,74.707
0.25024,72.555
0.24633,70.795
0.24242,69.426
0.23949,68.253
0.23656,67.275
0.23656,66.688
0.23949,66.102
0.24829,65.906
0.26393,65.515
0.28348,65.319
0.30792,65.124
0.34213,64.928
0.38319,64.928
0.42913,64.928
0.47605,64.733
0.52199,64.733
0.56403,64.537
0.60117,64.342
0.63148,64.146
0.65494,63.95
0.67253,63.559
0.68231,63.364
0.68719,62.973
0.68915,62.582
0.68622,62.386
0.67937,61.995
0.6696,61.604
0.65494,61.213
0.63832,60.821
0.61779,60.43
0.59629,60.235
0.57185,59.844
0.54741,59.452
0.52297,59.061
0.50244,58.67
0.48289,58.279
0.46334,57.888
0.44477,57.497
0.42717,56.91
0.41153,56.519
0.39883,56.128
0.3871,55.541
0.37732,55.15
0.36852,54.759
0.36168,54.368
0.35582,53.977
0.35191,53.585
0.34897,53.39
0.34506,53.194
0.34213,53.194
0.3392,53.39
0.33627,53.977
0.33333,55.346
0.3304,57.692
0.32845,61.799
0.32551,67.08
0.32258,73.142
0.31965,79.205
0.31672,85.072
0.31476,90.352
0.31281,95.046
0.31085,99.153
0.30792,102.28
0.30499,104.43
0.30205,105.61
0.29912,106
0.29619,105.61
0.29326,104.63
0.29032,103.06
0.28739,101.11
0.28446,98.761
0.28152,96.024
0.27957,92.894
0.27664,89.57
0.27273,85.854
0.26882,82.529
0.26588,79.205
0.26197,76.271
0.25806,73.924
0.25513,71.773
0.25122,70.209
0.24731,68.84
0.24438,67.666
0.24145,66.688
0.24145,66.102
0.24438,65.515
0.25122,65.124
0.26295,64.928
0.28348,64.733
0.31183,64.537
0.348,64.342
0.39003,64.342
0.43695,64.342
0.48387,64.146
0.52981,64.146
0.57185,63.95
0.60508,63.755
0.6305,63.559
0.65396,63.364
0.67253,63.168
0.68622,62.777
0.69501,62.582
0.69795,62.19
0.69697,61.799
0.6911,61.408
0.68035,61.213
0.66667,60.821
0.64907,60.43
0.62854,60.235
0.60802,59.844
0.58847,59.648
0.565,59.257
0.54154,58.67
0.51808,58.279
0.49462,58.083
0.47312,57.497
0.45357,57.106
0.43695,56.715
0.42131,56.323
0.40762,55.737
0.39589,55.346
0.3871,54.954
0.38025,54.563
0.37341,54.172
0.36755,53.781
0.36168,53.39
0.35777,52.999
0.35288,52.803
0.34995,52.803
0.34604,52.999
0.34311,53.781
0.34018,55.15
0.33724,57.692
0.33431,61.799
0.33236,67.471
0.3304,73.533
0.32845,79.791
0.32551,85.658
0.32258,91.134
0.31965,96.024
0.31672,99.935
0.31378,103.06
0.31085,105.22
0.30792,106.39
0.30499,106.78
0.30205,106.39
0.3001,105.41
0.29912,103.85
0.29521,101.69
0.29228,99.348
0.28935,96.61
0.28641,93.481
0.2825,90.352
0.27859,86.832
0.27566,83.116
0.27175,79.791
0.26784,76.858
0.26393,74.12
0.26002,71.969
0.25709,70.209
0.25513,68.84
0.2522,67.666
0.25024,66.884
0.24927,66.102
0.25122,65.711
0.25806,65.319
0.27175,64.928
0.29912,64.733
0.33627,64.537
0.37928,64.537
0.4262,64.537
0.46921,64.342
0.51026,64.342
0.55425,64.342
0.59824,64.146
0.63734,64.146
0.67058,63.95
0.69795,63.755
0.71945,63.364
0.73314,63.168
0.74194,62.777
0.74487,62.386
0.74194,62.19
0.73509,61.799
0.72532,61.408
0.71163,61.213
0.69501,60.821
0.67546,60.43
0.652,60.039
0.62757,59.844
0.60215,59.452
0.57576,59.061
0.55034,58.67
0.5259,58.279
0.50244,57.692
0.48192,57.301
0.4653,56.91
0.45064,56.323
0.43793,55.932
0.42522,55.541
0.41447,55.15
0.40567,54.759
0.39785,54.368
0.39101,53.781
0.38514,53.585
0.38025,53.194
0.37634,52.999
0.37243,52.999
0.36852,53.39
0.36657,54.172
0.36461,55.932
0.36168,59.061
0.35973,63.755
0.35679,69.818
0.35386,76.271
0.35093,82.529
0.348,88.592
0.34506,93.872
0.34115,98.761
0.33822,102.67
0.33529,105.61
0.33333,107.76
0.33138,108.74
0.32942,109.13
0.32649,108.74
0.32356,107.56
0.32063,106
0.31672,104.04
0.31378,101.69
0.30987,98.957
0.30596,96.024
0.30205,92.699
0.29814,89.179
0.29521,85.658
0.29326,82.138
0.29032,79.205
0.28641,76.467
0.2825,74.12
0.27859,72.164
0.27468,70.6
0.27077,69.231
0.26784,68.253
0.26784,67.471
0.27175,66.688
0.28152,66.297
0.29912,65.906
0.32063,65.711
0.348,65.515
0.38612,65.319
0.43109,65.319
0.48094,65.124
0.53177,65.124
0.58162,65.124
0.62659,65.124
0.66569,64.928
0.69795,64.733
0.72434,64.537
0.74291,64.537
0.75464,64.146
0.75953,63.95
0.76246,63.559
0.76051,63.168
0.75464,62.973
0.74487,62.582
0.73118,62.386
0.71359,61.995
0.69404,61.604
0.67058,61.408
0.64614,61.017
0.61975,60.626
0.59335,60.235
0.56989,59.844
0.54839,59.648
0.52688,59.257
0.50538,58.67
0.48485,58.279
0.46725,57.888
0.45161,57.497
0.43695,57.106
0.42522,56.715
0.41544,56.128
0.40665,55.737
0.39883,55.346
0.39296,55.15
0.38905,54.759
0.38514,54.759
0.38123,54.759
0.37732,55.15
0.37439,55.932
0.37146,58.083
0.36852,61.799
0.36559,66.884
0.36266,73.142
0.35973,79.791
0.35679,86.245
0.35386,92.112
0.35191,97.588
0.34995,102.28
0.348,106
0.34506,108.74
0.34213,110.5
0.34018,111.47
0.33724,111.47
0.33431,110.69
0.33138,109.32
0.32942,107.76
0.32649,105.61
0.32356,103.46
0.32063,100.91
0.31867,97.979
0.31672,94.85
0.31378,91.525
0.30987,88.005
0.30694,84.485
0.30303,81.356
0.3001,78.618
0.29619,76.271
0.29326,74.316
0.28935,72.751
0.28641,71.578
0.28446,70.6
0.28543,69.818
0.29032,69.231
0.3001,68.84
0.31672,68.644
0.34311,68.449
0.37732,68.253
0.42033,68.253
0.46823,68.253
0.51808,68.057
0.56891,68.057
0.61681,68.057
0.65885,67.862
0.6911,67.666
0.71554,67.471
0.73705,67.275
0.75464,66.884
0.76735,66.493
0.77517,66.102
0.77713,65.906
0.77517,65.515
0.76931,65.124
0.75953,64.537
0.74585,64.342
0.72825,63.95
0.7087,63.559
0.68817,63.168
0.66764,62.973
0.64418,62.582
0.61975,61.995
0.59531,61.604
0.57087,61.213
0.54741,60.821
0.52688,60.235
0.50733,59.844
0.49071,59.452
0.47605,58.866
0.46334,58.475
0.45357,58.083
0.44575,57.497
0.43891,57.106
0.43304,56.715
0.42717,56.323
0.42326,55.932
0.41935,55.737
0.41544,55.541
0.41153,55.932
0.4086,57.106
0.40567,59.844
0.40274,64.342
0.39883,70.209
0.39687,77.054
0.39394,84.094
0.39101,90.548
0.3871,96.61
0.38416,102.28
0.38025,106.78
0.37732,110.3
0.37439,112.84
0.37048,114.02
0.36755,114.41
0.36364,114.02
0.3607,112.84
0.35777,111.28
0.35484,109.52
0.35191,107.37
0.34897,104.82
0.34506,102.09
0.34115,98.957
0.33724,95.632
0.33333,91.917
0.32942,88.396
0.32551,84.876
0.3216,81.552
0.31769,78.814
0.31378,76.467
0.31085,74.511
0.30792,72.947
0.30401,71.578
0.30108,70.6
0.30108,70.013
0.30596,69.426
0.31672,69.035
0.33724,68.84
0.37928,68.644
0.42326,68.449
0.45943,68.253
0.5044,68.253
0.54545,68.057
0.58456,68.057
0.62463,67.862
0.66373,67.666
0.69697,67.471
0.72434,67.08
0.74585,66.688
0.76051,66.297
0.76931,65.906
0.77224,65.515
0.77126,64.928
0.76637,64.537
0.7566,64.146
0.74487,63.755
0.73118,63.364
0.70577,62.973
0.67449,62.582
0.64614,62.19
0.61877,61.799
0.59238,61.408
0.56598,61.017
0.53959,60.626
0.51515,60.039
0.48876,59.648
0.46334,59.061
0.44868,58.67
0.43793,58.279
0.42326,57.692
0.41056,57.106
0.40274,56.715
0.39394,56.323
0.38514,55.737
0.3783,55.346
0.37341,54.954
0.3695,54.759
0.36559,54.563
0.36168,54.563
0.35875,54.954
0.35484,55.932
0.35093,57.888
0.34604,61.408
0.34213,66.493
0.3392,72.751
0.33529,79.596
0.3304,86.05
0.32649,92.112
0.32258,97.588
0.31867,102.09
0.31476,105.8
0.31085,108.54
0.3089,110.3
0.30499,110.89
0.30205,110.89
0.29912,110.1
0.29521,108.74
0.2913,106.98
0.28739,104.82
0.28348,102.28
0.27957,99.544
0.27566,96.61
0.27175,93.286
0.26882,89.57
0.26588,86.05
0.26295,82.725
0.25904,79.596
0.25513,76.858
0.25122,74.707
0.24731,72.751
0.24438,71.186
0.24145,70.013
0.24145,69.035
0.24536,68.253
0.25513,67.471
0.27273,67.08
0.29423,66.884
0.3216,66.493
0.35777,66.493
0.40078,66.297
0.44868,66.102
0.49756,66.102
0.5435,65.906
0.58553,65.906
0.6217,65.711
0.65103,65.515
0.67351,65.319
0.69013,64.928
0.6999,64.733
0.70381,64.342
0.70479,63.95
0.70186,63.559
0.69501,63.168
0.68524,62.777
0.67155,62.386
0.65396,61.995
0.63441,61.604
0.6129,61.408
0.58944,61.017
0.565,60.626
0.54057,60.235
0.51808,59.844
0.49853,59.452
0.47801,59.061
0.45846,58.67
0.43988,58.083
0.42326,57.692
0.4086,57.106
0.39589,56.715
0.38514,56.323
0.37634,55.737
0.36852,55.346
0.36168,54.954
0.35679,54.563
0.35288,54.172
0.34897,53.781
0.34506,53.585
0.34213,53.585
0.3392,53.781
0.33529,54.172
0.33236,55.346
0.32942,57.497
0.32649,61.213
0.32356,66.297
0.31965,72.164
0.31672,78.422
0.31378,84.485
0.31183,89.961
0.3089,94.85
0.30596,99.153
0.30303,102.48
0.29912,104.82
0.29619,106.19
0.29326,106.78
0.29032,106.58
0.28739,105.61
0.28446,104.24
0.28055,102.48
0.27859,100.13
0.27566,97.393
0.27273,94.459
0.26979,91.134
0.26588,87.81
0.26197,84.289
0.25904,80.965
0.25513,78.031
0.25122,75.293
0.24829,73.142
0.24438,71.186
0.24145,69.622
0.23851,68.449
0.23754,67.471
0.23851,66.688
0.24242,66.102
0.2522,65.711
0.26784,65.515
0.29228,65.124
0.32551,64.928
0.36461,64.733
0.40958,64.733
0.4565,64.537
0.50342,64.537
0.54741,64.537
0.58162,64.342
0.60997,64.146
0.63539,63.95
0.65689,63.755
0.67253,63.364
0.68328,63.168
0.68915,62.777
0.69013,62.582
0.68622,62.19
0.6784,61.799
0.66667,61.408
0.65103,61.213
0.63148,60.821
0.6129,60.43
0.59335,60.039
0.57185,59.844
0.54839,59.452
0.52493,59.061
0.50147,58.67
0.47898,58.279
0.45943,57.888
0.44086,57.301
0.42424,56.91
0.40958,56.519
0.39687,55.932
0.3871,55.541
0.38025,55.15
0.37243,54.759
0.36559,54.368
0.35973,53.977
0.35484,53.585
0.34995,53.194
0.34604,52.999
0.34311,52.999
0.34018,52.999
0.33724,53.39
0.33431,54.368
0.33138,56.323
0.32845,59.844
0.32649,64.537
0.32454,70.6
0.3216,76.662
0.31867,82.725
0.31574,88.201
0.31281,93.09
0.30987,97.393
0.30694,100.91
0.30499,103.26
0.30205,104.82
0.29912,105.61
0.29717,105.61
0.29521,104.63
0.29326,103.46
0.29032,101.5
0.28641,99.348
0.28348,96.806
0.27957,94.068
0.27566,90.743
0.27273,87.419
0.26882,84.094
0.26491,80.769
0.26197,77.64
0.25806,75.098
0.25611,72.751
0.25415,70.795
0.25122,69.231
0.24829,68.057
0.24633,67.08
0.24633,66.297
0.24927,65.711
0.25806,65.319
0.2737,64.928
0.29814,64.537
0.3304,64.342
0.37048,64.342
0.4086,64.146
0.44575,64.146
0.48876,63.95
0.53275,63.95
0.57283,63.755
0.60899,63.559
0.6393,63.364
0.66276,63.168
0.68035,62.973
0.69208,62.777
0.69892,62.582
0.6999,62.19
0.69599,61.799
0.68915,61.408
0.67937,61.017
0.66569,60.821
0.64907,60.43
0.62854,60.235
0.60704,59.844
0.58358,59.452
0.55914,59.257
0.5347,58.866
0.51124,58.279
0.48876,58.083
0.46823,57.497
0.45064,57.106
0.43695,56.715
0.42229,56.323
0.40958,55.932
0.39785,55.346
0.38807,54.954
0.37928,54.563
0.37243,53.977
0.36559,53.781
0.36559,53.39
0.36852,52.999
0.36852,52.803
0.36755,52.608
0.36657,52.803
0.36461,53.194
0.36266,54.368
0.35973,56.715
0.35679,60.626
0.35386,65.906
0.35093,71.969
0.348,78.227
0.34409,84.485
0.34115,89.961
0.33822,95.046
0.33529,99.348
0.33236,102.67
0.3304,105.22
0.32845,106.78
0.32551,107.37
0.32258,107.37
0.31965,106.58
0.31672,105.41
0.31281,103.65
0.30987,101.5
0.30596,98.957
0.30205,96.219
0.29814,93.09
0.29521,89.57
0.29326,86.05
0.28935,82.725
0.28641,79.596
0.2825,76.662
0.27859,74.12
0.27468,71.969
0.27077,70.404
0.26686,69.035
0.26393,67.862
0.26491,67.08
0.26979,66.297
0.28055,65.906
0.29619,65.515
0.31769,65.319
0.34995,65.124
0.39101,64.928
0.43793,64.928
0.48876,64.733
0.53959,64.733
0.58847,64.733
0.63245,64.537
0.67058,64.537
0.70186,64.342
0.7263,64.146
0.74194,63.95
0.75171,63.559
0.75758,63.364
0.75953,62.973
0.75758,62.582
0.75073,62.19
0.73998,61.799
0.72532,61.408
0.70674,61.213
0.68524,60.821
0.66178,60.43
0.63636,60.039
0.60997,59.648
0.58553,59.257
0.56403,58.866
0.54057,58.67
0.51808,58.279
0.49658,57.692
0.47703,57.301
0.45943,56.91
0.44379,56.519
0.43109,55.932
0.42033,55.541
0.41056,55.15
0.40274,54.759
0.39687,54.172
0.39198,53.781
0.3871,53.585
0.38319,53.39
0.37928,53.194
0.37537,53.39
0.37243,53.977
0.36852,55.346
0.36559,58.279
0.36266,62.386
0.35875,68.253
0.35582,74.707
0.35191,81.16
0.34995,87.419
0.34702,92.894
0.34506,97.979
0.34115,102.09
0.33822,105.41
0.33529,107.56
0.33236,108.93
0.32845,109.32
0.32551,108.93
0.32258,108.15
0.31867,106.58
0.31476,104.82
0.31281,102.67
0.30987,100.33
0.30694,97.588
0.30401,94.459
0.3001,91.134
0.29619,87.614
0.29228,84.289
0.28837,80.965
0.28446,78.031
0.28055,75.489
0.27664,73.533
0.27175,71.773
0.26882,70.404
0.26686,69.231
0.26882,68.253
0.2737,67.666
0.28446,67.275
0.30303,66.884
0.33138,66.493
0.36852,66.297
0.41349,66.102
0.46334,66.102
0.51515,65.906
0.56696,65.906
0.61486,65.906
0.652,65.906
0.68133,65.906
0.70968,65.711
0.73216,65.515
0.74976,65.319
0.76246,65.124
0.76931,64.733
0.77028,64.537
0.76735,64.146
0.76051,63.95
0.74878,63.559
0.73314,63.168
0.71457,62.777
0.69599,62.582
0.67546,62.19
0.652,61.799
0.62659,61.408
0.60117,61.213
0.57478,60.626
0.54936,60.235
0.5259,59.844
0.5044,59.452
0.48485,59.061
0.46725,58.475
0.45161,58.083
0.43988,57.692
0.43011,57.106
0.42131,56.91
0.41349,56.519
0.40665,56.128
0.3998,55.737
0.39492,55.346
0.39101,55.15
0.3871,55.15
0.38319,55.346
0.38025,56.323
0.37732,58.279
0.37439,61.799
0.37243,67.08
0.37048,73.338
0.36852,80.183
0.36559,86.832
0.36364,92.894
0.3607,98.566
0.35777,103.46
0.35484,107.56
0.35093,110.5
0.348,112.45
0.34506,113.23
0.34311,113.43
0.34115,112.84
0.3392,111.67
0.33627,110.1
0.33333,108.34
0.3304,106.19
0.32747,103.65
0.32454,100.91
0.32063,97.979
0.31769,94.655
0.31378,91.134
0.31085,87.81
0.30792,84.485
0.30499,81.552
0.30205,79.009
0.3001,76.858
0.29814,75.098
0.29521,73.729
0.29423,72.555
0.29717,71.773
0.30499,71.186
0.32063,70.6
0.34409,70.209
0.3783,70.013
0.41935,69.818
0.46725,69.818
0.51222,69.818
0.55425,69.622
0.6002,69.622
0.64516,69.426
0.68524,69.231
0.72043,69.035
0.74878,68.84
0.77126,68.644
0.7869,68.253
0.79668,67.862
0.80156,67.471
0.80156,67.08
0.79668,66.493
0.78886,66.102
0.7781,65.711
0.76344,65.319
0.74585,64.733
0.72532,64.342
0.70283,63.95
0.6784,63.364
0.65396,62.777
0.62854,62.386
0.60313,61.799
0.57869,61.408
0.55621,60.821
0.53763,60.43
0.52199,59.844
0.50635,59.452
0.49169,58.866
0.47996,58.475
0.46921,58.083
0.45943,57.692
0.45161,57.301
0.44477,56.91
0.43891,56.519
0.43402,56.128
0.42913,55.932
0.42522,55.737
0.42229,56.128
0.41838,57.106
0.41447,59.452
0.41056,63.364
0.40665,69.035
0.40274,75.685
0.39883,82.725
0.39492,89.374
0.39101,95.632
0.3871,101.3
0.38319,106
0.3783,109.91
0.37537,112.65
0.37243,114.21
0.36852,114.99
0.35973,114.8
0.348,114.02
0.34018,112.84
0.33431,111.08
0.32845,108.93
0.32356,106.78
0.31867,104.24
0.31378,101.3
0.3089,98.175
0.30596,94.85
0.30303,91.134
0.29912,87.614
0.29521,84.289
0.2913,81.16
0.28641,78.618
0.2825,76.467
0.27761,74.511
0.2737,73.142
0.27175,71.969
0.2737,70.991
0.28152,70.404
0.29619,69.818
0.31574,69.426
0.34018,69.035
0.37439,69.035
0.41544,68.84
0.46139,68.644
0.50831,68.449
0.55327,68.449
0.59433,68.253
0.62952,68.057
0.65885,67.862
0.68133,67.471
0.69892,67.275
0.70772,66.884
0.71261,66.493
0.71457,66.102
0.71261,65.711
0.70772,65.319
0.69892,64.733
0.68719,64.342
0.67351,63.95
0.65591,63.559
0.63636,63.168
0.61388,62.973
0.5914,62.386
0.56696,61.995
0.54545,61.604
0.5259,61.213
0.5044,60.821
0.48387,60.235
0.46432,59.844
0.44575,59.257
0.43011,58.866
0.41642,58.279
0.40469,57.888
0.39394,57.301
0.38514,56.91
0.37732,56.519
0.37243,56.128
0.36755,55.737
0.36364,55.346
0.35875,55.15
0.35484,54.954
0.35191,55.15
0.348,55.737
0.34506,57.106
0.34213,59.844
0.33822,64.342
0.33529,70.209
0.33138,76.858
0.32845,83.703
0.32551,90.157
0.32258,95.828
0.31965,101.11
0.31672,105.41
0.31281,108.74
0.30987,111.08
0.30694,112.26
0.30303,112.65
0.3001,112.26
0.29717,111.28
0.29326,109.71
0.29032,107.76
0.28739,105.41
0.28543,102.87
0.2825,99.935
0.27957,96.61
0.27566,93.286
0.27175,89.57
0.26784,85.854
0.26393,82.529
0.26002,79.596
0.25611,77.054
0.2522,74.902
0.24927,72.947
0.24536,71.578
0.24438,70.404
0.24536,69.426
0.24927,68.84
0.25806,68.253
0.27468,68.057
0.29912,67.666
0.33236,67.471
0.37243,67.471
0.4174,67.275
0.46432,67.08
0.51124,67.08
0.55425,66.884
0.58847,66.884
0.61584,66.688
0.64125,66.493
0.66276,66.102
0.6784,65.906
0.68915,65.515
0.69501,65.124
0.69697,64.733
0.69306,64.342
0.68622,63.95
0.67546,63.559
0.66178,63.168
0.64418,62.973
0.62659,62.582
0.60899,62.19
0.58749,61.799
0.56403,61.408
0.53959,61.017
0.51613,60.626
0.49267,60.235
0.47116,59.844
0.45161,59.257
0.43402,58.67
0.41838,58.279
0.40469,57.888
0.39394,57.301
0.38612,56.91
0.3783,56.519
0.37048,55.932
0.36364,55.541
0.35875,55.15
0.35386,54.954
0.34995,54.563
0.34604,54.563
0.34213,54.563
0.3392,54.954
0.33627,55.932
0.33333,57.888
0.3304,61.213
0.32845,66.102
0.32649,71.969
0.32356,78.227
0.32063,84.485
0.31672,90.352
0.31378,95.437
0.31085,99.935
0.30792,103.65
0.30499,106.39
0.30205,107.95
0.29912,108.74
0.29717,108.74
0.29521,107.95
0.29326,106.78
0.29032,105.02
0.28739,102.87
0.28348,100.33
0.28055,97.393
0.27664,94.263
0.27273,90.743
0.26882,87.223
0.26588,83.898
0.26197,80.574
0.25806,77.836
0.25611,75.293
0.25415,73.142
0.25122,71.382
0.24829,70.013
0.24536,69.035
0.24438,68.057
0.24633,67.471
0.25318,67.08
0.26588,66.493
0.28641,66.297
0.31574,66.102
0.35093,65.906
0.3871,65.906
0.42229,65.711
0.46432,65.711
0.50635,65.515
0.54741,65.515
0.58358,65.319
0.61486,65.124
0.64027,64.928
0.65885,64.733
0.67253,64.537
0.68035,64.146
0.68328,63.755
0.68133,63.364
0.67546,62.973
0.66764,62.777
0.65494,62.386
0.64027,61.995
0.6217,61.604
0.60117,61.408
0.57869,61.017
0.55621,60.626
0.53275,60.235
0.50929,59.844
0.4868,59.452
0.46628,59.061
0.44966,58.67
0.435,58.083
0.42033,57.692
0.40762,57.301
0.39589,56.91
0.38514,56.323
0.37634,55.932
0.36852,55.541
0.36168,55.15
0.35582,54.563
0.35093,54.368
0.34702,53.977
0.34409,53.781
0.34213,53.977
0.34018,54.172
0.33724,55.15
0.33529,57.106
0.33236,60.43
0.32942,65.319
0.32649,71.578
0.32356,78.031
0.3216,84.289
0.31867,90.352
0.31574,95.632
0.31281,100.52
0.30987,104.24
0.3089,107.17
0.30596,109.13
0.30401,110.1
0.30108,110.3
0.29814,109.52
0.29521,108.34
0.29228,106.78
0.28935,104.63
0.28641,102.28
0.28348,99.348
0.27957,96.415
0.27761,92.894
0.27566,89.374
0.27273,85.854
0.26882,82.334
0.26588,79.4
0.26295,76.662
0.25904,74.511
0.25513,72.555
0.2522,70.991
0.24927,69.818
0.25024,68.84
0.25513,68.057
0.26393,67.471
0.27664,67.08
0.29423,66.688
0.32063,66.493
0.35582,66.297
0.39785,66.297
0.44477,66.102
0.49365,66.102
0.54252,65.906
0.58651,65.906
0.62659,65.711
0.65982,65.711
0.68719,65.515
0.70479,65.124
0.71652,64.928
0.72532,64.537
0.72923,64.342
0.72923,63.95
0.72532,63.559
0.7175,63.168
0.70479,62.973
0.68915,62.582
0.67058,62.19
0.64907,61.995
0.62561,61.604
0.6002,61.213
0.57771,60.821
0.55621,60.43
0.53372,60.039
0.51124,59.648
0.48974,59.257
0.47019,58.67
0.45259,58.279
0.43695,57.888
0.42326,57.301
0.41153,56.91
0.40078,56.519
0.39296,56.128
0.38612,55.541
0.38123,55.15
0.37634,54.759
0.37146,54.563
0.36657,54.368
0.36266,54.563
0.35973,54.954
0.35582,55.932
0.35288,58.083
0.34995,61.799
0.34702,66.884
0.34409,73.338
0.34018,79.791
0.33822,86.441
0.33627,92.308
0.33431,97.784
0.33138,102.48
0.32845,106.19
0.32551,108.93
0.32258,110.89
0.31965,111.67
0.31672,111.67
0.31378,110.89
0.31085,109.71
0.30792,108.15
0.30596,106
0.30401,103.65
0.30108,100.91
0.29814,97.979
0.29423,94.459
0.2913,90.939
0.28739,87.419
0.28348,83.898
0.27957,80.574
0.27566,77.836
0.27175,75.489
0.26784,73.533
0.26491,71.773
0.26197,70.6
0.26197,69.426
0.26393,68.84
0.27077,68.057
0.28348,67.666
0.30499,67.275
0.33431,67.08
0.37243,66.884
0.41642,66.688
0.4653,66.493
0.51417,66.493
0.56207,66.493
0.6002,66.297
0.63148,66.102
0.66178,65.906
0.68817,65.906
0.70968,65.515
0.72532,65.319
0.73509,64.928
0.73998,64.537
0.73998,64.342
0.73509,63.95
0.7263,63.559
0.71359,63.168
0.69795,62.777
0.68035,62.582
0.66276,62.19
0.64027,61.799
0.61681,61.408
0.5914,61.017
0.56598,60.626
0.54154,60.235
0.51711,59.844
0.49462,59.257
0.4741,58.866
0.45552,58.279
0.43988,57.888
0.42717,57.497
0.41642,56.91
0.40665,56.519
0.39785,56.128
0.39003,55.541
0.38319,55.15
0.37732,54.759
0.37243,54.563
0.36852,54.368
0.36461,54.563
0.3607,54.954
0.35777,56.128
0.35484,58.67
0.35191,62.973
0.34995,68.644
0.34702,75.293
0.34409,82.334
0.34115,88.788
0.33822,95.046
0.33529,100.52
0.33236,105.22
0.32845,108.93
0.32551,111.86
0.32258,113.43
0.31965,114.21
0.31769,114.21
0.31574,113.43
0.31281,112.26
0.30987,110.5
0.30694,108.54
0.30303,106.19
0.3001,103.65
0.29619,100.72
0.29228,97.393
0.28935,93.872
0.28543,90.352
0.28152,86.636
0.27761,83.116
0.27468,80.183
0.27273,77.64
0.26979,75.489
0.26588,73.729
0.26295,72.36
0.26197,71.382
0.26393,70.6
0.27175,70.013
0.28739,69.426
0.31183,69.035
0.34506,68.84
0.38612,68.84
0.4262,68.644
0.46725,68.644
0.5132,68.449
0.56109,68.449
0.60606,68.253
0.64614,68.253
0.68035,68.057
0.7087,67.862
0.72923,67.666
0.74487,67.471
0.75367,67.08
0.75758,66.688
0.7566,66.297
0.75171,65.906
0.74389,65.711
0.73314,65.319
0.71848,64.928
0.70088,64.537
0.68035,64.146
0.65689,63.755
0.63245,63.364
0.60704,62.973
0.58162,62.582
0.55621,62.19
0.53177,61.799
0.51124,61.408
0.49365,60.821
0.47605,60.43
0.46041,60.039
0.44575,59.452
0.43304,59.061
0.42131,58.67
0.41251,58.279
0.40469,57.888
0.39785,57.301
0.39198,57.106
0.38807,56.91
0.38416,56.715
0.38123,56.91
0.37928,57.497
0.37634,59.061
0.37341,62.19
0.37048,66.884
0.36852,73.338
0.36559,80.183
0.36266,87.223
0.35973,93.872
0.35679,99.935
0.35484,105.22
0.35191,109.52
0.34995,112.84
0.348,115.19
0.34604,116.36
0.34311,116.75
0.34018,116.36
0.33822,115.19
0.33529,113.82
0.33236,112.06
0.32942,109.91
0.32649,107.56
0.32356,104.82
0.32063,101.89
0.31769,98.566
0.31574,95.046
0.31378,91.33
0.31085,87.81
0.30792,84.681
0.30499,81.747
0.30108,79.4
0.29814,77.249
0.29521,75.685
0.29326,74.316
0.29326,73.338
0.29912,72.555
0.30987,72.164
0.32551,71.578
0.34702,71.186
0.3783,70.991
0.4174,70.795
0.46334,70.6
0.51222,70.404
0.56109,70.209
0.60704,69.818
0.64907,69.622
0.68426,69.426
0.71359,69.035
0.73607,68.84
0.75073,68.449
0.75953,68.057
0.76442,67.471
0.76637,67.08
0.75953,66.688
0.74682,66.297
0.73509,65.906
0.72141,65.515
0.70479,65.124
0.68719,64.733
0.66667,64.342
0.64418,63.95
0.62072,63.559
0.59824,62.973
0.57771,62.582
0.55621,61.995
0.5347,61.408
0.5132,61.017
0.49462,60.43
0.47703,59.844
0.46139,59.452
0.44868,58.866
0.43695,58.279
0.42717,57.888
0.41935,57.497
0.41349,57.106
0.40762,56.715
0.40274,56.323
0.39785,56.128
0.39296,55.932
0.38905,56.128
0.38416,56.91
0.38025,58.67
0.37634,61.995
0.37146,67.08
0.36755,73.533
0.36364,80.769
0.35973,87.81
0.35582,94.459
0.35288,100.52
0.34897,105.8
0.34506,110.1
0.34115,113.43
0.33627,115.58
0.33236,116.56
0.32747,116.75
0.32356,116.17
0.31965,114.8
0.31574,113.23
0.31085,111.28
0.30792,108.93
0.30499,106.19
0.30108,103.26
0.29619,100.13
0.2913,96.61
0.28739,92.894
0.2825,88.983
0.27859,85.463
0.2737,82.138
0.26979,79.4
0.26491,77.054
0.261,75.098
0.25709,73.338
0.25513,72.164
0.25513,71.186
0.25904,70.404
0.26784,69.818
0.28446,69.426
0.30987,69.231
0.34409,69.035
0.38612,69.035
0.43206,68.84
0.48094,68.84
0.52884,68.644
0.57283,68.449
0.60802,68.253
0.63636,68.057
0.66178,67.862
0.68328,67.471
0.69892,67.275
0.70968,66.884
0.71554,66.493
0.71652,65.906
0.71261,65.515
0.70577,65.124
0.69501,64.537
0.68133,64.146
0.66373,63.755
0.64614,63.364
0.62757,62.973
0.60606,62.582
0.5826,62.19
0.55816,61.799
0.53275,61.408
0.50929,61.017
0.48583,60.43
0.46432,60.039
0.44575,59.648
0.42815,59.061
0.41349,58.475
0.40274,58.083
0.39296,57.497
0.38514,57.106
0.37732,56.715
0.37048,56.128
0.36461,55.737
0.3607,55.346
0.35582,55.15
0.35191,55.15
0.34897,55.15
0.34604,55.541
0.34213,56.519
0.3392,58.67
0.33627,62.582
0.33431,67.862
0.33138,74.12
0.32845,80.965
0.32454,87.419
0.32063,93.481
0.31672,98.761
0.31281,103.46
0.3089,107.17
0.30596,109.71
0.30205,111.47
0.29912,112.06
0.29619,111.86
0.29423,111.08
0.2913,109.52
0.28837,107.76
0.28446,105.41
0.28152,102.87
0.27761,99.935
0.2737,96.61
0.26979,93.09
0.26588,89.374
0.26295,85.854
0.25904,82.334
0.25709,79.4
0.25513,76.662
0.2522,74.511
0.24829,72.751
0.24536,71.186
0.24145,70.013
0.24047,69.035
0.24145,68.253
0.24731,67.666
0.26002,67.471
0.28152,67.08
0.30987,66.884
0.34702,66.688
0.38416,66.688
0.42131,66.493
0.46432,66.297
0.50929,66.297
0.55132,66.102
0.59042,65.906
0.62268,65.711
0.64907,65.515
0.6696,65.319
0.68328,64.928
0.69208,64.537
0.69501,64.146
0.69404,63.95
0.68915,63.559
0.68035,63.168
0.66862,62.777
0.65298,62.386
0.63539,61.995
0.61486,61.604
0.59238,61.408
0.56794,61.017
0.5435,60.626
0.51906,60.039
0.4956,59.648
0.4741,59.257
0.45552,58.866
0.43988,58.279
0.42424,57.888
0.40958,57.497
0.39687,56.91
0.38514,56.519
0.37537,56.128
0.36755,55.541
0.3607,55.15
0.35484,54.759
0.34897,54.368
0.34506,54.172
0.34213,53.977
0.3392,53.977
0.33724,54.172
0.33431,54.954
0.33236,56.519
0.32942,59.257
0.32649,63.755
0.32454,69.426
0.3216,75.685
0.31867,82.138
0.31574,88.005
0.31281,93.481
0.3089,98.37
0.30694,102.48
0.30499,105.61
0.30303,107.76
0.3001,108.93
0.29717,109.13
0.29423,108.74
0.2913,107.37
0.28837,105.8
0.28543,103.65
0.28152,101.11
0.27859,98.175
0.27468,95.046
0.27273,91.525
0.26979,87.81
0.26686,84.289
0.26393,80.965
0.261,77.836
0.25709,75.293
0.25415,73.142
0.25024,71.186
0.24731,69.818
0.24438,68.644
0.24242,67.666
0.24242,67.08
0.24633,66.493
0.25513,66.102
0.26784,65.906
0.28935,65.515
0.31867,65.319
0.35582,65.319
0.39883,65.124
0.44477,65.124
0.49071,65.124
0.53568,64.928
0.57674,64.928
0.61193,64.733
0.64125,64.537
0.66178,64.146
0.67449,63.95
0.68524,63.559
0.69208,63.364
0.69404,62.973
0.6911,62.582
0.68426,62.19
0.67351,61.799
0.65885,61.604
0.64125,61.213
0.62072,61.017
0.59824,60.626
0.5738,60.235
0.5523,59.844
0.53177,59.452
0.51026,59.061
0.48778,58.67
0.46725,58.279
0.4477,57.692
0.43011,57.301
0.41544,56.91
0.40176,56.323
0.39101,55.932
0.38416,55.541
0.38025,55.15
0.37634,54.563
0.37243,54.172
0.36852,53.781
0.36461,53.585
0.3607,53.39
0.35777,53.39
0.35484,53.585
0.35191,54.172
0.34897,55.737
0.34604,58.67
0.34409,62.973
0.34115,68.84
0.33822,75.098
0.33529,81.552
0.33431,87.614
0.33138,93.09
0.32942,97.979
0.32649,101.89
0.32356,105.02
0.32063,107.17
0.31769,108.54
0.31574,108.74
0.31281,108.34
0.30987,107.17
0.30694,105.61
0.30499,103.65
0.30303,101.11
0.3001,98.37
0.29717,95.241
0.29326,91.917
0.28935,88.396
0.28641,84.681
0.2825,81.356
0.27859,78.227
0.27566,75.489
0.27175,73.338
0.26784,71.382
0.26491,69.818
0.26295,68.644
0.26197,67.666
0.261,66.884
0.26393,66.297
0.27175,65.906
0.28543,65.515
0.30792,65.319
0.33822,65.124
0.37634,65.124
0.42033,64.928
0.46725,64.928
0.51417,64.928
0.55425,64.733
0.58749,64.733
0.62072,64.537
0.65005,64.342
0.67449,64.146
0.69306,63.95
0.70577,63.559
0.71359,63.168
0.71652,62.973
0.71359,62.582
0.70674,62.19
0.69697,61.799
0.68231,61.408
0.66667,61.213
0.65005,60.821
0.62952,60.43
0.60704,60.235
0.5826,59.844
0.55816,59.452
0.53372,59.061
0.51026,58.67
0.48876,58.279
0.46823,57.692
0.45064,57.301
0.435,56.91
0.42326,56.519
0.41251,55.932
0.40371,55.541
0.39492,55.15
0.3871,54.563
0.38025,54.172
0.37537,53.781
0.37048,53.585
0.36657,53.39
0.36266,53.194
0.35973,53.39
0.35679,53.977
0.35386,55.541
0.35191,58.475
0.34995,62.973
0.348,69.035
0.34506,75.489
0.34311,82.138
0.34018,88.396
0.33724,94.068
0.33431,99.153
0.33138,103.26
0.32845,106.58
0.32551,108.93
0.32258,110.3
0.32063,110.69
0.31965,110.3
0.31672,109.32
0.31476,107.76
0.31085,105.8
0.30792,103.65
0.30499,100.91
0.30108,97.979
0.29814,94.655
0.29423,90.939
0.29032,87.419
0.28641,83.703
0.28446,80.378
0.2825,77.445
0.27957,74.902
0.27566,72.751
0.27273,70.991
0.26882,69.622
0.26588,68.644
0.26491,67.666
0.26784,67.08
0.27566,66.688
0.2913,66.297
0.31476,66.102
0.348,65.906
0.38123,65.711
0.4174,65.711
0.46139,65.711
0.50831,65.711
0.55523,65.711
0.59824,65.515
0.63636,65.319
0.66862,65.124
0.69501,64.928
0.71359,64.733
0.72727,64.342
0.73509,64.146
0.73705,63.755
0.73509,63.364
0.72923,62.973
0.72043,62.582
0.70772,62.19
0.69208,61.799
0.67253,61.408
0.65103,61.017
0.62757,60.626
0.60215,60.235
0.57674,59.844
0.55132,59.452
0.52688,59.061
0.50635,58.67
0.48778,58.279
0.47019,57.692
0.45357,57.301
0.43793,56.91
0.42522,56.323
0.41349,55.932
0.40371,55.541
0.39589,55.15
0.38905,54.759
0.38319,54.368
0.3783,53.977
0.37439,53.781
0.37146,53.781
0.36852,53.977
0.36657,54.563
0.36364,55.932
0.3607,58.475
0.35777,62.973
0.35484,68.644
0.35191,75.293
0.34897,82.138
0.34604,88.592
0.34213,94.655
0.3392,99.739
0.33627,104.24
0.33431,107.95
0.33138,110.5
0.32942,111.86
0.32649,112.65
0.32356,112.45
0.32063,111.47
0.31672,110.1
0.31378,108.34
0.31085,106.19
0.30694,103.65
0.30303,100.91
0.3001,97.784
0.29814,94.459
0.29521,90.743
0.2913,87.223
0.28837,83.703
0.28446,80.378
0.28055,77.64
0.27761,75.293
0.2737,73.533
0.27077,71.969
0.26784,70.795
0.26686,69.818
0.26979,69.231
0.27664,68.644
0.28837,68.253
0.30792,68.057
0.33627,67.862
0.37243,67.666
0.41544,67.666
0.46334,67.666
0.5132,67.666
0.56109,67.666
0.60508,67.471
0.64418,67.471
0.67742,67.275
0.70088,67.08
0.71652,66.884
0.73021,66.493
0.73998,66.102
0.74487,65.711
0.74585,65.515
0.74194,65.124
0.73412,64.733
0.72239,64.342
0.70772,63.95
0.69013,63.559
0.6696,63.168
0.64712,62.777
0.62561,62.582
0.60411,62.19
0.58162,61.799
0.55718,61.408
0.5347,60.821
0.51222,60.43
0.49267,60.039
0.47507,59.648
0.45943,59.061
0.44575,58.67
0.435,58.279
0.42522,57.692
0.41838,57.301
0.41251,56.91
0.40762,56.519
0.40274,56.128
0.39883,55.932
0.39589,55.737
0.39198,55.932
0.39003,56.323
0.3871,57.692
0.38416,60.43
0.38123,64.733
0.37928,70.795
0.37634,77.836
0.37439,84.876
0.37243,91.721
0.37048,97.784
0.36755,103.26
0.36364,107.95
0.35777,111.67
0.35288,114.21
0.34995,115.58
0.34702,116.17
0.34311,115.78
0.34018,114.6
0.33724,113.04
0.33529,111.08
0.33333,108.93
0.3304,106.39
0.32747,103.65
0.32454,100.52
0.3216,97.197
0.31867,93.677
0.31476,89.961
0.31183,86.441
0.30792,83.116
0.30499,80.183
0.30205,77.64
0.29814,75.685
0.29521,74.12
0.29423,72.751
0.29326,71.773
0.29423,70.991
0.3001,70.404
0.31281,70.013
0.33333,69.622
0.36266,69.426
0.40078,69.231
0.44477,69.035
0.49267,69.035
0.54154,68.84
0.5826,68.644
0.61779,68.449
0.65298,68.057
0.68524,67.862
0.71163,67.471
0.73216,67.08
0.74585,66.688
0.75464,66.297
0.75855,65.906
0.75855,65.319
0.75367,64.928
0.74487,64.537
0.73314,64.146
0.71945,63.755
0.70283,63.364
0.68426,62.973
0.66276,62.582
0.6393,62.19
0.61388,61.799
0.58944,61.408
0.565,60.821
0.54057,60.43
0.51906,60.039
0.49853,59.452
0.47996,59.061
0.46432,58.475
0.45259,58.083
0.43988,57.497
0.42913,57.106
0.41935,56.519
0.41153,56.128
0.40371,55.737
0.39785,55.346
0.39198,54.954
0.3871,54.759
0.38221,54.759
0.37732,54.954
0.37341,55.737
0.3695,57.497
0.36657,60.821
0.36266,65.906
0.35777,72.164
0.35386,79.205
0.34897,86.05
0.34409,92.308
0.3392,98.175
0.33529,103.26
0.3304,107.37
0.32649,110.3
0.32258,112.26
0.31965,113.23
0.31769,113.23
0.31378,112.65
0.31085,111.28
0.30694,109.52
0.30303,107.37
0.29912,104.82
0.29521,102.09
0.2913,98.957
0.28739,95.632
0.28348,91.917
0.27957,88.201
0.27566,84.485
0.2737,81.16
0.27077,78.227
0.26686,75.685
0.26295,73.533
0.25806,71.969
0.25415,70.6
0.25122,69.426
0.25024,68.644
0.25318,68.057
0.26295,67.471
0.27957,67.275
0.30401,67.08
0.33236,66.884
0.36461,66.688
0.40665,66.688
0.45357,66.493
0.50147,66.493
0.54839,66.297
0.59042,66.297
0.62757,66.102
0.65787,65.906
0.68133,65.515
0.69795,65.319
0.70968,64.928
0.71457,64.537
0.71457,64.146
0.71163,63.755
0.70479,63.364
0.69501,62.973
0.68133,62.582
0.66471,62.19
0.64614,61.604
0.62366,61.408
0.6002,61.017
0.57576,60.626
0.55034,60.235
0.52493,59.844
0.50342,59.452
0.48485,58.866
0.4653,58.475
0.44673,57.888
0.43011,57.497
0.41447,56.91
0.40176,56.519
0.39003,56.128
0.38123,55.541
0.37341,55.346
0.36657,54.759
0.3607,54.368
0.35679,53.977
0.35386,53.781
0.35093,53.585
0.348,53.585
0.34506,53.781
0.34213,54.563
0.3392,56.128
0.33627,59.257
0.33333,63.95
0.3304,69.818
0.32649,76.271
0.32356,82.725
0.31965,88.788
0.31769,94.263
0.31476,99.153
0.31281,103.06
0.30987,106
0.30694,108.15
0.30303,109.13
0.3001,109.13
0.29717,108.54
0.29423,107.17
0.29032,105.41
0.28739,103.06
0.28348,100.52
0.28152,97.784
0.27957,94.459
0.27664,91.134
0.27273,87.419
0.26979,83.898
0.26588,80.378
0.26197,77.445
0.25806,74.902
0.25415,72.751
0.25122,70.795
0.24731,69.426
0.24438,68.253
0.24145,67.275
0.24145,66.493
0.24438,66.102
0.25122,65.711
0.26491,65.319
0.28543,65.124
0.31574,64.928
0.35288,64.928
0.39589,64.733
0.44282,64.733
0.49071,64.537
0.53666,64.537
0.57869,64.342
0.61095,64.342
0.63539,63.95
0.65787,63.755
0.67546,63.559
0.68817,63.168
0.69599,62.777
0.69892,62.386
0.69697,61.995
0.69013,61.604
0.67937,61.408
0.66569,61.017
0.64809,60.626
0.62757,60.235
0.60704,60.039
0.58749,59.648
0.565,59.257
0.54057,58.866
0.51711,58.475
0.49365,58.083
0.47214,57.692
0.45259,57.301
0.43402,56.715
0.41838,56.323
0.40469,55.737
0.39296,55.346
0.38416,54.954
0.37732,54.563
0.37048,54.172
0.36461,53.781
0.35875,53.39
0.35386,52.999
0.34995,52.803
0.34604,52.608
0.34311,52.608
0.34018,52.999
0.33724,53.977
0.33431,55.737
0.33236,59.061
0.3304,63.755
0.32845,69.622
0.32551,75.88
0.32356,82.138
0.32063,87.614
0.31769,92.699
0.31476,97.197
0.31183,100.72
0.3089,103.46
0.30596,105.22
0.30303,106
0.3001,106
0.29814,105.22
0.29619,103.85
0.29423,101.89
0.2913,99.544
0.28837,97.001
0.28543,93.872
0.28152,90.743
0.27761,87.223
0.27468,83.703
0.27077,80.183
0.26686,77.249
0.26588,74.511
0.26588,72.164
0.26588,70.404
0.26491,68.84
0.26295,67.471
0.26002,66.493
0.25806,65.711
0.25806,65.124
0.261,64.733
0.26882,64.342
0.28348,64.146
0.30596,63.755
0.33627,63.755
0.37341,63.559
0.40958,63.559
0.44477,63.559
0.48583,63.364
0.52688,63.168
0.56598,63.168
0.6002,62.973
0.62854,62.777
0.65103,62.582
0.66764,62.386
0.67937,61.995
0.68524,61.604
0.68622,61.408
0.68231,61.017
0.67546,60.626
0.66471,60.43
0.65103,60.039
0.63441,59.648
0.61486,59.452
0.59433,59.061
0.57185,58.67
0.54936,58.279
0.5259,58.083
0.5044,57.692
0.48289,57.106
0.46334,56.91
0.4477,56.323
0.435,55.932
0.42229,55.346
0.40958,54.954
0.3998,54.563
0.39003,54.172
0.38221,53.781
0.37634,53.39
0.37048,52.999
0.36559,52.608
0.36168,52.412
0.35777,52.216
0.35582,52.216
0.35386,52.216
0.35191,52.803
0.34897,54.368
0.34702,57.106
0.34409,61.408
0.34115,66.884
0.3392,73.338
0.33627,79.791
0.33333,85.854
0.3304,91.33
0.32845,96.219
0.32551,100.13
0.32356,103.26
0.3216,105.61
0.31965,106.98
0.31769,107.17
0.31476,106.98
0.31281,105.8
0.30987,104.24
0.30694,102.09
0.30401,99.739
0.30108,97.001
0.29814,93.872
0.29521,90.548
0.29228,87.027
0.29032,83.312
0.28641,79.987
0.28348,76.858
0.27957,74.316
0.27468,72.164
0.27175,70.209
0.26784,68.644
0.26491,67.471
0.26393,66.493
0.26588,65.906
0.27273,65.319
0.2825,64.928
0.29814,64.537
0.32258,64.342
0.35484,64.146
0.39492,64.146
0.46139,63.95
0.50733,63.95
0.55034,63.95
0.62463,63.755
0.65298,63.755
0.67449,63.559
0.69404,63.364
0.70186,63.168
0.70577,62.973
0.70577,62.582
0.70088,62.386
0.69306,61.995
0.68035,61.604
0.66569,61.213
0.64712,61.017
0.62659,60.626
0.60411,60.235
0.57967,59.844
0.55816,59.648
0.53861,59.257
0.51711,58.866
0.49658,58.475
0.47703,58.279
0.45846,57.692
0.44282,57.301
0.42815,56.91
0.41056,56.519
0.40078,56.128
0.39198,55.541
0.38319,55.15
0.3783,54.759
0.37439,54.368
0.37048,53.977
0.36755,53.585
0.36364,53.194
0.3607,52.803
0.35777,52.608
0.35484,52.608
0.35191,52.608
0.34897,52.999
0.34702,54.172
0.34409,56.519
0.34115,60.235
0.34018,65.711
0.33724,71.969
0.33431,78.422
0.33236,84.681
0.32942,90.548
0.32649,95.632
0.32356,100.13
0.32063,103.65
0.31769,106.19
0.31574,107.76
0.31281,108.54
0.30987,108.54
0.30792,107.56
0.30596,106.19
0.30205,104.24
0.29912,102.09
0.29619,99.544
0.29228,96.61
0.28935,93.481
0.28543,89.961
0.2825,86.441
0.27859,82.725
0.27566,79.596
0.27175,76.662
0.26979,74.12
0.26882,71.969
0.26882,70.209
0.27273,68.84
0.28152,67.666
0.29717,66.688
0.3216,66.102
0.35386,65.711
0.39296,65.319
0.43597,64.928
0.48289,64.733
0.52884,64.733
0.56696,64.537
0.59824,64.537
0.62952,64.537
0.65689,64.537
0.67937,64.342
0.69697,64.342
0.7087,64.146
0.71457,63.95
0.71652,63.559
0.71359,63.364
0.70674,63.168
0.69599,62.973
0.68133,62.582
0.66569,62.19
0.64907,61.799
0.62854,61.604
0.60606,61.213
0.5826,61.017
0.55816,60.626
0.5347,60.43
0.51222,60.039
0.49071,59.844
0.47116,59.452
0.45455,59.061
0.43891,58.67
0.42717,58.279
0.4174,57.888
0.4086,57.497
0.3998,57.106
0.39296,56.715
0.3871,56.128
0.38123,55.737
0.37634,55.346
0.37243,55.15
0.3695,54.759
0.36657,54.368
0.36364,54.172
0.3607,53.977
0.35875,53.977
0.35679,54.563
0.35484,55.737
0.35191,58.083
0.34897,61.995
0.34702,67.471
0.34409,74.12
0.34115,80.769
0.33822,87.419
0.33627,93.286
0.33333,98.566
0.33138,103.26
0.32942,106.98
0.32845,109.52
0.32649,111.28
0.32356,111.86
0.3216,111.86
0.31867,110.89
0.31574,109.52
0.31281,107.76
0.30987,105.61
0.30694,103.06
0.30401,100.33
0.30108,97.393
0.29814,94.068
0.29619,90.352
0.29423,87.027
0.29228,83.507
0.28935,80.378
0.28739,77.836
0.28543,75.489
0.28641,73.533
0.29032,72.164
0.30108,70.991
0.31769,70.209
0.34409,69.426
0.37732,68.84
0.41153,68.449
0.44673,68.253
0.48974,68.057
0.5347,67.862
0.57771,67.862
0.62463,67.862
0.6696,67.862
0.70479,67.666
0.73118,67.666
0.75073,67.471
0.76344,67.471
0.77028,67.275
0.77224,66.884
0.76931,66.688
0.76246,66.297
0.75269,65.906
0.739,65.515
0.72336,65.124
0.70381,64.733
0.68231,64.537
0.65885,64.146
0.63441,63.755
0.60899,63.364
0.58456,62.973
0.56109,62.582
0.54057,62.19
0.52297,61.799
0.50538,61.408
0.48974,61.017
0.47507,60.626
0.46237,60.039
0.45161,59.648
0.44282,59.061
0.435,58.67
0.42913,58.279
0.42326,57.888
0.41935,57.497
0.41544,56.91
0.41349,56.715
0.41056,56.323
0.40762,55.932
0.40469,55.737
0.40176,55.737
0.39883,56.128
0.39589,57.497
0.39296,59.844
0.39003,64.146
0.38612,70.013
0.38319,76.858
0.37928,83.898
0.37732,90.548
0.37439,96.61
0.37146,101.89
0.36852,106.58
0.36559,110.1
0.36168,112.65
0.35875,114.02
0.35582,114.6
0.35191,114.21
0.34897,113.04
0.34506,111.47
0.34115,109.52
0.33822,107.37
0.33529,104.82
0.33236,101.89
0.32845,98.761
0.32454,95.437
0.32063,91.917
0.31769,88.396
0.31378,84.876
0.30987,81.552
0.30596,78.814
0.30401,76.467
0.30499,74.511
0.30987,72.947
0.31867,71.578
0.33333,70.404
0.35679,69.622
0.39003,69.035
0.43011,68.644
0.47605,68.449
0.52395,68.253
0.57185,68.057
0.61681,67.862
0.65787,67.862
0.69208,67.666
0.71945,67.666
0.73803,67.471
0.74878,67.275
0.75758,67.08
0.76246,66.688
0.76344,66.493
0.75953,66.102
0.75171,65.711
0.74096,65.319
0.72532,64.733
0.70772,64.342
0.68719,63.95
0.66373,63.559
0.6393,63.168
0.61584,62.777
0.59433,62.386
0.57087,61.995
0.54643,61.604
0.52297,61.408
0.50147,60.821
0.48094,60.43
0.46334,60.039
0.44868,59.452
0.435,59.061
0.42326,58.475
0.41349,58.083
0.40665,57.497
0.40078,56.91
0.39492,56.519
0.39003,56.128
0.38514,55.737
0.38123,55.346
0.37732,54.954
0.37341,54.563
0.3695,54.368
0.36657,54.172
0.36266,54.563
0.35875,55.346
0.35484,57.106
0.35191,60.43
0.34897,65.319
0.34506,71.578
0.34115,78.618
0.33724,85.463
0.33333,91.721
0.32942,97.393
0.32649,102.48
0.32258,106.58
0.31867,109.52
0.31476,111.47
0.31183,112.45
0.3089,112.45
0.30596,111.86
0.30303,110.3
0.29912,108.54
0.29521,106.39
0.2913,104.04
0.28739,101.11
0.28348,97.979
0.27957,94.655
0.27566,91.134
0.27175,87.419
0.26784,83.898
0.26393,80.574
0.26197,77.64
0.26002,75.098
0.25904,73.142
0.26002,71.382
0.26588,70.209
0.27859,69.035
0.3001,68.253
0.3304,67.666
0.36852,67.275
0.41349,66.884
0.46334,66.688
0.5132,66.493
0.55523,66.493
0.5914,66.297
0.62757,66.297
0.65982,66.297
0.68622,66.102
0.70674,66.102
0.72141,65.906
0.73021,65.711
0.73314,65.319
0.73216,65.124
0.7263,64.733
0.71652,64.342
0.70283,63.95
0.68719,63.755
0.67058,63.364
0.65005,62.973
0.62659,62.582
0.60215,62.19
0.57674,61.799
0.55132,61.408
0.52688,61.017
0.50244,60.626
0.48094,60.235
0.46139,59.844
0.44379,59.257
0.42913,58.866
0.41838,58.279
0.40762,57.888
0.39785,57.497
0.39003,56.91
0.38221,56.519
0.37634,55.932
0.37146,55.541
0.36755,55.15
0.36364,54.759
0.3607,54.368
0.35679,53.977
0.35386,53.781
0.35191,53.585
0.35093,53.585
0.348,53.977
0.34506,54.954
0.34213,56.715
0.33822,59.844
0.33529,64.537
0.33138,70.6
0.32845,76.858
0.32551,83.116
0.3216,88.983
0.31867,94.068
0.31672,98.566
0.31476,102.28
0.31183,104.82
0.3089,106.58
0.30596,107.37
0.30205,107.37
0.29912,106.58
0.29521,105.22
0.2913,103.46
0.28739,101.11
0.28348,98.37
0.27957,95.437
0.27566,92.308
0.27273,88.788
0.27077,85.267
0.26784,81.552
0.26393,78.422
0.26002,75.685
0.25709,73.142
0.25415,71.186
0.25415,69.622
0.25611,68.253
0.26393,67.275
0.27859,66.493
0.30108,65.906
0.32747,65.515
0.35777,65.124
0.39687,64.928
0.44184,64.733
0.48876,64.537
0.53568,64.537
0.57771,64.537
0.61584,64.537
0.64809,64.342
0.67253,64.342
0.6911,64.146
0.70381,63.95
0.71065,63.755
0.71261,63.559
0.70968,63.364
0.70283,62.973
0.69306,62.777
0.67937,62.386
0.66276,61.995
0.64223,61.604
0.61975,61.408
0.59531,61.017
0.57087,60.626
0.54545,60.235
0.51808,60.039
0.49169,59.648
0.47214,59.257
0.45259,58.866
0.43597,58.475
0.42131,58.083
0.40762,57.497
0.39687,57.106
0.3871,56.715
0.37928,56.128
0.37243,55.737
0.36657,55.346
0.36168,54.759
0.35777,54.368
0.35582,53.977
0.35288,53.781
0.34995,53.39
0.348,52.999
0.34506,52.803
0.34311,52.803
0.34018,53.194
0.33822,53.781
0.33529,55.346
0.33236,57.888
0.3304,62.19
0.32747,67.666
0.32551,74.12
0.32356,80.378
0.3216,86.245
0.31867,91.525
0.31672,96.415
0.31378,100.13
0.31085,103.26
0.3089,105.41
0.30596,106.58
0.30303,106.98
0.3001,106.39
0.29717,105.22
0.29423,103.65
0.29228,101.5
0.28935,98.957
0.28641,96.219
0.2825,93.09
0.27957,89.57
0.27566,86.05
0.27273,82.529
0.26882,79.4
0.26588,76.467
0.26197,74.12
0.26002,71.969
0.25806,70.209
0.25904,68.84
0.26393,67.666
0.2737,66.884
0.29032,66.102
0.31476,65.711
0.34702,65.319
0.38612,64.928
0.43011,64.733
0.47507,64.537
0.52102,64.537
0.56305,64.342
0.60117,64.342
0.62952,64.342
0.65103,64.146
0.6696,64.146
0.68426,63.95
0.69404,63.755
0.6999,63.559
0.6999,63.364
0.69501,62.973
0.68719,62.777
0.67449,62.386
0.65885,61.995
0.64027,61.604
0.61975,61.408
0.59922,61.017
0.57967,60.626
0.55718,60.43
0.5347,60.039
0.51222,59.844
0.49169,59.452
0.47214,59.061
0.45455,58.67
0.43793,58.279
0.42424,57.692
0.41251,57.301
0.40176,56.91
0.39394,56.519
0.38807,56.128
0.38221,55.541
0.37634,55.15
0.37146,54.759
0.36755,54.368
0.36364,53.977
0.3607,53.585
0.35777,53.39
0.35484,53.194
0.35191,53.194
0.34897,53.39
0.34604,54.172
0.34409,55.737
0.34213,58.475
0.3392,62.973
0.33627,68.644
0.33333,74.902
0.3304,81.16
0.32845,87.223
0.32551,92.503
0.32258,97.197
0.31965,101.3
0.31672,104.24
0.31378,106.39
0.31183,107.56
0.31085,107.95
0.30792,107.37
0.30499,106.19
0.30205,104.63
0.29912,102.48
0.29619,100.13
0.29228,97.393
0.28837,94.263
0.28446,90.939
0.28152,87.419
0.27761,83.898
0.27468,80.378
0.27175,77.445
0.26979,74.902
0.26784,72.751
0.26588,70.991
0.26686,69.426
0.27077,68.253
0.28152,67.275
0.29912,66.493
0.32454,66.102
0.35875,65.711
0.39883,65.515
0.44379,65.124
0.48387,65.124
0.52004,64.928
0.55914,64.928
0.59629,64.928
0.62952,64.733
0.65787,64.733
0.67937,64.537
0.69501,64.537
0.70577,64.342
0.70968,64.146
0.70968,63.95
0.70577,63.559
0.69697,63.168
0.68524,62.973
0.67253,62.582
0.65494,62.19
0.63539,61.995
0.61388,61.604
0.59042,61.213
0.56696,60.821
0.54252,60.43
0.51906,60.235
0.49756,59.844
0.47703,59.452
0.45846,59.061
0.44379,58.475
0.43206,58.083
0.42033,57.692
0.40958,57.106
0.3998,56.715
0.39198,56.323
0.38514,55.737
0.37928,55.346
0.37439,54.954
0.3695,54.563
0.36657,54.172
0.36266,53.781
0.35973,53.585
0.35777,53.39
0.35582,53.39
0.35386,53.781
0.35191,54.759
0.34897,56.91
0.34604,60.43
0.34311,65.515
0.34018,71.969
0.33724,78.618
0.33431,85.072
0.33138,91.134
0.32845,96.61
0.32649,101.3
0.32454,105.22
0.32258,107.95
0.31965,109.91
0.31672,110.69
0.31378,110.69
0.31085,110.1
0.30694,108.93
0.30401,107.17
0.3001,105.22
0.29619,102.87
0.29326,100.13
0.28935,97.001
0.28641,93.677
0.28446,90.157
0.28152,86.441
0.27859,83.116
0.27468,79.791
0.27077,77.054
0.26784,74.707
0.26686,72.555
0.26979,70.991
0.27664,69.818
0.2913,68.84
0.31378,68.057
0.3392,67.471
0.3695,67.275
0.4086,66.884
0.45357,66.884
0.50049,66.688
0.54643,66.688
0.58944,66.688
0.62854,66.493
0.6608,66.493
0.68622,66.493
0.70674,66.493
0.72043,66.297
0.72825,66.297
0.73021,65.906
0.72923,65.711
0.72532,65.515
0.7175,65.124
0.70674,64.733
0.69208,64.537
0.67351,64.146
0.65298,63.755
0.6305,63.559
0.60606,63.168
0.58162,62.777
0.55621,62.582
0.5347,62.19
0.51515,61.799
0.4956,61.408
0.47605,61.017
0.45846,60.626
0.44282,60.039
0.42913,59.648
0.41838,59.257
0.4086,58.67
0.3998,58.279
0.39296,57.888
0.3871,57.497
0.38319,57.106
0.38025,56.715
0.37634,56.323
0.37341,55.932
0.37048,55.541
0.36852,55.541
0.36559,55.737
0.36168,56.323
0.35875,57.692
0.35582,60.43
0.35288,64.928
0.34995,70.795
0.34702,77.64
0.34506,84.485
0.34311,90.939
0.34115,96.806
0.33822,102.09
0.33529,106.39
0.33236,109.91
0.3304,112.26
0.32747,113.82
0.32454,114.21
0.3216,113.82
0.31965,112.84
0.31672,111.47
0.31378,109.52
0.31183,107.37
0.3089,105.02
0.30596,102.28
0.30303,99.348
0.3001,96.024
0.29717,92.503
0.29423,88.983
0.29032,85.463
0.28739,82.334
0.28446,79.596
0.2825,77.249
0.28348,75.293
0.28739,73.924
0.29619,72.751
0.31281,71.773
0.33627,71.186
0.3695,70.6
0.41056,70.404
0.4565,70.209
0.50538,70.013
0.55425,70.013
0.60117,69.818
0.64223,69.818
0.6784,69.818
0.70479,69.622
0.72336,69.622
0.739,69.426
0.75073,69.231
0.75855,69.035
0.76149,68.644
0.76051,68.253
0.75464,67.862
0.74585,67.471
0.73314,67.08
0.7175,66.688
0.69795,66.297
0.67742,65.906
0.65591,65.515
0.63539,65.124
0.61193,64.733
0.58847,64.342
0.565,63.95
0.54252,63.364
0.52199,62.777
0.50244,62.19
0.48583,61.604
0.47116,61.213
0.45943,60.626
0.44868,60.039
0.43988,59.452
0.43402,59.061
0.42717,58.475
0.42229,58.083
0.4174,57.692
0.41349,57.106
0.40958,56.91
0.40567,56.519
0.40274,56.323
0.39883,56.323
0.39589,56.715
0.39296,57.497
0.38905,59.648
0.38612,63.364
0.38319,68.84
0.38025,75.489
0.37634,82.725
0.37243,89.765
0.36852,96.219
0.36461,101.89
0.36168,106.98
0.35777,110.89
0.35484,113.82
0.35093,115.58
0.34702,116.36
0.34409,116.36
0.34115,115.58
0.33822,114.21
0.33333,112.65
0.32845,110.5
0.32356,108.34
0.31965,105.8
0.31476,102.87
0.30987,99.739
0.30596,96.219
0.30108,92.699
0.29619,88.983
0.29228,85.463
0.28837,82.138
0.28641,79.4
0.28446,77.054
0.28446,75.098
0.29032,73.533
0.30205,72.36
0.3216,71.578
0.35093,70.795
0.38807,70.209
0.43109,69.818
0.47898,69.622
0.52688,69.622
0.56794,69.426
0.60313,69.426
0.63734,69.231
0.66862,69.231
0.69404,69.035
0.71457,69.035
0.72825,68.84
0.73705,68.449
0.73998,68.253
0.73998,67.862
0.73509,67.471
0.7263,67.08
0.71457,66.493
0.70088,66.102
0.68524,65.711
0.66667,65.319
0.64516,64.733
0.62072,64.342
0.59629,63.95
0.57087,63.559
0.54545,63.168
0.52102,62.777
0.49853,62.19
0.47703,61.799
0.45846,61.408
0.44282,60.821
0.43011,60.235
0.41838,59.844
0.40762,59.257
0.39883,58.866
0.39101,58.279
0.38416,57.888
0.3783,57.497
0.37341,56.91
0.3695,56.715
0.36559,56.128
0.36168,55.932
0.35777,55.737
0.35484,55.541
0.35288,55.932
0.34995,56.715
0.34702,58.279
0.34311,61.604
0.34018,66.493
0.33627,72.751
0.33236,79.596
0.32845,86.245
0.32454,92.503
0.32063,98.175
0.31672,103.26
0.31378,107.17
0.31183,110.3
0.3089,112.26
0.30596,113.23
0.30205,113.23
0.29912,112.65
0.29521,111.47
0.2913,109.71
0.28739,107.56
0.28348,105.22
0.27957,102.67
0.27566,99.544
0.27175,96.219
0.26882,92.503
0.26588,88.983
0.26295,85.267
0.25904,81.943
0.25611,79.009
0.2522,76.467
0.25122,74.316
0.25122,72.555
0.25709,71.186
0.26882,70.209
0.28837,69.426
0.31769,68.84
0.348,68.449
0.38123,68.253
0.42424,67.862
0.47019,67.862
0.51711,67.666
0.56207,67.666
0.60215,67.471
0.63636,67.471
0.66373,67.471
0.68524,67.275
0.70088,67.08
0.70968,66.884
0.71359,66.688
0.71261,66.297
0.7087,65.906
0.70088,65.515
0.69013,65.124
0.67546,64.733
0.65787,64.342
0.63832,63.95
0.61584,63.559
0.5914,63.168
0.56696,62.777
0.54154,62.386
0.51711,61.995
0.4956,61.604
0.47703,61.213
0.45846,60.821
0.44086,60.43
0.42522,59.844
0.41153,59.452
0.3998,58.866
0.38905,58.475
0.38123,57.888
0.37341,57.497
0.36755,57.106
0.36168,56.519
0.35777,56.128
0.35484,55.737
0.35191,55.346
0.34897,55.15
0.34604,54.954
0.34311,54.954
0.34018,55.15
0.33724,55.737
0.33431,57.106
0.33138,59.844
0.32845,64.342
0.32454,70.013
0.3216,76.467
0.31867,82.725
0.31672,88.788
0.31378,94.459
0.31085,99.348
0.30792,103.46
0.30499,106.58
0.30205,108.74
0.29912,109.91
0.29521,110.3
0.29228,109.71
0.28935,108.74
0.28543,106.98
0.2825,105.02
0.28055,102.67
0.27761,99.739
0.27468,96.61
0.27077,93.286
0.26784,89.57
0.26393,86.05
0.26002,82.725
0.25709,79.596
0.25318,76.858
0.25024,74.511
0.24927,72.555
0.25024,70.991
0.25415,69.818
0.26197,68.84
0.27664,68.253
0.29912,67.666
0.32845,67.275
0.36559,66.884
0.4086,66.688
0.45357,66.493
0.49853,66.493
0.54154,66.297
0.58065,66.297
0.61486,66.102
0.6393,66.102
0.65591,65.906
0.67058,65.906
0.68133,65.711
0.68817,65.319
0.68915,65.124
0.68719,64.733
0.68035,64.342
0.6696,64.146
0.65494,63.755
0.63832,63.364
0.61779,62.973
0.59629,62.582
0.57478,62.19
0.55523,61.799
0.53275,61.408
0.51026,61.213
0.48876,60.821
0.46725,60.43
0.44868,60.039
0.43206,59.648
0.4174,59.061
0.40469,58.475
0.39296,58.083
0.38416,57.692
0.37732,57.106
0.37146,56.715
0.36657,56.323
0.36168,55.932
0.35777,55.346
0.35386,54.954
0.34995,54.759
0.34702,54.368
0.34409,54.368
0.34213,54.368
0.3392,54.759
0.33627,55.541
0.33333,57.497
0.33138,60.821
0.32942,65.711
0.32747,71.773
0.32454,78.227
0.3216,84.485
0.31867,90.352
0.31574,95.632
0.31281,100.33
0.30987,104.04
0.30694,106.98
0.30401,108.74
0.30108,109.71
0.29912,109.71
0.29717,108.93
0.29423,107.56
0.2913,105.8
0.28837,103.65
0.28446,101.11
0.28055,98.175
0.27761,95.046
0.2737,91.721
0.27077,88.005
0.26686,84.485
0.26393,81.16
0.26002,78.227
0.25806,75.685
0.25709,73.533
0.25611,71.773
0.25709,70.209
0.26197,69.035
0.27273,68.057
0.29032,67.471
0.31574,66.884
0.34995,66.493
0.39003,66.297
0.435,65.906
0.48094,65.906
0.52004,65.711
0.55425,65.711
0.58944,65.515
0.62072,65.515
0.64809,65.515
0.66862,65.515
0.68426,65.319
0.69404,65.124
0.69892,64.928
0.69892,64.537
0.69404,64.342
0.68524,64.146
0.67351,63.755
0.65885,63.559
0.64321,63.168
0.62463,62.777
0.60215,62.582
0.57967,62.19
0.55523,61.995
0.53177,61.604
0.50831,61.408
0.48583,61.017
0.4653,60.43
0.44673,60.039
0.43011,59.648
0.4174,59.257
0.40665,58.866
0.39687,58.475
0.3871,58.279
0.37928,57.692
0.37243,57.301
0.36657,56.91
0.3607,56.519
0.35679,56.128
0.35288,55.737
0.34897,55.541
0.34604,55.346
0.34311,55.346
0.34115,55.737
0.34018,56.323
0.33822,57.888
0.33529,60.821
0.33333,65.515
0.3304,71.382
0.32747,78.031
0.32551,84.681
0.32258,90.939
0.31965,96.61
0.31769,101.69
0.31476,106
0.31378,109.32
0.31183,111.47
0.30987,112.84
0.30792,113.04
0.30499,112.65
0.30205,111.47
0.29912,109.91
0.29619,107.95
0.29326,105.61
0.2913,103.06
0.28837,100.33
0.28543,97.001
0.28348,93.481
0.28152,89.961
0.27957,86.441
0.27664,83.116
0.2737,80.378
0.27077,77.836
0.26979,75.88
0.26979,74.12
0.2737,72.947
0.28348,71.969
0.30108,70.991
0.32551,70.6
0.35875,70.209
0.39296,69.818
0.42815,69.622
0.47019,69.622
0.51515,69.426
0.56012,69.426
0.6002,69.426
0.63636,69.426
0.66667,69.231
0.69013,69.035
0.70772,69.035
0.71945,68.84
0.7263,68.449
0.72727,68.253
0.72434,67.862
0.71848,67.471
0.70968,67.08
0.69697,66.884
0.68231,66.493
0.66373,66.102
0.64321,65.711
0.6217,65.319
0.59824,64.928
0.57576,64.537
0.5523,64.342
0.53079,63.95
0.51222,63.559
0.4956,62.973
0.47996,62.582
0.4653,61.995
0.45161,61.604
0.44086,61.213
0.43109,60.821
0.42326,60.235
0.41642,59.844
0.41056,59.452
0.40665,59.061
0.40274,58.475
0.39883,58.083
0.39687,57.692
0.39394,57.497
0.39198,57.301
0.38905,57.301
0.38612,57.888
0.38416,59.648
0.38123,62.582
0.3783,67.471
0.37537,73.729
0.37146,80.965
0.36852,87.81
0.36559,94.459
0.36364,100.52
0.36168,105.8
0.35875,110.1
0.35582,113.43
0.35288,115.58
0.34995,116.75
0.34702,116.95
0.34409,116.36
0.34115,114.99
0.33724,113.43
0.33431,111.47
0.3304,109.13
0.32747,106.78
0.32551,103.85
0.32258,100.72
0.31867,97.197
0.31574,93.677
0.31183,89.961
0.30792,86.441
0.30499,83.116
0.30108,80.378
0.29814,78.031
0.29814,75.88
0.30205,74.316
0.31183,72.947
0.32551,71.969
0.34506,71.186
0.37341,70.795
0.40958,70.404
0.45161,70.209
0.49658,70.013
0.54545,69.818
0.59335,69.818
0.63539,69.622
0.67058,69.622
0.69892,69.426
0.72043,69.231
0.73412,69.035
0.74096,68.84
0.74585,68.449
0.74585,68.057
0.74291,67.666
0.73705,67.275
0.7263,66.884
0.71359,66.297
0.69697,65.906
0.6784,65.515
0.65591,65.124
0.63245,64.733
0.60802,64.342
0.58456,63.95
0.56305,63.559
0.54057,63.168
0.51711,62.777
0.4956,62.19
0.47605,61.799
0.45748,61.408
0.44184,60.821
0.42815,60.235
0.41642,59.844
0.40665,59.257
0.39883,58.67
0.39296,58.279
0.38807,57.888
0.38319,57.301
0.3783,56.91
0.37439,56.519
0.37048,56.323
0.36657,56.128
0.36266,56.128
0.35875,56.519
0.35484,57.301
0.35093,59.452
0.34702,63.168
0.34311,68.84
0.34018,75.489
0.33724,82.725
0.33333,89.57
0.3304,96.024
0.32649,101.69
0.32258,106.78
0.31867,110.69
0.31574,113.62
0.31183,115.58
0.30792,116.36
0.30401,116.17
0.30108,115.38
0.29814,114.02
0.29521,112.26
0.29228,110.3
0.28837,107.76
0.28446,105.02
0.28055,101.89
0.27664,98.566
0.27273,95.046
0.26882,91.134
0.26491,87.419
0.26197,83.898
0.25806,80.965
0.25513,78.227
0.25318,76.076
0.25513,74.12
0.26002,72.751
0.27077,71.578
0.28935,70.6
0.31672,70.013
0.35191,69.622
0.39492,69.231
0.44184,69.035
0.49169,68.84
0.53959,68.644
0.58358,68.644
0.61877,68.449
0.64614,68.449
0.67058,68.253
0.69208,68.253
0.70772,68.057
0.7175,67.666
0.72239,67.471
0.72336,67.08
0.71945,66.688
0.71163,66.297
0.70088,65.906
0.68622,65.515
0.66862,65.124
0.65005,64.733
0.63148,64.342
0.60899,63.95
0.58456,63.559
0.55914,62.973
0.5347,62.777
0.51026,62.19
0.4868,61.799
0.46628,61.408
0.44673,60.821
0.43011,60.43
0.41642,59.844
0.40469,59.452
0.39589,58.866
0.38807,58.475
0.38025,57.888
0.37341,57.497
0.36852,57.106
0.36364,56.715
0.35875,56.323
0.35484,55.932
0.35191,55.541
0.348,55.346
0.34506,55.541
0.34213,55.737
0.34018,56.715
0.33822,58.475
0.33529,61.799
0.33236,66.688
0.32942,72.751
0.32551,79.4
0.32258,85.854
0.31867,91.917
0.31574,97.588
0.31183,102.28
0.3089,106.39
0.30499,109.32
0.30303,111.08
0.3001,112.06
0.29814,112.06
0.29423,111.28
0.2913,109.91
0.28739,108.15
0.28348,105.8
0.27957,103.26
0.27566,100.52
0.27175,97.197
0.26784,93.677
0.26393,89.961
0.26197,86.245
0.26002,82.725
0.25709,79.791
0.25318,77.054
0.25024,74.707
0.24829,72.947
0.24927,71.382
0.25318,70.209
0.26393,69.231
0.28152,68.449
0.30792,67.862
0.34213,67.471
0.38416,67.275
0.42326,67.08
0.46139,66.884
0.5044,66.884
0.54741,66.688
0.58749,66.688
0.62268,66.493
0.65103,66.493
0.67351,66.493
0.69013,66.297
0.70088,66.102
0.70577,65.906
0.70577,65.515
0.70186,65.124
0.69404,64.928
0.68328,64.537
0.66862,64.146
0.65103,63.755
0.63148,63.364
0.60899,62.973
0.58456,62.582
0.56012,62.19
0.53568,61.799
0.51124,61.408
0.48778,61.017
0.46725,60.626
0.44966,60.235
0.435,59.844
0.42131,59.257
0.40762,58.67
0.39687,58.279
0.3871,57.888
0.3783,57.301
0.37146,56.91
0.36559,56.519
0.3607,55.932
0.35679,55.541
0.35288,55.15
0.34995,54.759
0.348,54.563
0.34604,54.563
0.34409,54.563
0.34115,55.15
0.3392,56.323
0.33627,58.866
0.33333,62.973
0.3304,68.449
0.32747,74.707
0.32454,81.356
0.3216,87.614
0.31867,93.481
0.31672,98.566
0.31476,103.06
0.31281,106.78
0.30987,109.13
0.30694,110.69
0.30401,111.28
0.3001,111.08
0.29717,109.91
0.29326,108.54
0.28935,106.39
0.28641,104.04
0.2825,101.3
0.27957,98.175
0.27761,94.85
0.27468,91.134
0.27077,87.614
0.26784,84.094
0.26393,80.769
0.26002,78.031
0.25709,75.489
0.25415,73.533
0.25318,71.773
0.25611,70.404
0.26295,69.426
0.27761,68.449
0.29521,67.862
0.31965,67.471
0.35288,67.08
0.39394,66.688
0.43988,66.493
0.48778,66.493
0.5347,66.297
0.57771,66.297
0.61681,66.102
0.65005,66.102
0.67546,66.102
0.69599,65.906
0.70772,65.711
0.71359,65.515
0.71652,65.124
0.71554,64.928
0.71065,64.537
0.70186,64.146
0.68915,63.755
0.67253,63.364
0.65298,62.973
0.63148,62.777
0.60802,62.386
0.58358,61.995
0.55816,61.604
0.53666,61.213
0.51711,60.821
0.49658,60.43
0.47605,60.039
0.45748,59.648
0.44086,59.061
0.4262,58.67
0.41349,58.279
0.40176,57.888
0.39296,57.301
0.38514,56.91
0.3783,56.519
0.37243,55.932
0.3695,55.541
0.36559,55.15
0.36168,54.759
0.35875,54.563
0.35582,54.368
0.35288,54.368
0.34995,54.759
0.34702,55.541
0.34409,57.301
0.34115,60.626
0.33822,65.515
0.33529,71.578
0.33236,78.227
0.3304,84.681
0.32845,90.743
0.32551,96.415
0.32258,101.3
0.31965,105.22
0.31672,108.34
0.31378,110.3
0.30987,111.28
0.30694,111.47
0.30401,110.69
0.3001,109.52
0.29814,107.56
0.29619,105.41
0.29326,102.87
0.28935,100.13
0.28641,96.806
0.2825,93.481
0.27859,89.765
0.27468,86.05
0.27077,82.725
0.26686,79.596
0.26295,76.858
0.26002,74.511
0.25806,72.555
0.25904,70.991
0.26295,69.818
0.27077,68.84
0.28641,68.057
0.31085,67.471
0.34311,67.08
0.38221,66.688
0.42717,66.493
0.47605,66.297
0.52395,66.102
0.56891,66.102
0.60997,66.102
0.64125,66.102
0.66471,65.906
0.68524,65.906
0.70283,65.711
0.71457,65.515
0.72239,65.319
0.72434,65.124
0.72141,64.733
0.71457,64.342
0.70283,63.95
0.68817,63.559
0.67058,63.168
0.65005,62.973
0.62952,62.582
0.60899,62.19
0.58553,61.799
0.56109,61.408
0.53666,61.213
0.5132,60.821
0.49071,60.235
0.47019,59.844
0.45161,59.452
0.43597,59.061
0.42131,58.475
0.40958,58.083
0.3998,57.497
0.39296,57.106
0.38612,56.715
0.37928,56.323
0.37341,55.737
0.3695,55.346
0.36461,54.954
0.36168,54.563
0.35875,54.368
0.35582,54.172
0.35288,54.368
0.34995,54.954
0.34702,56.519
0.34506,59.257
0.34409,63.95
0.34115,69.818
0.33822,76.662
0.33529,83.312
0.33236,89.961
0.32942,95.828
0.32649,101.11
0.32356,105.61
0.32063,109.13
0.31769,111.67
0.31574,113.04
0.31281,113.43
0.31183,113.23
0.3089,112.26
0.30596,110.69
0.30205,108.74
0.29912,106.58
0.29521,104.04
0.2913,101.11
0.28739,97.784
0.28348,94.263
0.27957,90.548
0.27566,86.832
0.27273,83.312
0.27077,79.987
0.26784,77.249
0.26491,74.902
0.26393,72.947
0.26491,71.382
0.27175,70.209
0.28543,69.231
0.30694,68.449
0.33822,67.862
0.37732,67.471
0.42326,67.275
0.47214,67.08
0.51515,67.08
0.55425,67.08
0.59531,67.08
0.63343,67.08
0.66667,67.08
0.69404,67.08
0.71457,66.884
0.73021,66.884
0.739,66.688
0.74291,66.493
0.74194,66.102
0.73705,65.906
0.72825,65.711
0.7175,65.319
0.70283,64.928
0.68524,64.537
0.66373,64.146
0.64125,63.755
0.61584,63.364
0.58944,62.973
0.56403,62.777
0.53861,62.386
0.51417,61.995
0.49071,61.604
0.47019,61.213
0.45357,60.626
0.43988,60.235
0.4262,59.844
0.41447,59.257
0.40371,58.866
0.39492,58.279
0.3871,57.888
0.38123,57.497
0.37537,57.106
0.37146,56.715
0.36755,56.323
0.36461,56.128
0.36266,55.932
0.3607,55.737
0.35875,56.128
0.35679,57.106
0.35484,59.061
0.35191,62.777
0.34995,67.862
0.34702,74.511
0.34409,81.552
0.34115,88.396
0.3392,94.655
0.33627,100.52
0.33333,105.41
0.33138,109.52
0.32942,112.65
0.32747,114.6
0.32454,115.58
0.32258,115.78
0.31965,114.99
0.31672,113.82
0.31281,112.06
0.30987,110.1
0.30694,107.76
0.30401,105.02
0.3001,102.28
0.29814,98.957
0.29619,95.437
0.29423,91.917
0.2913,88.201
0.28837,84.876
0.28543,81.747
0.2825,79.205
0.28055,76.858
0.28055,75.098
0.28543,73.729
0.29619,72.555
0.31476,71.773
0.34213,70.991
0.37146,70.6
0.40469,70.209
0.4477,70.013
0.49462,70.013
0.54252,69.818
0.58847,69.818
0.6305,69.622
0.66764,69.622
0.69795,69.426
0.72141,69.426
0.739,69.231
0.75073,69.035
0.75562,68.84
0.7566,68.449
0.75464,68.057
0.74878,67.666
0.73998,67.275
0.72727,66.884
0.71163,66.493
0.69306,65.906
0.67155,65.515
0.64907,65.124
0.62463,64.733
0.6002,64.537
0.57576,64.146
0.55425,63.559
0.53568,62.973
0.51613,62.582
0.49756,61.995
0.48094,61.408
0.4653,60.821
0.45259,60.235
0.44184,59.648
0.43206,59.061
0.42424,58.475
0.4174,58.083
0.41153,57.497
0.40665,57.106
0.40371,56.715
0.40078,56.323
0.39687,56.128
0.39394,55.932
0.39101,55.737
0.38807,56.128
0.38319,57.301
0.37634,59.648
0.37146,63.559
0.36755,69.426
0.36364,76.467
0.35973,83.703
0.35679,90.548
0.35386,97.001
0.35093,102.67
0.348,107.56
0.34409,111.67
0.34115,114.41
0.33724,116.17
0.33431,116.95
0.3304,116.75
0.32649,115.78
0.32258,114.41
0.31867,112.45
0.31574,110.3
0.31281,107.95
0.3089,105.22
0.30401,102.09
0.3001,98.761
0.29521,95.046
0.2913,91.33
0.28641,87.614
0.28152,84.094
0.27761,80.965
0.27273,78.227
0.27077,76.076
0.27077,74.12
0.2737,72.751
0.2825,71.578
0.29814,70.6
0.32258,70.013
0.35582,69.426
0.39589,69.035
0.44086,69.035
0.48876,68.84
0.53568,68.644
0.57967,68.644
0.61877,68.449
0.65103,68.449
0.67449,68.253
0.6911,68.057
0.70381,67.862
0.71359,67.666
0.71848,67.275
0.71848,67.08
0.71554,66.493
0.70772,66.102
0.69697,65.711
0.68328,65.319
0.66667,64.733
0.64712,64.342
0.62463,63.95
0.60411,63.559
0.5826,63.168
0.56012,62.777
0.53568,62.386
0.51124,61.995
0.48876,61.604
0.46725,61.017
0.4477,60.626
0.43011,60.039
0.41544,59.648
0.40274,59.257
0.39101,58.67
0.38319,58.083
0.37634,57.692
0.37048,57.106
0.36461,56.715
0.35973,56.128
0.35582,55.737
0.35191,55.346
0.34897,54.954
0.34506,54.759
0.34213,54.563
0.33822,54.759
0.33529,55.346
0.33333,56.715
0.3304,59.257
0.32747,63.559
0.32454,69.426
0.32063,76.271
0.31769,83.116
0.31378,89.57
0.31085,95.437
0.30694,100.91
0.30303,105.41
0.3001,108.74
0.29717,111.08
0.29326,112.45
0.2913,112.84
0.28935,112.26
0.28641,111.08
0.28348,109.32
0.27957,107.17
0.27566,104.82
0.27175,102.09
0.26784,98.957
0.26393,95.632
0.26002,91.917
0.25709,88.201
0.25318,84.485
0.25024,81.16
0.24829,78.227
0.24536,75.489
0.24242,73.338
0.24145,71.578
0.24145,70.209
0.24731,69.231
0.25904,68.253
0.27859,67.666
0.30694,67.275
0.34311,66.884
0.38612,66.688
0.43304,66.493
0.47507,66.297
0.5132,66.297
0.55327,66.297
0.59042,66.102
0.62268,66.102
0.64907,65.906
0.6696,65.711
0.68426,65.515
0.69306,65.319
0.69599,64.928
0.69501,64.537
0.68915,64.342
0.68035,63.95
0.66862,63.559
0.65396,63.168
0.63636,62.777
0.61584,62.386
0.59335,61.995
0.56989,61.604
0.54545,61.408
0.52102,61.017
0.49658,60.626
0.4741,60.235
0.45357,59.844
0.43402,59.257
0.41935,58.866
0.40762,58.279
0.39492,57.888
0.38416,57.301
0.37537,56.91
0.36755,56.519
0.3607,55.932
0.35484,55.541
0.34995,55.15
0.34604,54.759
0.34213,54.368
0.33822,53.977
0.33627,53.781
0.33431,53.585
0.33236,53.585
0.32942,53.781
0.32747,54.563
0.32454,56.128
0.3216,59.061
0.31769,63.559
0.31476,69.231
0.31183,75.685
0.3089,81.943
0.30596,87.81
0.30303,93.286
0.30108,97.979
0.29912,102.09
0.29717,105.02
0.29423,107.17
0.2913,108.15
0.28837,108.34
0.28543,107.56
0.28152,106.39
0.27859,104.63
0.27566,102.28
0.27175,99.739
0.26784,96.806
0.26588,93.481
0.26393,89.961
0.261,86.245
0.25709,82.725
0.25415,79.4
0.25024,76.662
0.24731,74.12
0.2434,71.969
0.24145,70.209
0.24047,68.84
0.2434,67.666
0.25024,66.884
0.26491,66.102
0.28348,65.711
0.30792,65.319
0.34018,65.124
0.38123,64.733
0.42522,64.733
0.47116,64.537
0.51711,64.537
0.55816,64.537
0.59531,64.342
0.62561,64.342
0.65005,64.146
0.66862,64.146
0.67937,63.755
0.68426,63.559
0.68622,63.364
0.68426,62.973
0.6784,62.777
0.66862,62.386
0.65494,61.995
0.63832,61.604
0.61877,61.213
0.59726,60.821
0.5738,60.626
0.55034,60.235
0.5259,59.844
0.50538,59.648
0.48583,59.257
0.46628,58.866
0.4477,58.475
0.43011,58.083
0.41544,57.497
0.40176,57.106
0.39003,56.519
0.38025,56.128
0.37243,55.541
0.36461,55.15
0.35875,54.759
0.35484,54.368
0.35093,53.977
0.348,53.585
0.34506,53.194
0.34213,52.999
0.3392,52.803
0.33724,52.803
0.33431,52.803
0.33138,53.585
0.32942,54.954
0.32649,57.692
0.32356,61.799
0.32063,67.275
0.31867,73.533
0.31672,79.791
0.31476,85.854
0.31183,91.33
0.3089,96.219
0.30694,100.33
0.30401,103.46
0.30108,105.61
0.29814,106.98
0.29619,107.17
0.29326,106.78
0.28935,105.61
0.28739,103.85
0.28837,101.89
0.29032,99.348
0.29032,96.415
0.28739,93.286
0.28446,89.765
0.28152,86.245
0.27761,82.725
0.27468,79.4
0.27077,76.467
0.26686,73.729
0.26393,71.773
0.261,69.818
0.26002,68.449
0.26197,67.275
0.26686,66.493
0.27859,65.711
0.29717,65.319
0.32356,64.928
0.35875,64.537
0.40078,64.342
0.4477,64.146
0.49658,64.146
0.5435,63.95
0.58749,63.95
0.6217,63.95
0.64809,63.755
0.67351,63.755
0.69404,63.559
0.7087,63.364
0.71848,63.168
0.72239,62.973
0.72239,62.582
0.71652,62.386
0.70674,61.995
0.69306,61.604
0.67644,61.213
0.65591,61.017
0.63636,60.626
0.61584,60.235
0.59238,60.039
0.56794,59.648
0.5435,59.257
0.52004,58.866
0.49756,58.475
0.47703,58.083
0.45846,57.692
0.44282,57.301
0.42815,56.91
0.41642,56.323
0.40665,55.932
0.39883,55.346
0.39198,54.954
0.38612,54.563
0.38025,54.172
0.37537,53.781
0.37048,53.39
0.36657,52.999
0.36364,52.608
0.3607,52.412
0.35777,52.412
0.35484,52.608
0.35288,53.194
0.35093,54.563
0.34897,57.106
0.34604,61.408
0.34311,67.275
0.34018,73.729
0.33724,80.183
0.33431,86.441
0.33138,92.112
0.32845,97.197
0.32551,101.3
0.32356,104.82
0.32063,107.17
0.31867,108.74
0.31672,109.13
0.31378,108.74
0.31085,107.76
0.30792,106.39
0.30401,104.24
0.30108,102.09
0.29717,99.348
0.29326,96.219
0.28935,92.894
0.28543,89.179
0.28152,85.658
0.27957,82.138
0.27664,79.009
0.2737,76.271
0.27077,73.924
0.26686,71.969
0.26491,70.404
0.26588,69.035
0.27077,68.057
0.28152,67.275
0.30108,66.688
0.3304,66.297
0.36755,65.906
0.41153,65.906
0.45357,65.711
0.49365,65.711
0.53861,65.711
0.58358,65.711
0.62463,65.711
0.6608,65.711
0.6911,65.711
0.71359,65.515
0.73118,65.515
0.74194,65.319
0.74682,65.124
0.74585,64.733
0.74194,64.537
0.73314,64.146
0.72141,63.755
0.70577,63.559
0.68719,63.168
0.66667,62.777
0.64321,62.582
0.61877,62.19
0.59335,61.799
0.56794,61.408
0.54252,61.017
0.52004,60.626
0.49756,60.235
0.47996,59.844
0.4653,59.452
0.45064,59.061
0.43793,58.475
0.4262,58.083
0.41642,57.692
0.40762,57.301
0.40078,56.91
0.39492,56.519
0.39003,56.128
0.38612,55.737
0.38319,55.346
0.38025,55.15
0.3783,54.954
0.37634,54.954
0.37439,55.15
0.37243,55.932
0.3695,57.692
0.36755,60.821
0.36461,65.906
0.36266,71.969
0.35973,78.814
0.35679,85.463
0.35484,91.525
0.35191,97.197
0.34995,102.28
0.348,106.39
0.34604,109.52
0.34409,111.47
0.34115,112.65
0.3392,112.84
0.33627,112.26
0.33333,111.08
0.3304,109.32
0.32747,107.17
0.32454,104.82
0.3216,102.28
0.31965,99.153
0.31769,95.828
0.31574,92.308
0.31281,88.788
0.30987,85.267
0.30694,82.138
0.30401,79.205
0.30108,76.858
0.29912,74.902
0.29814,73.338
0.30205,71.969
0.30987,70.991
0.32551,70.404
0.34506,69.818
0.37048,69.426
0.40469,69.035
0.44673,69.035
0.49462,68.84
0.5435,68.84
0.59042,68.84
0.63441,68.84
0.67351,68.644
0.70577,68.644
0.73118,68.449
0.75073,68.253
0.76246,68.057
0.76833,67.666
0.77126,67.275
0.77028,66.688
0.7654,66.297
0.75758,65.711
0.74487,65.319
0.72923,64.733
0.71065,64.342
0.68915,63.755
0.66569,63.364
0.64125,62.973
0.61681,62.582
0.59433,62.19
0.5738,61.995
0.55327,61.604
0.53275,61.213
0.51417,60.626
0.49658,60.039
0.48192,59.648
0.46921,59.061
0.45846,58.67
0.44966,58.083
0.44184,57.692
0.435,57.106
0.43011,56.519
0.4262,56.128
0.42229,55.737
0.41838,55.346
0.41447,54.954
0.41153,54.759
0.40762,54.563
0.40469,54.759
0.40078,55.737
0.39687,57.692
0.39296,61.408
0.38905,66.688
0.38514,73.338
0.38221,80.378
0.3783,87.223
0.37537,93.677
0.37146,99.544
0.36657,104.63
0.36266,108.74
0.35875,111.86
0.35484,113.62
0.35093,114.41
0.34604,114.21
0.34213,113.43
0.33724,112.06
0.33333,110.1
0.3304,107.95
0.32649,105.61
0.3216,102.67
0.31672,99.544
0.31085,96.219
0.30596,92.699
0.30108,88.983
0.29619,85.267
0.2913,81.943
0.28641,79.009
0.28152,76.467
0.27761,74.316
0.27664,72.555
0.27859,71.186
0.28446,70.209
0.29814,69.231
0.31965,68.644
0.34995,68.253
0.38905,68.057
0.43011,67.862
0.47214,67.666
0.51808,67.471
0.56305,67.471
0.60313,67.471
0.63441,67.275
0.65885,67.08
0.68035,67.08
0.69795,66.884
0.70968,66.493
0.7175,66.297
0.71945,65.906
0.7175,65.711
0.71065,65.124
0.70088,64.733
0.68719,64.342
0.67058,63.95
0.652,63.559
0.63245,63.168
0.6129,62.777
0.58944,62.19
0.56598,61.799
0.54154,61.408
0.51711,61.213
0.49462,60.821
0.47312,60.235
0.45357,59.844
0.43695,59.257
0.42131,58.866
0.4086,58.279
0.39883,57.888
0.39101,57.301
0.38416,56.91
0.37732,56.323
0.37146,55.932
0.36657,55.541
0.36266,55.15
0.35875,54.759
0.35582,54.368
0.35191,54.172
0.34897,53.977
0.34604,53.977
0.34409,54.563
0.34213,55.541
0.3392,58.083
0.33627,61.995
0.33333,67.471
0.32942,73.729
0.32649,80.378
0.32258,86.832
0.31965,92.699
0.31574,97.979
0.31281,102.48
0.30987,106
0.30596,108.54
0.30401,110.1
0.30205,110.5
0.29912,110.3
0.29619,109.13
0.29228,107.56
0.28837,105.41
0.28543,103.06
0.28152,100.33
0.27664,97.197
0.27273,93.872
0.26882,90.352
0.26491,86.636
0.26295,82.921
0.261,79.791
0.25806,77.054
0.25415,74.511
0.25122,72.555
0.24829,70.795
0.24829,69.426
0.25122,68.449
0.261,67.471
0.27664,67.08
0.30108,66.493
0.33431,66.102
0.37439,65.906
0.41251,65.906
0.45064,65.711
0.49365,65.711
0.53763,65.515
0.57771,65.515
0.6129,65.319
0.64223,65.319
0.66471,65.124
0.68133,64.928
0.69208,64.733
0.69697,64.537
0.69795,64.342
0.69404,63.95
0.68622,63.559
0.67546,63.168
0.66178,62.777
0.64516,62.386
0.62463,61.995
0.60313,61.604
0.57967,61.408
0.55523,61.017
0.53177,60.626
0.50733,60.235
0.48485,59.844
0.46432,59.452
0.44673,59.061
0.43304,58.67
0.41838,58.083
0.40567,57.692
0.39394,57.301
0.38416,56.715
0.37634,56.323
0.3695,55.737
0.36364,55.346
0.35875,54.954
0.35484,54.563
0.35093,54.172
0.348,53.781
0.34604,53.585
0.34409,53.39
0.34115,53.39
0.3392,53.585
0.33627,54.172
0.33333,55.541
0.3304,58.279
0.32747,62.386
0.32454,67.666
0.3216,73.924
0.31867,80.183
0.31574,86.05
0.31378,91.525
0.31183,96.415
0.30987,100.52
0.30792,103.65
0.30499,105.8
0.30205,106.98
0.29912,107.37
0.29619,106.78
0.29326,105.61
0.28935,103.85
0.28641,101.69
0.2825,99.153
0.28055,96.219
0.27859,93.09
0.27566,89.57
0.27175,86.05
0.26882,82.725
0.26491,79.4
0.26197,76.662
0.25806,74.12
0.25513,72.164
0.2522,70.404
0.25122,69.035
0.2522,67.862
0.25806,67.08
0.26686,66.297
0.28152,65.906
0.30401,65.515
0.33431,65.124
0.37243,64.928
0.41544,64.928
0.46139,64.733
0.50635,64.733
0.54936,64.537
0.58847,64.537
0.6217,64.537
0.64809,64.342
0.66667,64.146
0.6784,63.95
0.68719,63.755
0.6911,63.364
0.6911,63.168
0.68719,62.777
0.6784,62.582
0.66569,62.19
0.65005,61.799
0.63148,61.408
0.60997,61.213
0.58749,60.821
0.56403,60.43
0.5435,60.235
0.52297,59.844
0.50244,59.452
0.48192,59.061
0.46334,58.67
0.44575,58.279
0.43011,57.888
0.41642,57.497
0.40469,56.91
0.39394,56.519
0.38514,56.128
0.37732,55.541
0.37243,55.15
0.36852,54.759
0.36364,54.368
0.35973,53.977
0.35679,53.585
0.35386,53.39
0.35093,53.194
0.348,53.194
0.34506,53.39
0.34311,53.977
0.34018,55.541
0.33724,58.279
0.33431,62.386
0.33236,67.862
0.3304,73.924
0.32845,80.378
0.32551,86.245
0.32356,91.721
0.32063,96.61
0.31867,100.52
0.31574,103.65
0.31281,105.8
0.31085,107.17
0.30792,107.37
0.30499,106.98
0.30303,105.8
0.30108,104.24
0.29814,102.09
0.29521,99.544
0.2913,96.806
0.28837,93.677
0.28446,90.157
0.28152,86.636
0.27761,83.116
0.27468,79.791
0.27077,76.858
0.26784,74.316
0.26393,72.164
0.26197,70.404
0.26197,69.035
0.26197,67.862
0.26686,67.08
0.27566,66.297
0.29228,65.906
0.31672,65.515
0.34897,65.319
0.38807,65.124
0.43206,64.928
0.47898,64.928
0.52395,64.733
0.56207,64.733
0.59335,64.733
0.62463,64.733
0.65103,64.537
0.67253,64.537
0.68915,64.342
0.6999,64.146
0.70479,63.755
0.70479,63.364
0.6999,63.168
0.6911,62.777
0.67937,62.386
0.66471,62.19
0.64907,61.799
0.63441,61.408
0.61877,61.213
0.59824,60.821
0.57478,60.43
0.55034,60.039
0.52688,59.844
0.5044,59.452
0.48387,59.061
0.4653,58.67
0.44868,58.279
0.43402,57.692
0.42326,57.301
0.41349,56.715
0.40567,56.323
0.39785,55.932
0.39101,55.346
0.38514,54.954
0.38025,54.563
0.37537,54.172
0.37243,53.781
0.36852,53.585
0.36559,53.39
0.36364,53.39
0.36168,53.781
0.35973,54.563
0.35679,56.519
0.35484,59.844
0.35191,64.733
0.34897,70.6
0.34604,77.249
0.34311,83.703
0.34018,89.765
0.33724,95.241
0.33431,100.13
0.33138,104.04
0.32845,107.17
0.32649,109.13
0.32454,110.1
0.32258,110.3
0.31965,109.52
0.31672,108.34
0.31378,106.58
0.30987,104.43
0.30694,102.09
0.30303,99.153
0.29912,96.024
0.29521,92.699
0.2913,88.983
0.28837,85.267
0.28543,81.943
0.2825,78.814
0.27957,76.076
0.27566,73.729
0.27273,71.773
0.27077,70.404
0.27273,69.035
0.27957,68.057
0.29228,67.471
0.31476,66.884
0.34506,66.493
0.38416,66.102
0.42229,65.906
0.46139,65.906
0.50733,65.711
0.55425,65.711
0.6002,65.711
0.64125,65.515
0.67644,65.515
0.70479,65.515
0.7263,65.319
0.74096,65.124
0.75073,64.928
0.75464,64.733
0.75269,64.537
0.74682,64.146
0.73803,63.755
0.72532,63.364
0.70968,62.973
0.69013,62.777
0.66862,62.386
0.64418,61.995
0.61877,61.604
0.59238,61.213
0.56598,60.821
0.54057,60.43
0.51711,60.039
0.49658,59.648
0.47996,59.257
0.46237,58.67
0.44673,58.279
0.43304,57.888
0.42131,57.301
0.41056,56.91
0.40176,56.519
0.39492,55.932
0.38807,55.541
0.38319,55.15
0.3783,54.563
0.37537,54.368
0.37243,53.977
0.37048,53.781
0.36755,53.977
0.36461,54.368
0.36168,55.541
0.35875,57.888
0.35679,61.995
0.35386,67.471
0.35093,73.924
0.34702,80.769
0.34409,87.223
0.34115,93.286
0.33822,98.761
0.33627,103.46
0.33431,107.17
0.33138,109.91
0.32845,111.67
0.32551,112.26
0.3216,112.26
0.31867,111.28
0.31476,109.91
0.31085,108.15
0.30792,106
0.30401,103.46
0.30108,100.72
0.29814,97.588
0.29521,94.068
0.2913,90.548
0.28739,87.027
0.28348,83.507
0.27957,80.378
0.27566,77.64
0.27175,75.293
0.26979,73.533
0.26882,71.969
0.27273,70.795
0.28152,69.818
0.29521,69.035
0.31574,68.644
0.34506,68.253
0.38416,68.057
0.42913,67.862
0.47898,67.666
0.52981,67.666
0.57869,67.666
0.62366,67.666
0.66276,67.666
0.69599,67.666
0.72141,67.666
0.73803,67.471
0.7478,67.275
0.75562,67.08
0.75855,66.884
0.7566,66.493
0.75171,66.102
0.74194,65.906
0.72923,65.515
0.71261,65.124
0.69208,64.733
0.6696,64.342
0.64614,63.95
0.62072,63.755
0.59726,63.364
0.57576,62.973
0.5523,62.386
0.52884,61.995
0.50733,61.604
0.48778,61.213
0.47019,60.821
0.45455,60.235
0.44086,59.844
0.43011,59.257
0.42033,58.866
0.41251,58.475
0.40665,58.083
0.40176,57.692
0.39785,57.106
0.39394,56.91
0.39101,56.519
0.38807,56.323
0.38514,56.323
0.38319,56.519
0.38025,57.301
0.3783,59.257
0.37537,62.582
0.37341,67.471
0.37048,73.924
0.36852,80.965
0.36657,88.005
0.36461,94.459
0.36168,100.52
0.35875,105.61
0.35582,109.91
0.35386,113.23
0.35093,115.19
0.348,116.36
0.34506,116.36
0.34213,115.78
0.3392,114.6
0.33724,112.84
0.33529,110.89
0.33236,108.54
0.32845,106
0.32551,103.06
0.3216,99.739
0.31867,96.415
0.31574,92.699
0.31183,88.983
0.3089,85.658
0.30596,82.529
0.30205,79.791
0.3001,77.64
0.29912,75.685
0.30108,74.316
0.30596,72.947
0.31769,72.164
0.33724,71.382
0.36559,70.991
0.40176,70.6
0.44575,70.404
0.49365,70.209
0.54448,70.209
0.59335,70.013
0.63832,70.013
0.67351,70.013
0.70088,69.818
0.7263,69.622
0.74682,69.426
0.76246,69.231
0.77322,69.035
0.7781,68.644
0.77908,68.057
0.77517,67.666
0.76735,67.275
0.75562,66.688
0.73998,66.297
0.72336,65.906
0.70577,65.515
0.68426,64.928
0.6608,64.537
0.63636,64.146
0.61095,63.559
0.58651,63.168
0.56207,62.777
0.53959,62.19
0.51906,61.799
0.50049,61.213
0.48387,60.821
0.46921,60.235
0.45846,59.844
0.44868,59.257
0.44086,58.67
0.43304,58.279
0.42717,57.888
0.42131,57.497
0.41642,56.91
0.41153,56.715
0.40176,56.323
0.39003,56.128
0.38221,56.128
0.37634,56.519
0.37243,57.692
0.36852,60.039
0.36559,63.95
0.3607,69.622
0.35679,76.467
0.35191,83.507
0.34702,90.352
0.34311,96.806
0.33822,102.48
0.33431,107.37
0.32942,111.28
0.32551,113.82
0.3216,115.58
0.31867,116.17
0.31574,115.78
0.31183,114.8
0.30792,113.43
0.30303,111.47
0.29912,109.13
0.29423,106.78
0.28935,103.85
0.28543,100.72
0.28055,97.197
0.27664,93.481
0.27273,89.765
0.26882,86.05
0.26686,82.725
0.26295,79.791
0.25904,77.445
0.25611,75.293
0.25415,73.729
0.25611,72.36
0.26295,71.382
0.27664,70.6
0.29912,70.013
0.32942,69.622
0.36852,69.231
0.41251,69.035
0.45357,69.035
0.49267,69.035
0.5347,68.84
0.57576,68.84
0.6129,68.644
0.64418,68.449
0.6696,68.449
0.68817,68.057
0.6999,67.862
0.70674,67.471
0.7087,67.275
0.70674,66.884
0.70088,66.493
0.69208,66.102
0.68035,65.711
0.66471,65.124
0.64712,64.733
0.62561,64.342
0.60313,63.95
0.57869,63.559
0.55425,63.168
0.52884,62.973
0.50538,62.386
0.48289,61.995
0.46139,61.604
0.44477,61.213
0.43011,60.626
0.41642,60.039
0.40371,59.648
0.39198,59.061
0.38319,58.67
0.37439,58.083
0.36755,57.692
0.36168,57.106
0.35679,56.91
0.35288,56.519
0.34897,56.128
0.34604,55.932
0.34409,55.737
0.34115,55.737
0.33822,56.128
0.33529,57.106
0.33236,59.257
0.32942,62.973
0.32649,68.449
0.32258,74.902
0.31965,81.552
0.31574,88.396
0.31183,94.459
0.3089,100.13
0.30596,104.82
0.30401,108.74
0.30108,111.47
0.29814,113.04
0.29521,113.82
0.29228,113.62
0.28837,112.65
0.28543,111.08
0.28152,109.13
0.27761,106.98
0.2737,104.24
0.26979,101.3
0.26784,97.979
0.26491,94.459
0.26197,90.743
0.25904,87.027
0.25513,83.507
0.2522,80.378
0.24829,77.64
0.24536,75.293
0.24242,73.533
0.24145,72.164
0.24438,70.991
0.25122,70.013
0.26588,69.231
0.28446,68.84
0.30792,68.449
0.34018,68.057
0.38123,67.862
0.42717,67.862
0.4741,67.666
0.52102,67.666
0.56403,67.666
0.60215,67.471
0.63343,67.471
0.65885,67.275
0.67742,67.08
0.68817,66.884
0.69404,66.688
0.69599,66.297
0.69501,65.906
0.68915,65.711
0.68035,65.319
0.66764,64.733
0.652,64.537
0.63245,64.146
0.61095,63.755
0.58749,63.364
0.56305,62.973
0.53861,62.582
0.51613,62.19
0.49658,61.799
0.47605,61.408
0.4565,61.017
0.43793,60.43
0.42033,60.039
0.40567,59.452
0.39296,59.061
0.38221,58.475
0.37341,58.083
0.36559,57.497
0.35973,57.106
0.35484,56.715
0.35191,56.323
0.348,55.932
0.34409,55.541
0.34115,55.346
0.33822,55.346
0.33627,55.346
0.33333,55.932
0.3304,56.91
0.32747,59.257
0.32454,62.973
0.3216,68.253
0.31867,74.511
0.31672,80.965
0.31476,87.223
0.31183,93.09
0.30987,98.37
0.30694,102.87
0.30401,106.58
0.30108,108.93
0.29814,110.5
0.29423,111.08
0.2913,110.69
0.28837,109.71
0.28446,108.15
0.2825,106.19
0.27957,103.85
0.27664,101.11
0.2737,98.175
0.26979,94.85
0.26686,91.134
0.26295,87.419
0.25904,83.898
0.25611,80.574
0.2522,77.836
0.24927,75.293
0.24633,73.338
0.24438,71.773
0.24438,70.404
0.24731,69.426
0.25318,68.644
0.26588,68.057
0.28543,67.471
0.31378,67.275
0.34995,67.08
0.39101,66.884
0.43597,66.688
0.48289,66.688
0.52688,66.493
0.56794,66.493
0.6002,66.493
0.62463,66.297
0.64712,66.297
0.66471,66.102
0.6784,65.906
0.68622,65.515
0.68915,65.319
0.68719,64.928
0.68035,64.733
0.67058,64.342
0.65689,63.95
0.6393,63.559
0.6217,63.168
0.60313,62.973
0.58162,62.582
0.55816,62.19
0.53372,61.799
0.50929,61.408
0.4868,61.017
0.4653,60.626
0.44575,60.039
0.42815,59.648
0.41251,59.257
0.39883,58.67
0.3871,58.279
0.3783,57.692
0.37146,57.301
0.36559,56.91
0.35973,56.519
0.35484,55.932
0.34995,55.541
0.34604,55.15
0.34311,54.954
0.34018,54.759
0.33724,54.759
0.33431,55.15
0.33138,55.932
0.32942,57.692
0.32845,60.821
0.32649,65.711
0.32356,71.773
0.32063,78.422
0.31769,84.876
0.31574,91.134
0.31281,96.806
0.30987,101.89
0.30694,106.19
0.30401,109.32
0.30108,111.47
0.29814,112.45
0.29619,112.65
0.29521,112.06
0.29521,110.89
0.29717,109.13
0.29619,107.17
0.29423,104.63
0.2913,101.69
0.28739,98.566
0.28446,95.046
0.28055,91.525
0.27664,87.614
0.27273,84.094
0.26979,80.769
0.26686,78.031
0.26393,75.489
0.261,73.533
0.25904,71.969
0.25904,70.795
0.26393,69.818
0.27468,69.035
0.29326,68.644
0.3216,68.253
0.35777,68.057
0.40078,67.862
0.44966,67.862
0.49365,67.862
0.53372,67.862
0.57771,67.862
0.61877,67.862
0.65591,67.862
0.68622,67.862
0.71065,67.666
0.72825,67.471
0.73998,67.275
0.74487,67.08
0.74585,66.688
0.74096,66.493
0.73314,66.102
0.72239,65.711
0.70772,65.319
0.69013,65.124
0.66862,64.733
0.64516,64.537
0.61877,64.146
0.59238,63.755
0.56598,63.364
0.53959,62.973
0.51515,62.582
0.49169,62.19
0.47116,61.799
0.45455,61.408
0.44184,60.821
0.42913,60.43
0.4174,60.039
0.40762,59.648
0.39883,59.257
0.39101,58.866
0.38514,58.279
0.38025,57.888
0.37634,57.497
0.37243,57.301
0.3695,57.106
0.36755,57.106
0.36559,57.301
0.36364,58.083
0.36168,59.844
0.35875,62.973
0.35679,67.666
0.35386,73.924
0.35093,80.769
0.34897,87.614
0.34604,94.263
0.34311,100.13
0.34115,105.41
0.33822,109.71
0.33627,113.04
0.33529,115.19
0.33236,116.36
0.3304,116.56
0.32747,115.97
0.32551,114.6
0.32258,113.04
0.31965,111.08
0.31672,108.74
0.31378,106.19
0.31085,103.26
0.30792,99.935
0.30499,96.415
0.30401,92.699
0.30108,89.179
0.29912,85.658
0.29619,82.725
0.29228,80.183
0.28935,78.031
0.28837,76.271
0.28935,74.902
0.29423,73.729
0.30596,72.947
0.32551,72.36
0.35386,72.164
0.38416,71.773
0.4174,71.578
0.46139,71.578
0.50929,71.578
0.55816,71.578
0.60606,71.578
0.64907,71.382
0.68622,71.382
0.71652,71.186
0.74096,70.991
0.75855,70.6
0.76931,70.404
0.77419,69.818
0.77419,69.426
0.77126,68.84
0.76442,68.449
0.75464,67.862
0.74096,67.275
0.72336,66.884
0.70381,66.493
0.68231,65.906
0.65787,65.515
0.63343,65.124
0.60802,64.733
0.58358,64.342
0.56207,63.95
0.54252,63.559
0.52395,62.973
0.50538,62.582
0.48974,61.995
0.47507,61.604
0.46237,61.017
0.45161,60.43
0.44282,59.844
0.43597,59.452
0.43011,58.866
0.42522,58.475
0.42131,58.083
0.41838,57.692
0.41447,57.301
0.41153,57.106
0.4086,57.301
0.40469,57.888
0.40176,59.648
0.39785,62.777
0.39394,67.862
0.39003,74.316
0.38612,81.552
0.38123,88.788
0.37732,95.632
0.37341,102.09
0.37048,107.76
0.36657,112.45
0.36266,115.97
0.35875,118.12
0.35484,119.49
0.35093,119.49
0.34702,119.1
0.34213,117.93
0.33822,116.17
0.33333,114.21
0.32845,111.86
0.32454,109.32
0.32063,106.39
0.31672,103.06
0.31183,99.544
0.30694,95.632
0.30205,91.721
0.29619,88.005
0.2913,84.485
0.28641,81.552
0.28152,79.009
0.27761,76.858
0.27664,75.098
0.27859,73.729
0.28641,72.751
0.30108,72.164
0.32454,71.578
0.35679,71.382
0.39785,71.186
0.44575,70.991
0.4956,70.795
0.54643,70.795
0.59433,70.795
0.63734,70.6
0.67449,70.6
0.70479,70.6
0.72532,70.404
0.73803,70.013
0.74878,69.818
0.75464,69.426
0.7566,69.035
0.75367,68.644
0.74682,68.253
0.73705,67.666
0.72336,67.275
0.70577,66.884
0.68524,66.297
0.66276,65.906
0.64027,65.515
0.61779,65.124
0.59335,64.733
0.56696,64.342
0.54154,63.95
0.51613,63.364
0.49267,62.973
0.47214,62.386
0.45357,61.799
0.43695,61.408
0.42326,60.821
0.41153,60.235
0.40176,59.844
0.39394,59.257
0.38807,58.866
0.38319,58.279
0.3783,57.888
0.37341,57.497
0.37048,57.301
0.36657,56.91
0.36364,56.91
0.35973,57.301
0.35679,58.083
0.35386,60.039
0.34995,63.364
0.34702,68.644
0.34506,75.293
0.34213,82.529
0.3392,89.57
0.33529,96.219
0.33138,102.28
0.32845,107.56
0.32454,111.86
0.32063,114.99
0.31769,116.95
0.31378,117.93
0.30987,117.93
0.30596,117.14
0.30401,115.78
0.30108,114.02
0.29814,111.86
0.29326,109.52
0.28935,106.78
0.28543,103.65
0.28152,100.13
0.27761,96.415
0.2737,92.503
0.26979,88.788
0.26588,85.267
0.26197,82.138
0.25904,79.4
0.25709,77.054
0.25513,75.098
0.25513,73.533
0.25904,72.36
0.26979,71.578
0.28739,70.795
0.31476,70.404
0.35093,70.013
0.39003,69.818
0.43304,69.622
0.47898,69.622
0.5259,69.426
0.565,69.426
0.59726,69.231
0.62952,69.231
0.65689,69.231
0.67937,69.035
0.69599,68.84
0.70674,68.644
0.71261,68.253
0.71359,68.057
0.71065,67.666
0.70283,67.275
0.69208,66.884
0.6784,66.297
0.66373,65.906
0.64516,65.515
0.62366,65.124
0.6002,64.537
0.57576,64.146
0.55034,63.755
0.52493,63.364
0.50147,62.973
0.47801,62.582
0.45748,61.995
0.43891,61.408
0.42229,61.017
0.4086,60.626
0.39883,60.039
0.38807,59.648
0.37928,59.061
0.37146,58.67
0.36461,58.279
0.35973,57.692
0.35484,57.301
0.35093,56.91
0.34702,56.715
0.34409,56.519
0.34115,56.519
0.3392,56.715
0.33724,57.497
0.33529,59.452
0.33333,62.777
0.3304,67.666
0.32747,74.12
0.32454,80.965
0.32063,87.81
0.31769,94.263
0.31476,100.13
0.31183,105.22
0.3089,109.52
0.30499,112.65
0.30303,114.8
0.30108,115.78
0.29912,115.97
0.29619,115.19
0.29326,114.02
0.28935,112.26
0.28641,110.1
0.2825,107.56
0.27859,104.63
0.27566,101.5
0.27175,97.979
0.26784,94.068
0.26491,90.352
0.26295,86.441
0.26002,83.116
0.25709,79.987
0.25318,77.445
0.25024,75.293
0.24829,73.533
0.24927,72.164
0.25318,71.186
0.26393,70.404
0.28152,69.818
0.30694,69.426
0.34115,69.035
0.37634,68.84
0.41251,68.644
0.4565,68.644
0.50244,68.644
0.54741,68.644
0.58847,68.449
0.62463,68.449
0.65494,68.253
0.6784,68.253
0.69501,68.057
0.70577,67.666
0.71163,67.471
0.71163,67.08
0.7087,66.688
0.70088,66.297
0.6911,65.906
0.67742,65.515
0.65982,65.124
0.6393,64.733
0.61681,64.342
0.59238,63.95
0.56794,63.559
0.54252,63.168
0.51711,62.777
0.49365,62.386
0.47312,61.799
0.4565,61.408
0.43891,61.017
0.42326,60.43
0.40958,59.844
0.39687,59.452
0.3871,59.061
0.3783,58.475
0.37048,58.083
0.36461,57.497
0.35875,57.106
0.35386,56.715
0.35093,56.323
0.34897,55.932
0.34604,55.932
0.34409,55.932
0.34115,56.519
0.3392,57.497
0.33627,59.844
0.33431,63.559
0.33138,69.035
0.32845,75.685
0.32551,82.725
0.32258,89.374
0.31965,95.632
0.31769,101.5
0.31574,106.39
0.31281,110.3
0.30987,113.23
0.30694,114.8
0.30401,115.58
0.30108,115.38
0.29814,114.41
0.29423,113.04
0.2913,111.28
0.28739,108.93
0.28348,106.58
0.28152,103.65
0.27859,100.33
0.27566,96.61
0.27273,92.894
0.26882,89.179
0.26491,85.658
0.26197,82.334
0.25806,79.596
0.25415,77.249
0.25122,75.293
0.24927,73.729
0.25122,72.555
0.25611,71.578
0.26588,70.991
0.28348,70.404
0.3089,70.209
0.34311,70.013
0.38416,69.818
0.43011,69.818
0.47898,69.818
0.52688,69.818
0.57185,69.818
0.61095,69.818
0.64516,69.818
0.67253,69.622
0.69013,69.622
0.70186,69.426
0.71065,69.231
0.71554,68.84
0.71554,68.644
0.71163,68.253
0.70381,67.862
0.69208,67.471
0.67742,67.08
0.65885,66.688
0.63832,66.297
0.61486,65.906
0.59238,65.711
0.57185,65.319
0.54839,64.733
0.52493,64.537
0.50147,63.95
0.47996,63.559
0.46041,62.973
0.44282,62.582
0.42717,62.19
0.41447,61.604
0.40274,61.213
0.39394,60.626
0.38612,60.235
0.38025,59.844
0.37634,59.452
0.37146,58.866
0.36852,58.475
0.36559,58.279
0.36266,58.083
0.3607,58.083
0.35777,58.279
0.35582,59.257
0.35386,61.213
0.35191,64.733
0.34995,70.209
0.348,76.858
0.34702,84.094
0.34506,91.134
0.34213,97.979
0.34018,104.04
0.33724,109.32
0.33529,113.82
0.33236,116.95
0.3304,119.1
0.32845,120.08
0.32551,120.08
0.32356,119.3
0.32063,117.93
0.31867,116.17
0.31672,114.21
0.31476,111.86
0.31183,109.13
0.3089,106
0.30596,102.67
0.30303,99.153
0.3001,95.437
0.29717,91.721
0.29423,88.005
0.2913,84.681
0.28837,81.943
0.28641,79.596
0.28641,77.836
0.28641,76.271
0.29032,75.098
0.3001,74.316
0.31672,73.533
0.34213,73.338
0.37439,72.947
0.41544,72.751
0.46041,72.555
0.52004,72.555
0.5826,72.36
0.62366,72.164
0.64712,71.969
0.6696,71.773
0.69306,71.578
0.71359,71.186
0.72923,70.795
0.74096,70.6
0.74682,70.013
0.7478,69.622
0.74194,69.231
0.73412,68.84
0.7263,68.253
0.71359,67.862
0.69892,67.471
0.68328,67.08
0.66373,66.493
0.64125,66.102
0.61681,65.711
0.59238,65.124
0.56794,64.733
0.54448,64.342
0.51808,63.755
0.4956,63.168
0.47996,62.777
0.4653,62.19
0.45064,61.604
0.43793,61.017
0.42717,60.626
0.42033,60.039
0.41447,59.648
0.40762,59.061
0.40274,58.67
0.39883,58.279
0.39394,57.888
0.38905,57.497
0.38612,57.301
0.38221,57.301
0.3783,57.692
0.37634,58.866
0.37341,61.408
0.36852,65.711
0.36364,71.578
0.3607,78.814
0.35679,86.245
0.35191,93.481
0.348,100.13
0.34409,106.39
0.33822,111.47
0.33333,115.58
0.32845,118.32
0.32551,119.88
0.3216,120.47
0.31867,120.08
0.31378,119.1
0.30987,117.54
0.30499,115.58
0.3001,113.23
0.29521,110.69
0.29032,107.95
0.28641,104.82
0.28152,101.3
0.27761,97.588
0.2737,93.677
0.27175,89.765
0.26784,86.05
0.26393,82.725
0.26002,79.987
0.25806,77.64
0.25806,75.88
0.26197,74.316
0.26784,73.142
0.28446,72.164
0.31672,71.578
0.35484,71.186
0.39883,70.795
0.43988,70.6
0.47898,70.404
0.52199,70.404
0.565,70.209
0.60411,70.209
0.63734,70.209
0.66373,70.013
0.68426,69.818
0.69892,69.622
0.70674,69.426
0.71065,69.035
0.70968,68.644
0.70479,68.253
0.69795,67.862
0.68719,67.471
0.67351,66.884
0.65689,66.493
0.63734,65.906
0.61584,65.515
0.59238,65.124
0.56794,64.733
0.54252,64.342
0.51808,63.95
0.49365,63.559
0.47116,62.973
0.45259,62.582
0.43695,61.995
0.42229,61.604
0.40762,61.017
0.39589,60.43
0.38514,60.039
0.37634,59.452
0.36852,59.061
0.36266,58.475
0.35777,58.083
0.35288,57.692
0.34995,57.301
0.34702,56.91
0.34506,56.519
0.34213,56.323
0.3392,56.323
0.33627,56.519
0.33333,57.497
0.3304,59.452
0.32649,62.973
0.32356,68.057
0.31965,74.511
0.31574,81.747
0.31281,88.788
0.30987,95.437
0.30792,101.69
0.30499,106.98
0.30108,111.28
0.29814,114.41
0.29521,116.36
0.2913,117.34
0.28837,117.34
0.28446,116.56
0.28152,115.19
0.27761,113.43
0.27468,111.28
0.27077,108.74
0.26784,105.8
0.26588,102.48
0.26295,98.957
0.26002,95.046
0.25611,91.134
0.25318,87.419
0.24927,83.898
0.24633,80.574
0.24242,77.836
0.24047,75.685
0.24047,73.924
0.24438,72.36
0.2522,71.382
0.26491,70.6
0.28641,70.013
0.31672,69.622
0.35484,69.231
0.39883,69.035
0.44575,69.035
0.49365,68.84
0.53959,68.84
0.58065,68.644
0.61681,68.644
0.64614,68.644
0.66862,68.449
0.68328,68.253
0.69208,68.057
0.69697,67.666
0.69892,67.471
0.69599,67.08
0.69013,66.688
0.68035,66.297
0.66667,65.906
0.65005,65.319
0.6305,64.928
0.60802,64.537
0.58456,64.146
0.56305,63.755
0.54154,63.364
0.51906,62.973
0.4956,62.582
0.47214,62.19
0.45161,61.604
0.43304,61.213
0.41544,60.626
0.40078,60.235
0.38905,59.648
0.3783,59.257
0.3695,58.67
0.36168,58.279
0.35679,57.692
0.35288,57.301
0.34897,56.91
0.34506,56.519
0.34213,56.128
0.3392,55.737
0.33627,55.541
0.33431,55.541
0.33138,55.737
0.32845,56.519
0.32551,58.083
0.32258,61.017
0.32063,65.515
0.31867,71.578
0.31574,78.227
0.31281,85.072
0.30987,91.33
0.30694,97.393
0.30303,102.48
0.3001,106.98
0.29717,110.1
0.29423,112.45
0.29032,113.43
0.28739,113.62
0.28446,113.04
0.28152,111.86
0.27957,110.1
0.27761,107.95
0.2737,105.61
0.27077,102.67
0.26686,99.544
0.26393,96.024
0.26002,92.112
0.25611,88.396
0.25318,84.876
0.24927,81.552
0.24536,78.618
0.2434,76.271
0.24242,74.12
0.24145,72.36
0.2434,70.991
0.24927,70.013
0.26197,69.035
0.28152,68.449
0.30987,68.057
0.34506,67.666
0.3871,67.471
0.43206,67.471
0.47898,67.275
0.52395,67.275
0.56012,67.275
0.59042,67.08
0.61877,67.08
0.64321,66.884
0.66276,66.884
0.67644,66.688
0.68524,66.297
0.68817,66.102
0.68622,65.711
0.68133,65.319
0.67155,64.928
0.65787,64.537
0.64418,64.342
0.62757,63.95
0.60802,63.559
0.58651,63.168
0.56305,62.777
0.53861,62.386
0.51515,61.995
0.49169,61.604
0.46921,61.213
0.44966,60.821
0.43109,60.235
0.41544,59.844
0.40078,59.452
0.39003,58.866
0.38221,58.475
0.37341,58.083
0.36657,57.692
0.35973,57.301
0.35484,56.91
0.34995,56.323
0.34506,55.932
0.34213,55.541
0.34311,55.346
0.34604,55.15
0.34702,55.346
0.34702,55.541
0.34604,56.323
0.34409,58.279
0.34213,61.604
0.3392,66.493
0.33627,72.947
0.33333,79.791
0.3304,86.636
0.32747,93.09
0.32356,98.957
0.32063,104.24
0.31769,108.54
0.31476,111.67
0.31281,113.82
0.31085,114.99
0.3089,114.99
0.30596,114.41
0.30303,113.23
0.3001,111.47
0.29619,109.32
0.29326,106.78
0.28935,104.04
0.28543,100.72
0.2825,97.197
0.27859,93.481
0.27664,89.765
0.27468,86.05
0.27273,82.725
0.26979,79.791
0.26588,77.445
0.26393,75.489
0.26393,73.729
0.26588,72.555
0.27468,71.578
0.28935,70.795
0.31281,70.404
0.34604,70.013
0.38612,69.818
0.4262,69.818
0.4653,69.622
0.51124,69.818
0.55816,69.818
0.60215,69.818
0.64223,69.818
0.67546,69.818
0.70186,69.622
0.72239,69.426
0.73607,69.231
0.74389,69.035
0.74682,68.644
0.74487,68.253
0.739,67.862
0.73021,67.471
0.71652,67.08
0.70088,66.688
0.68133,66.297
0.65982,65.906
0.63539,65.711
0.61095,65.319
0.58553,64.928
0.56109,64.537
0.53763,64.146
0.51515,63.755
0.49756,63.364
0.48192,62.777
0.46725,62.386
0.45357,61.995
0.44184,61.408
0.43206,61.017
0.42326,60.626
0.41642,60.039
0.41056,59.648
0.40665,59.257
0.40274,58.866
0.3998,58.279
0.39785,58.083
0.39589,57.692
0.39394,57.692
0.39198,57.692
0.39003,58.279
0.38807,59.452
0.38514,62.19
0.38319,66.493
0.38025,72.555
0.37732,79.791
0.37439,87.027
0.37243,93.872
0.3695,100.33
0.36852,106
0.36657,110.89
0.36364,114.8
0.36168,117.34
0.35875,118.71
0.35679,119.1
0.35386,118.51
0.35093,117.34
0.348,115.58
0.34506,113.43
0.34115,111.28
0.33822,108.54
0.33529,105.61
0.33333,102.48
0.3304,98.957
0.32747,95.241
0.32454,91.525
0.32063,87.81
0.31769,84.289
0.31476,81.356
0.31183,79.009
0.30987,76.858
0.31085,75.293
0.31769,73.924
0.32747,72.947
0.34213,72.164
0.36657,71.773
0.3998,71.382
0.43988,70.991
0.48485,70.795
0.53372,70.795
0.58065,70.6
0.62463,70.6
0.66471,70.6
0.69697,70.404
0.72336,70.209
0.74389,70.013
0.75562,69.818
0.76246,69.426
0.7654,69.035
0.7654,68.644
0.76149,68.057
0.75367,67.666
0.74194,67.275
0.72727,66.688
0.70968,66.297
0.68817,65.906
0.66569,65.515
0.64125,65.124
0.61877,64.537
0.59726,64.146
0.5738,63.755
0.55034,63.364
0.52688,62.973
0.50635,62.386
0.4868,61.995
0.47019,61.408
0.45552,61.017
0.44282,60.43
0.43206,59.844
0.42229,59.452
0.41447,58.866
0.4086,58.475
0.40371,58.083
0.39883,57.497
0.39394,57.106
0.39003,56.91
0.38514,56.519
0.38123,56.323
0.37634,56.519
0.37243,56.91
0.36852,58.475
0.36461,61.213
0.35973,65.906
0.35679,72.164
0.35386,79.205
0.34995,86.636
0.34604,93.677
0.34213,100.13
0.33822,106
0.33431,110.89
0.3304,114.6
0.32649,117.14
0.32258,118.51
0.31867,118.9
0.31476,118.32
0.31085,117.14
0.30792,115.38
0.30596,113.43
0.30205,111.08
0.29814,108.34
0.29423,105.22
0.29032,101.89
0.28641,98.175
0.2825,94.263
0.27859,90.352
0.27468,86.441
0.26979,83.116
0.26588,79.987
0.26393,77.64
0.26295,75.489
0.26295,73.729
0.26784,72.555
0.27761,71.578
0.29619,70.795
0.32258,70.209
0.35777,69.818
0.40078,69.622
0.44868,69.426
0.49756,69.426
0.54643,69.231
0.5914,69.231
0.62757,69.231
0.65494,69.035
0.68035,69.035
0.70088,68.84
0.71652,68.644
0.72727,68.449
0.73216,68.057
0.73216,67.666
0.72727,67.471
0.71945,66.884
0.70674,66.493
0.69208,65.906
0.67546,65.515
0.65787,65.124
0.63636,64.733
0.6129,64.342
0.58749,63.755
0.56207,63.364
0.53666,62.973
0.51222,62.582
0.48974,62.19
0.46823,61.604
0.44966,61.213
0.43304,60.821
0.41838,60.235
0.40762,59.648
0.39883,59.061
0.39101,58.67
0.38319,58.279
0.37732,57.692
0.37243,57.301
0.36755,56.91
0.36364,56.519
0.35973,56.128
0.35679,55.737
0.35288,55.737
0.34995,55.737
0.348,56.128
0.34604,57.106
0.34409,59.257
0.34115,62.973
0.33724,68.253
0.33431,74.707
0.3304,81.552
0.32747,88.396
0.32356,94.655
0.32063,100.52
0.31769,105.41
0.31378,109.32
0.31085,112.26
0.30792,114.02
0.30596,114.8
0.30303,114.6
0.29717,113.62
0.28935,112.06
0.28348,110.1
0.27859,107.76
0.27468,105.02
0.27077,101.89
0.26686,98.37
0.26295,94.655
0.25904,90.939
0.25709,87.027
0.25513,83.507
0.2522,80.378
0.24829,77.64
0.24536,75.293
0.24242,73.338
0.24242,71.969
0.24438,70.6
0.25318,69.818
0.26784,69.035
0.2913,68.644
0.32258,68.253
0.36168,68.057
0.39883,67.862
0.43695,67.666
0.47996,67.666
0.52297,67.471
0.56403,67.471
0.6002,67.471
0.6305,67.275
0.65494,67.275
0.67253,67.08
0.68426,66.884
0.6911,66.493
0.69208,66.297
0.68915,65.906
0.68231,65.515
0.67155,65.124
0.65885,64.733
0.64125,64.342
0.6217,63.95
0.6002,63.559
0.57674,63.168
0.55327,62.777
0.52884,62.386
0.5044,61.995
0.48192,61.604
0.46041,61.213
0.44282,60.626
0.42815,60.235
0.41447,59.844
0.40078,59.257
0.38905,58.866
0.37928,58.279
0.37048,57.888
0.36364,57.301
0.35679,56.91
0.35191,56.519
0.34702,55.932
0.34311,55.541
0.34018,55.346
0.33822,54.954
0.33627,54.954
0.33333,54.954
0.33138,55.346
0.32845,56.323
0.32649,58.279
0.32356,61.799
0.32063,66.884
0.31769,73.338
0.31476,80.183
0.31183,86.832
0.30987,93.09
0.30792,98.761
0.30596,103.85
0.30303,107.76
0.3001,110.89
0.29717,112.65
0.29423,113.43
0.2913,113.23
0.28837,112.45
0.28543,110.89
0.2825,108.93
0.27859,106.39
0.27566,103.65
0.27273,100.52
0.27077,97.197
0.26784,93.481
0.26491,89.57
0.261,85.854
0.25806,82.138
0.25415,79.009
0.25122,76.271
0.24829,74.12
0.24536,72.164
0.24536,70.795
0.24829,69.622
0.25415,68.84
0.26588,68.057
0.28446,67.666
0.31281,67.275
0.348,67.08
0.39003,66.884
0.43597,66.688
0.48289,66.688
0.52884,66.688
0.57087,66.688
0.60802,66.688
0.6393,66.688
0.66373,66.493
0.67937,66.297
0.68915,66.102
0.69599,65.906
0.69795,65.711
0.69599,65.319
0.69013,64.928
0.68035,64.537
0.66667,64.146
0.64907,63.755
