0.28446,91.917
0.28152,88.005
0.28055,84.681
0.28152,82.138
0.28641,79.987
0.29912,78.227
0.31965,77.054
0.34897,76.076
0.3871,75.489
0.43109,75.098
0.47898,75.098
0.52884,74.902
0.57576,74.902
0.61388,74.902
0.64516,74.902
0.67449,74.902
0.6999,74.707
0.72043,74.511
0.73509,74.316
0.74487,74.12
0.75073,73.533
0.75171,73.142
0.74878,72.751
0.74194,72.164
0.73314,71.578
0.72141,70.795
0.7087,70.209
0.69306,69.622
0.67449,69.035
0.65494,68.449
0.63245,67.862
0.60899,67.471
0.58553,66.884
0.56109,66.297
0.53763,65.906
0.51515,65.319
0.49365,64.733
0.47507,64.342
0.45943,63.755
0.4477,63.168
0.435,62.582
0.42424,61.995
0.41447,61.408
0.40665,61.017
0.39883,60.43
0.39296,60.039
0.3871,59.452
0.38221,59.061
0.3783,58.475
0.37341,58.279
0.37048,57.888
0.36755,57.888
0.36461,58.279
0.3607,59.844
0.35679,62.973
0.35288,68.84
0.348,77.054
0.34409,86.636
0.3392,96.61
0.33529,106
0.3304,114.21
0.32649,121.25
0.32258,126.53
0.31965,130.25
0.31672,132.4
0.31378,133.18
0.30987,132.79
0.30694,131.42
0.30303,129.47
0.29912,127.12
0.29521,124.77
0.2913,122.03
0.28739,119.1
0.28348,115.97
0.28055,112.65
0.27761,108.93
0.27566,104.82
0.2737,100.72
0.26979,96.415
0.26686,92.112
0.26295,88.201
0.25904,84.681
0.25709,81.747
0.25806,79.4
0.26295,77.445
0.27566,76.076
0.29619,75.098
0.32551,74.316
0.35777,73.924
0.39296,73.729
0.43597,73.533
0.48387,73.533
0.53177,73.533
0.57771,73.533
0.61877,73.533
0.65396,73.338
0.68231,73.338
0.70381,73.142
0.72043,72.947
0.73021,72.751
0.73509,72.36
0.73509,71.969
0.73216,71.382
0.72727,70.991
0.71848,70.404
0.70674,69.818
0.69306,69.231
0.67546,68.644
0.65689,68.057
0.63539,67.471
0.6129,66.884
0.58847,66.493
0.565,65.906
0.5435,65.515
0.52395,64.928
0.5044,64.537
0.48485,63.95
0.46628,63.559
0.44966,62.973
0.43597,62.386
0.42326,61.799
0.26979,76.467
0.29228,75.685
0.31672,75.293
0.34604,75.098
0.38514,74.902
0.42913,74.902
0.47605,74.902
0.52297,74.902
0.56696,74.902
0.60606,74.902
0.6393,74.902
0.66667,74.707
0.68817,74.511
0.70283,74.316
0.71163,73.924
0.71554,73.533
0.71652,73.142
0.71359,72.555
0.7087,71.969
0.6999,71.382
0.68817,70.795
0.67351,70.404
0.65591,69.818
0.63636,69.231
0.61486,68.644
0.59238,68.253
0.56891,67.666
0.54839,67.275
0.52884,66.688
0.50831,66.102
0.48778,65.711
0.46921,65.124
0.45161,64.537
0.43695,63.95
0.42326,63.559
0.41153,62.973
0.40176,62.582
0.39394,61.995
0.3871,61.408
0.38123,61.017
0.37732,60.43
0.37341,59.844
0.36852,59.452
0.36559,59.257
0.36168,59.061
0.35777,59.257
0.35484,60.039
0.35093,61.995
0.348,66.102
0.34409,72.751
0.34018,81.356
0.33627,91.134
0.33333,100.72
0.33138,109.32
0.32747,116.95
0.32454,123.21
0.32063,127.71
0.31672,130.64
0.31378,132.2
0.30987,132.59
0.30596,132.01
0.30303,130.64
0.29912,128.88
0.29521,126.53
0.29326,124.19
0.2913,121.45
0.28837,118.51
0.28543,115.19
0.2825,111.67
0.27859,107.76
0.27566,103.85
0.27273,99.544
0.26882,95.046
0.26588,90.939
0.26197,87.223
0.25806,84.094
0.25709,81.356
0.25709,79.205
0.26197,77.64
0.27175,76.467
0.28935,75.685
0.31476,75.098
0.348,74.902
0.38905,74.707
0.435,74.707
0.48192,74.707
0.52981,74.707
0.5738,74.707
0.6129,74.707
0.64223,74.707
0.66471,74.707
0.68524,74.511
0.70186,74.511
0.71359,74.12
0.72043,73.924
0.72336,73.533
0.72239,73.142
0.7175,72.555
0.7087,72.164
0.69697,71.578
0.68328,71.186
0.66569,70.6
0.64809,70.013
0.6305,69.622
0.60899,69.035
0.58651,68.644
0.56305,68.253
0.53959,67.666
0.51711,67.275
0.4956,66.688
0.47605,66.102
0.45846,65.711
0.44184,65.124
0.42815,64.733
0.4174,64.146
0.40958,63.755
0.40078,63.168
0.39394,62.777
0.3871,62.19
0.38221,61.604
0.37732,61.213
0.37243,60.821
0.36852,60.626
0.36461,60.43
0.36168,60.626
0.35875,61.604
0.35484,64.146
0.35288,68.644
0.35093,75.88
0.348,85.072
0.34409,95.046
0.34115,104.63
0.33724,113.23
0.33431,120.86
0.3304,127.12
0.32747,131.42
0.32356,134.35
0.32063,135.72
0.31769,136.11
0.31476,135.33
0.31378,133.96
0.31085,132.01
0.30792,129.66
0.30499,127.12
0.30205,124.58
0.29912,121.84
0.29619,118.71
0.29326,115.38
0.29032,111.86
0.28739,107.95
0.28446,103.85
0.28152,99.544
0.27957,95.437
0.27761,91.721
0.27566,88.396
0.2737,85.658
0.27566,83.507
0.28055,81.747
0.29326,80.378
0.31281,79.596
0.34115,79.009
0.3783,78.618
0.42033,78.422
0.46725,78.422
0.50929,78.422
0.54741,78.422
0.58847,78.422
0.62659,78.422
0.6608,78.422
0.68915,78.227
0.71261,78.031
0.72923,77.836
0.74096,77.445
0.74682,76.858
0.74976,76.467
0.7478,75.88
0.74291,75.293
0.73509,74.707
0.72532,74.12
0.71261,73.533
0.69697,72.947
0.67937,72.36
0.65982,71.969
0.6393,71.382
0.61681,70.795
0.59335,70.404
0.57087,69.818
0.54936,69.426
0.52884,68.84
0.51124,68.253
0.49658,67.471
0.48289,66.884
0.46921,66.297
0.45748,65.711
0.44673,64.928
0.43891,64.537
0.43109,63.95
0.42522,63.364
0.41935,62.777
0.41447,62.19
0.41056,61.799
0.40665,61.604
0.40371,61.604
0.40078,61.995
0.39687,63.559
0.39296,66.884
0.38905,72.751
0.38514,81.16
0.38123,91.134
0.37634,101.3
0.37243,110.89
0.36852,119.49
0.36364,126.53
0.35973,132.01
0.35679,135.72
0.35386,138.07
0.34995,139.05
0.34702,138.85
0.34311,137.68
0.3392,136.11
0.33529,133.96
0.33138,131.81
0.32747,129.47
0.32356,126.92
0.31965,124.19
0.31574,121.06
0.31281,117.93
0.31085,114.21
0.30792,110.3
0.30401,106.19
0.3001,101.89
0.29619,97.393
0.29228,93.481
0.28837,89.765
0.28739,86.832
0.28935,84.289
0.29717,82.529
0.31281,80.965
0.33627,79.791
0.36266,79.205
0.39394,78.618
0.43304,78.422
0.47801,78.227
0.52395,78.227
0.56891,78.227
0.60997,78.227
0.64614,78.031
0.67644,78.031
0.6999,77.836
0.7175,77.445
0.72923,77.249
0.73607,76.662
0.73705,76.271
0.73705,75.685
0.73412,75.098
0.72727,74.511
0.71848,73.924
0.70577,73.338
0.6911,72.751
0.67449,72.164
0.65591,71.578
0.63539,70.991
0.6129,70.6
0.58944,70.013
0.56891,69.426
0.54936,69.035
0.52786,68.449
0.50635,67.862
0.4868,67.275
0.46823,66.688
0.45161,66.102
0.43597,65.515
0.42326,64.928
0.41251,64.342
0.40274,63.755
0.39492,63.364
0.38807,62.777
0.38319,62.386
0.3783,61.799
0.37341,61.408
0.36852,61.017
0.36461,61.017
0.35973,61.213
0.35582,62.386
0.35093,65.124
0.34702,70.209
0.34311,78.227
0.33822,88.005
0.33431,98.37
0.3304,108.34
0.32747,117.34
0.32356,124.97
0.31965,130.83
0.31574,134.94
0.31183,137.48
0.30792,138.85
0.30401,138.85
0.3001,137.87
0.29619,136.31
0.29228,134.35
0.28837,132.01
0.28641,129.66
0.28446,126.92
0.28152,123.99
0.27859,120.86
0.27566,117.54
0.27175,113.82
0.26882,109.91
0.26491,105.61
0.26197,101.11
0.25806,96.61
0.25415,92.503
0.25024,88.983
0.24927,85.854
0.25122,83.507
0.25611,81.552
0.26784,80.183
0.28739,79.009
0.31574,78.422
0.35288,77.836
0.39589,77.64
0.44379,77.445
0.49267,77.445
0.53959,77.445
0.58358,77.249
0.6217,77.249
0.65005,77.054
0.67155,76.858
0.69013,76.662
0.70479,76.467
0.71457,76.271
0.72043,75.88
0.72239,75.293
0.72043,74.902
0.71457,74.12
0.70674,73.533
0.69501,72.947
0.68133,72.36
0.66471,71.969
0.64809,71.382
0.6305,70.795
0.60997,70.209
0.58847,69.622
0.565,69.035
0.54057,68.644
0.51808,68.057
0.4956,67.471
0.47507,66.884
0.4565,66.297
0.43988,65.711
0.42522,65.319
0.41349,64.733
0.40371,64.146
0.39492,63.559
0.3871,62.973
0.38025,62.582
0.37439,61.995
0.36852,61.604
0.36364,61.213
0.35875,60.821
0.35484,60.626
0.35093,60.626
0.34702,61.213
0.34311,62.973
0.3392,66.688
0.33724,72.947
0.33333,81.552
0.32942,91.33
0.32551,101.11
0.3216,110.3
0.31769,118.32
0.31378,124.97
0.30987,130.05
0.30596,133.38
0.30205,135.33
0.29814,135.92
0.29619,135.53
0.29326,134.16
0.29032,132.2
0.28739,130.05
0.28446,127.71
0.28055,124.97
0.27664,122.23
0.2737,119.1
0.26979,115.58
0.26686,111.86
0.26393,107.95
0.26002,103.65
0.25709,99.348
0.25513,94.85
0.25318,90.743
0.25024,87.419
0.24829,84.485
0.24731,82.138
0.25024,80.183
0.25904,78.814
0.27468,77.836
0.29912,77.249
0.33138,76.662
0.37146,76.467
0.4174,76.467
0.45846,76.467
0.49756,76.271
0.53861,76.271
0.57869,76.271
0.61486,76.076
0.64516,75.88
0.6696,75.685
0.68817,75.489
0.70186,75.293
0.70968,74.902
0.71261,74.511
0.71163,73.924
0.70772,73.533
0.70088,72.947
0.6911,72.36
0.6784,71.773
0.66373,71.186
0.64712,70.6
0.62757,70.209
0.60606,69.622
0.58358,69.035
0.56012,68.644
0.53666,68.057
0.5132,67.471
0.49169,67.08
0.47312,66.493
0.45748,65.906
0.44184,65.319
0.42815,64.733
0.41544,64.342
0.40371,63.755
0.39394,63.364
0.38612,62.777
0.3783,62.19
0.37243,61.604
0.36657,61.213
0.36168,60.821
0.35875,60.43
0.35582,60.235
0.35288,60.235
0.34897,60.821
0.34604,62.582
0.34213,66.102
0.33822,72.164
0.33529,80.574
0.33138,90.352
0.32747,100.33
0.32356,109.52
0.31965,117.93
0.31574,124.77
0.31378,130.05
0.31085,133.57
0.30792,135.72
0.30401,136.51
0.30108,136.11
0.29717,134.94
0.29423,133.18
0.29032,131.03
0.28739,128.68
0.28348,126.14
0.28055,123.4
0.27664,120.27
0.27468,116.95
0.2737,113.23
0.27077,109.13
0.26784,104.82
0.26491,100.33
0.26197,96.024
0.25806,91.917
0.25415,88.201
0.25122,85.072
0.25122,82.529
0.25415,80.378
0.26295,79.009
0.27957,78.031
0.3001,77.249
0.32551,76.662
0.3607,76.467
0.40371,76.271
0.45064,76.271
0.49853,76.271
0.54545,76.271
0.58749,76.271
0.62561,76.271
0.65689,76.076
0.68133,75.88
0.70088,75.685
0.71261,75.489
0.71848,75.098
0.72239,74.707
0.72239,74.12
0.71945,73.533
0.71359,73.142
0.70381,72.555
0.69208,71.969
0.67644,71.382
0.65885,70.795
0.6393,70.209
0.61681,69.818
0.59433,69.231
0.57283,68.84
0.5523,68.253
0.52981,67.666
0.50831,67.08
0.4868,66.688
0.46725,66.102
0.44966,65.515
0.43402,64.928
0.42033,64.537
0.40762,63.95
0.39785,63.364
0.39198,62.973
0.38905,62.386
0.38612,61.799
0.38221,61.213
0.37732,60.821
0.37341,60.43
0.36852,60.039
0.36461,60.039
0.3607,60.821
0.35679,62.386
0.35288,65.906
0.34897,71.969
0.34506,80.183
0.34115,90.157
0.33822,99.935
0.33529,109.32
0.33138,117.73
0.32845,124.77
0.32454,130.25
0.32063,133.96
0.31672,136.31
0.31281,137.29
0.3089,137.09
0.30499,136.11
0.30108,134.35
0.29717,132.4
0.29521,130.05
0.29228,127.71
0.29032,124.97
0.28641,122.03
0.28348,118.71
0.27957,115.19
0.27664,111.47
0.27273,107.17
0.26979,102.87
0.26588,98.37
0.26197,94.263
0.25806,90.352
0.25513,87.223
0.25513,84.485
0.25709,82.334
0.26393,80.574
0.27761,79.4
0.3001,78.618
0.3304,78.031
0.37048,77.64
0.41544,77.445
0.4653,77.445
0.51613,77.445
0.565,77.445
0.60997,77.445
0.64418,77.445
0.67155,77.445
0.69599,77.249
0.71652,77.054
0.73216,76.858
0.74291,76.662
0.74878,76.271
0.75073,75.685
0.7478,75.293
0.74194,74.707
0.73314,74.12
0.72043,73.533
0.70577,73.142
0.69013,72.555
0.67253,71.969
0.652,71.578
0.6305,70.991
0.60606,70.6
0.58162,70.013
0.55718,69.426
0.53372,69.035
0.51124,68.449
0.49071,67.862
0.47214,67.471
0.45552,66.884
0.44184,66.297
0.43206,65.906
0.42131,65.319
0.41251,64.733
0.40469,64.342
0.39785,63.755
0.39198,63.364
0.3871,62.777
0.38221,62.386
0.3783,62.19
0.37439,62.386
0.37146,62.973
0.36755,64.733
0.36461,68.449
0.36266,75.098
0.35973,83.898
0.35679,94.068
0.35288,104.24
0.34995,113.82
0.34604,122.43
0.34311,129.47
0.3392,134.75
0.33627,138.27
0.33333,140.22
0.3304,140.81
0.32747,140.42
0.32649,139.24
0.32356,137.68
0.32063,135.72
0.31769,133.38
0.31476,131.23
0.31183,128.68
0.3089,125.75
0.30596,122.82
0.30303,119.49
0.30108,115.97
0.29814,112.06
0.29423,107.95
0.29228,103.46
0.29032,99.153
0.28837,95.046
0.28641,91.525
0.28543,88.592
0.28837,86.05
0.29717,84.289
0.31378,82.725
0.33822,81.747
0.37243,81.16
0.41349,80.574
0.46139,80.378
0.5044,80.183
0.54448,80.183
0.58847,79.987
0.63148,79.987
0.6696,79.791
0.70186,79.596
0.72825,79.4
0.7478,79.009
0.76246,78.422
0.77126,78.031
0.77615,77.445
0.77615,76.662
0.77322,76.076
0.76735,75.489
0.75855,74.902
0.7478,74.316
0.73412,73.533
0.71848,73.142
0.6999,72.555
0.67937,71.969
0.65689,71.382
0.63343,70.795
0.60899,70.404
0.58553,69.818
0.56207,69.231
0.54154,68.644
0.52395,68.057
0.50538,67.471
0.48876,66.688
0.47312,66.102
0.46041,65.711
0.44868,65.124
0.43891,64.537
0.43011,63.95
0.42229,63.559
0.41642,62.973
0.41056,62.386
0.40567,61.995
0.40176,61.604
0.39687,61.408
0.39296,61.799
0.38807,63.364
0.38319,66.688
0.3783,72.947
0.37341,81.552
0.36852,91.917
0.36461,102.48
0.35973,112.26
0.35484,121.06
0.34995,128.29
0.34604,133.96
0.34213,137.68
0.33822,139.83
0.33431,140.81
0.32942,140.61
0.32454,139.44
0.32063,137.87
0.31574,135.92
0.31085,133.57
0.30694,131.23
0.30205,128.68
0.29814,125.75
0.29423,122.82
0.29228,119.49
0.28837,115.78
0.28446,111.86
0.28055,107.76
0.27664,103.26
0.27273,98.761
0.26784,94.459
0.26393,90.743
0.26197,87.419
0.26295,84.876
0.27077,82.725
0.28543,81.16
0.30499,79.791
0.3304,79.009
0.36559,78.422
0.40958,78.031
0.45748,77.836
0.50831,77.836
0.55718,77.836
0.60215,77.64
0.64125,77.64
0.67449,77.445
0.6999,77.249
0.72043,77.054
0.73216,76.662
0.73803,76.467
0.74194,75.88
0.74291,75.293
0.74096,74.707
0.73607,74.12
0.72825,73.533
0.71652,72.947
0.70381,72.36
0.68719,71.773
0.66862,71.186
0.64809,70.6
0.62561,70.013
0.60411,69.426
0.58358,69.035
0.56109,68.449
0.53763,67.862
0.51417,67.471
0.49267,66.884
0.47214,66.297
0.45357,65.711
0.43695,65.124
0.42326,64.537
0.41056,64.146
0.3998,63.559
0.39198,62.973
0.38514,62.582
0.37928,61.995
0.37341,61.604
0.36852,61.017
0.36364,60.626
0.35875,60.235
0.35386,60.235
0.34995,60.626
0.34604,61.799
0.34213,64.733
0.33724,70.209
0.33333,78.227
0.3304,88.201
0.32747,98.566
0.32356,108.34
0.31965,117.14
0.31574,124.58
0.30987,130.44
0.30401,134.55
0.29912,136.9
0.29521,138.07
0.2913,138.07
0.28739,137.09
0.28446,135.33
0.28152,133.38
0.27957,131.03
0.27664,128.29
0.2737,125.55
0.27077,122.62
0.26784,119.49
0.26393,115.97
0.261,112.06
0.25806,107.95
0.25513,103.65
0.2522,99.153
0.24927,94.85
0.24536,90.743
0.2434,87.223
0.24242,84.289
0.2434,81.747
0.24829,79.791
0.25904,78.422
0.27761,77.445
0.30499,76.858
0.34115,76.467
0.38416,76.076
0.43011,76.076
0.47898,75.88
0.5259,75.88
0.56403,75.88
0.59629,75.88
0.62659,75.685
0.65298,75.685
0.67449,75.489
0.69013,75.098
0.70088,74.902
0.70674,74.511
0.7087,73.924
0.70674,73.338
0.70186,72.751
0.69306,72.164
0.68231,71.578
0.6696,70.991
0.65591,70.404
0.6393,69.818
0.61975,69.426
0.59922,68.84
0.57674,68.253
0.55327,67.862
0.52884,67.275
0.50635,66.688
0.48387,66.297
0.46334,65.711
0.44477,65.124
0.43011,64.537
0.4174,64.146
0.40567,63.559
0.39394,62.973
0.38416,62.386
0.37634,61.799
0.36852,61.408
0.36266,60.821
0.35777,60.43
0.35288,59.844
0.348,59.452
0.34409,59.257
0.34115,59.257
0.33822,59.648
0.33529,60.821
0.33236,63.364
0.32942,68.449
0.32649,75.88
0.32258,85.267
0.31867,95.046
0.31476,104.24
0.31085,112.65
0.30694,119.88
0.30303,125.75
0.3001,129.86
0.29717,132.4
0.29521,133.57
0.29228,133.57
0.28935,132.59
0.28641,130.83
0.28348,128.68
0.27957,126.34
0.27664,123.79
0.2737,121.06
0.26979,117.93
0.26686,114.6
0.26393,110.89
0.261,106.98
0.25904,102.67
0.25709,98.37
0.25513,93.872
0.2522,89.765
0.24927,86.245
0.24536,83.116
0.2434,80.769
0.24438,78.814
0.24927,77.249
0.26002,76.076
0.27859,75.293
0.30596,74.902
0.33529,74.511
0.36852,74.511
0.40958,74.316
0.45552,74.316
0.50147,74.316
0.54545,74.316
0.58456,74.316
0.61877,74.12
0.64712,73.924
0.66862,73.924
0.68524,73.533
0.69599,73.338
0.6999,72.947
0.70088,72.36
0.69892,71.969
0.69404,71.382
0.68622,70.795
0.67546,70.209
0.66178,69.622
0.64516,69.035
0.62659,68.449
0.60606,68.057
0.58456,67.471
0.56109,67.08
0.53861,66.493
0.51808,66.102
0.49951,65.515
0.47996,65.124
0.46041,64.537
0.44379,63.95
0.42815,63.364
0.41349,62.973
0.40176,62.386
0.39198,61.799
0.38319,61.408
0.37537,60.821
0.36852,60.43
0.36461,59.844
0.3607,59.452
0.35679,58.866
0.35288,58.475
0.34995,58.279
0.34604,58.279
0.34311,58.67
0.3392,60.039
0.33627,63.168
0.33236,68.84
0.32942,76.858
0.32551,86.441
0.3216,96.415
0.31965,105.61
0.31672,113.82
0.31378,120.86
0.31085,126.34
0.30694,130.05
0.30401,132.4
0.3001,133.38
0.29717,133.38
0.29423,132.2
0.29032,130.44
0.28739,128.49
0.28446,125.95
0.2825,123.4
0.28055,120.67
0.27761,117.54
0.27468,114.21
0.27175,110.5
0.26882,106.58
0.26588,102.48
0.26295,97.979
0.25904,93.677
0.25611,89.57
0.2522,86.05
0.24927,82.921
0.24829,80.378
0.24927,78.422
0.25415,76.858
0.26393,75.88
0.28152,75.098
0.30792,74.511
0.34213,74.316
0.38416,74.316
0.43011,74.12
0.47801,74.316
0.5259,74.316
0.56989,74.316
0.60899,74.316
0.63832,74.316
0.6608,74.316
0.68035,74.12
0.69599,73.924
0.70674,73.729
0.71359,73.338
0.71554,72.947
0.71359,72.36
0.7087,71.969
0.6999,71.382
0.68817,70.795
0.67351,70.209
0.65689,69.622
0.6393,69.231
0.6217,68.644
0.6002,68.253
0.57771,67.666
0.55523,67.275
0.53177,66.688
0.50929,66.297
0.48778,65.711
0.46725,65.319
0.44966,64.733
0.43402,64.342
0.41935,63.755
0.4086,63.364
0.40078,62.973
0.39198,62.386
0.38514,61.995
0.3783,61.408
0.37341,61.017
0.36852,60.626
0.36461,60.039
0.3607,59.844
0.35679,59.648
0.35386,59.844
0.34995,60.626
0.34702,62.777
0.34506,67.08
0.34213,73.729
0.34018,82.529
0.33627,92.308
0.33333,101.89
0.32942,110.69
0.32649,118.51
0.32258,124.97
0.31965,129.66
0.31574,132.79
0.31281,134.35
0.30987,134.75
0.30792,134.16
0.30596,132.79
0.30303,131.03
0.30108,128.68
0.29814,126.34
0.29521,123.79
0.29228,121.06
0.28935,118.12
0.28641,114.8
0.28446,111.08
0.28152,107.17
0.27957,103.26
0.27957,98.957
0.28152,94.85
0.2825,90.939
0.28152,87.419
0.27957,84.485
0.27957,82.138
0.2825,80.378
0.29032,79.009
0.30596,78.031
0.3304,77.445
0.36364,77.054
0.40371,76.858
0.45064,76.858
0.49267,76.858
0.53275,76.858
0.57674,76.858
0.61975,76.858
0.65787,76.858
0.69013,76.858
0.71652,76.662
0.73705,76.271
0.75171,75.88
0.76051,75.489
0.7654,75.098
0.7654,74.511
0.76149,73.924
0.75562,73.338
0.74682,72.751
0.73509,72.164
0.72043,71.578
0.70381,71.186
0.68426,70.6
0.66373,70.013
0.64125,69.622
0.61779,69.035
0.59433,68.449
0.57087,67.862
0.54839,67.471
0.52981,66.884
0.51417,66.297
0.49756,65.711
0.48289,64.928
0.46921,64.342
0.45846,63.755
0.44868,63.168
0.43988,62.582
0.43304,62.19
0.42717,61.604
0.42229,61.017
0.4174,60.626
0.41349,60.235
0.40958,60.039
0.40665,60.039
0.40371,60.626
0.3998,62.19
0.39687,65.906
0.39296,72.164
0.38905,80.965
0.38416,90.939
0.38025,101.11
0.37634,110.3
0.37243,118.51
0.36852,125.55
0.36461,130.83
0.36266,134.35
0.35875,136.31
0.35484,136.9
0.35191,136.51
0.348,135.33
0.34409,133.57
0.34018,131.42
0.33627,129.27
0.33236,126.73
0.32845,123.99
0.32454,121.25
0.32063,118.12
0.31769,114.8
0.31476,111.08
0.31183,107.17
0.3089,102.87
0.30499,98.566
0.30108,94.263
0.29619,90.352
0.29326,86.832
0.29032,84.094
0.29228,81.552
0.29814,79.791
0.31183,78.227
0.3304,77.249
0.35386,76.662
0.3871,76.271
0.42913,76.076
0.47605,75.88
0.52493,75.88
0.57283,75.88
0.61681,75.88
0.65591,75.685
0.68817,75.685
0.71359,75.489
0.73314,75.293
0.74487,75.098
0.75073,74.707
0.75464,74.316
0.75562,73.729
0.75269,73.142
0.74682,72.555
0.73803,71.969
0.72727,71.186
0.71359,70.6
0.69697,70.013
0.6784,69.426
0.65689,69.035
0.63441,68.449
0.61388,67.862
0.59335,67.471
0.57087,66.884
0.54741,66.297
0.52493,65.906
0.50342,65.319
0.48289,64.733
0.4653,64.146
0.44966,63.559
0.43597,62.973
0.42326,62.386
0.41349,61.799
0.40567,61.408
0.3998,60.821
0.39394,60.235
0.38807,59.844
0.38319,59.452
0.37928,59.061
0.37439,58.67
0.37048,58.67
0.36657,59.061
0.36266,60.626
0.35777,63.95
0.35386,69.818
0.34995,78.227
0.34604,88.005
0.34311,97.979
0.34018,107.37
0.33529,115.58
0.33138,122.43
0.32747,127.71
0.32258,131.42
0.31867,133.38
0.31476,134.35
0.31085,133.96
0.30792,132.79
0.30401,131.03
0.30108,128.88
0.29912,126.53
0.29619,123.99
0.29326,121.06
0.29032,118.12
0.28641,114.8
0.28348,111.08
0.27957,107.17
0.27664,102.87
0.2737,98.566
0.26979,94.263
0.26588,90.157
0.26197,86.441
0.26002,83.312
0.25904,80.769
0.25904,78.618
0.26393,77.054
0.27468,76.076
0.29326,75.098
0.3216,74.707
0.35777,74.316
0.40176,74.12
0.45064,74.12
0.50049,74.12
0.54839,74.12
0.58847,74.12
0.6217,73.924
0.65298,73.924
0.68035,73.729
0.70283,73.533
0.71945,73.338
0.73021,72.947
0.73607,72.555
0.73803,71.969
0.73607,71.578
0.73021,70.991
0.72141,70.404
0.70968,69.818
0.69599,69.231
0.68133,68.644
0.66373,68.057
0.64321,67.666
0.62072,67.08
0.59726,66.493
0.57283,66.102
0.54839,65.515
0.52493,65.124
0.50244,64.537
0.48094,64.146
0.46237,63.559
0.4477,62.973
0.435,62.386
0.42326,61.799
0.41251,61.408
0.40274,60.821
0.39492,60.235
0.38807,59.844
0.38221,59.257
0.37634,58.866
0.37146,58.279
0.36755,57.888
0.36364,57.692
0.35973,57.692
0.35679,57.888
0.35386,59.061
0.35093,61.799
0.34702,66.688
0.34409,74.12
0.34018,83.116
0.33627,92.699
0.33138,101.69
0.32747,109.91
0.32356,116.95
0.31965,122.62
0.31574,126.53
0.31281,129.07
0.31085,130.05
0.30792,130.05
0.30499,129.07
0.30205,127.31
0.29814,125.16
0.29423,122.82
0.2913,120.08
0.28739,117.34
0.28446,114.21
0.28055,110.69
0.27761,106.98
0.27468,102.87
0.27175,98.761
0.27077,94.459
0.26784,90.352
0.26491,86.441
0.26197,83.312
0.25806,80.574
0.25611,78.227
0.25513,76.467
0.25904,75.098
0.26979,74.12
0.28739,73.533
0.31378,72.947
0.34311,72.751
0.37634,72.555
0.41838,72.555
0.4653,72.555
0.5132,72.555
0.55914,72.555
0.59726,72.555
0.62757,72.555
0.65494,72.36
0.67644,72.164
0.69306,72.164
0.70479,71.773
0.71065,71.382
0.71261,70.991
0.70968,70.404
0.70479,70.013
0.69697,69.426
0.68622,68.84
0.67253,68.253
0.65689,67.666
0.63832,67.08
0.61681,66.688
0.59531,66.102
0.57185,65.515
0.54839,65.124
0.52786,64.733
0.50929,64.146
0.48974,63.755
0.47116,63.168
0.45357,62.582
0.43793,62.19
0.42424,61.604
0.41251,61.017
0.40176,60.626
0.39296,60.039
0.38612,59.648
0.37928,59.061
0.37439,58.67
0.37048,58.279
0.36657,57.692
0.36364,57.497
0.3607,57.106
0.35777,57.106
0.35386,57.497
0.35093,58.866
0.348,61.799
0.34506,67.08
0.34115,74.707
0.33822,83.703
0.33431,93.286
0.33138,102.09
0.32845,109.91
0.32551,116.56
0.32258,122.03
0.31867,125.75
0.31574,128.1
0.31183,129.07
0.3089,129.07
0.30499,127.9
0.30205,126.14
0.29912,123.99
0.29619,121.64
0.29326,118.9
0.2913,115.97
0.28935,112.84
0.28641,109.32
0.28348,105.61
0.28055,101.5
0.27761,97.393
0.27468,93.09
0.27175,88.983
0.26784,85.463
0.26491,82.334
0.261,79.791
0.25904,77.445
0.26002,75.88
0.26393,74.511
0.27175,73.729
0.28739,73.142
0.31085,72.751
0.34311,72.555
0.38221,72.36
0.4262,72.36
0.4741,72.36
0.52102,72.36
0.565,72.36
0.60508,72.36
0.63636,72.36
0.65885,72.164
0.68035,72.164
0.69697,71.773
0.7087,71.578
0.71652,70.991
0.71945,70.6
0.7175,70.209
0.71261,69.622
0.70479,69.035
0.69306,68.449
0.6784,67.862
0.6608,67.471
0.64418,66.884
0.62561,66.297
0.60508,65.906
0.5826,65.515
0.56012,64.928
0.53666,64.537
0.51515,64.146
0.49462,63.559
0.47507,62.973
0.45748,62.582
0.44282,61.995
0.42913,61.604
0.41935,61.017
0.41056,60.626
0.40274,60.039
0.39589,59.648
0.38905,59.061
0.38416,58.67
0.37928,58.083
0.37439,57.692
0.37048,57.301
0.36657,57.106
0.36364,57.301
0.35973,57.888
0.35679,59.648
0.35386,63.364
0.35191,69.426
0.34897,77.64
0.34506,87.027
0.34115,96.219
0.33724,104.82
0.33333,112.65
0.32942,119.1
0.32649,124.19
0.32258,127.71
0.31867,129.66
0.31574,130.44
0.31281,130.05
0.31085,128.88
0.30792,127.12
0.30499,124.77
0.30205,122.43
0.29912,119.88
0.29619,117.14
0.29228,114.02
0.28935,110.5
0.28641,106.98
0.28348,102.87
0.27957,98.761
0.27664,94.459
0.27468,90.352
0.27273,86.636
0.26979,83.312
0.26686,80.574
0.26491,78.227
0.26588,76.467
0.27077,75.098
0.28152,74.316
0.30108,73.533
0.32942,73.338
0.36461,73.142
0.40762,72.947
0.4477,72.947
0.4868,72.947
0.52981,72.947
0.57283,72.947
0.6129,72.947
0.64712,72.947
0.67644,72.751
0.69892,72.555
0.71554,72.36
0.72727,71.969
0.73314,71.578
0.73509,71.186
0.73216,70.6
0.72727,70.209
0.71848,69.622
0.70772,69.035
0.69404,68.449
0.67742,67.862
0.65787,67.471
0.63734,66.884
0.61486,66.297
0.5914,65.906
0.56794,65.319
0.54448,64.733
0.52199,64.342
0.50244,63.755
0.48583,63.168
0.46921,62.777
0.45455,62.19
0.44086,61.604
0.42913,61.213
0.41838,60.626
0.40958,60.235
0.40176,59.648
0.39589,59.257
0.39003,58.67
0.38514,58.279
0.38025,57.888
0.37732,57.497
0.37439,57.301
0.37146,57.692
0.36755,58.67
0.36461,61.017
0.3607,65.711
0.35777,72.947
0.35386,81.943
0.34995,91.525
0.34604,100.91
0.34213,109.32
0.33822,116.56
0.33529,122.62
0.33236,127.12
0.32942,129.86
0.32551,131.23
0.3216,131.62
0.31769,130.83
0.31476,129.47
0.31085,127.51
0.30694,125.36
0.30401,123.01
0.3001,120.47
0.29619,117.73
0.29326,114.6
0.29032,111.28
0.28935,107.56
0.28641,103.65
0.28348,99.544
0.28055,95.241
0.27664,91.134
0.2737,87.419
0.26979,84.094
0.26686,81.356
0.26588,79.205
0.26882,77.445
0.27761,76.271
0.29032,75.489
0.3089,74.902
0.33627,74.511
0.37341,74.316
0.41642,74.316
0.46432,74.316
0.51222,74.12
0.55914,74.12
0.60215,74.12
0.64027,74.12
0.67253,74.12
0.69795,73.924
0.71652,73.729
0.72825,73.533
0.73509,73.142
0.739,72.751
0.73998,72.36
0.73705,71.969
0.73118,71.382
0.72239,70.795
0.71065,70.404
0.69599,69.818
0.67937,69.231
0.65982,68.644
0.63832,68.253
0.61877,67.666
0.59922,67.275
0.57771,66.884
0.55425,66.297
0.53177,65.906
0.51026,65.319
0.49071,64.928
0.47312,64.342
0.4565,63.755
0.44282,63.168
0.43109,62.777
0.42033,62.19
0.41153,61.799
0.40469,61.408
0.3998,60.821
0.39492,60.43
0.39003,59.844
0.38612,59.648
0.38221,59.452
0.3783,59.452
0.37537,60.235
0.37146,62.19
0.36852,66.102
0.36559,72.751
0.36168,81.552
0.35973,91.525
0.35679,101.11
0.35386,110.1
0.35093,117.93
0.34702,124.38
0.34409,129.27
0.34018,132.59
0.33724,134.35
0.33431,134.75
0.3304,134.35
0.32747,133.18
0.32454,131.42
0.3216,129.27
0.31965,127.12
0.31672,124.58
0.31476,122.03
0.31183,119.1
0.3089,115.97
0.30596,112.45
0.30303,108.74
0.3001,104.82
0.29814,100.72
0.29521,96.61
0.2913,92.503
0.28837,88.983
0.28641,85.854
0.28543,83.507
0.28739,81.356
0.29228,79.987
0.30499,78.814
0.32454,78.031
0.35288,77.445
0.39003,77.054
0.43402,77.054
0.48192,76.858
0.53177,76.858
0.57967,76.662
0.61877,76.662
0.65103,76.662
0.68133,76.271
0.7087,76.076
0.73118,75.685
0.7478,75.293
0.75855,74.707
0.7654,74.316
0.76833,73.729
0.76637,73.142
0.76149,72.555
0.75367,71.969
0.74194,71.382
0.72923,70.795
0.71554,70.404
0.69795,69.818
0.6784,69.231
0.65689,68.84
0.63441,68.253
0.61095,67.666
0.58749,67.08
0.56403,66.688
0.54252,66.102
0.52199,65.515
0.50342,64.928
0.48778,64.342
0.47507,63.755
0.46334,63.168
0.45259,62.582
0.44282,61.995
0.43402,61.408
0.42717,61.017
0.42033,60.43
0.41447,60.039
0.40958,59.648
0.40469,59.257
0.3998,59.257
0.39492,59.452
0.39198,60.821
0.38807,63.559
0.38416,69.035
0.37928,76.662
0.37537,86.245
0.37048,96.415
0.36559,105.8
0.3607,114.41
0.35582,121.64
0.35093,127.31
0.34604,131.23
0.34213,133.57
0.33822,134.55
0.33529,134.35
0.33138,133.18
0.32747,131.62
0.32356,129.66
0.31867,127.31
0.31476,124.97
0.30987,122.43
0.30596,119.49
0.30108,116.56
0.29717,113.23
0.29228,109.52
0.28837,105.61
0.28543,101.5
0.28348,97.197
0.27957,93.09
0.27566,89.179
0.27175,85.854
0.26784,82.921
0.26686,80.574
0.26882,78.814
0.27761,77.445
0.29326,76.467
0.31867,75.88
0.35191,75.293
0.3871,75.098
0.42424,75.098
0.46823,74.902
0.51613,74.902
0.56207,74.902
0.60411,74.902
0.64125,74.902
0.67253,74.707
0.69697,74.511
0.71457,74.12
0.72727,73.924
0.73412,73.533
0.73705,72.947
0.73607,72.555
0.73118,71.969
0.72434,71.382
0.71457,70.6
0.70283,70.013
0.68817,69.426
0.67058,69.035
0.65103,68.449
0.62952,67.862
0.60704,67.471
0.5826,66.884
0.55914,66.297
0.53763,65.906
0.51808,65.319
0.49853,64.733
0.47898,64.342
0.46041,63.755
0.44379,63.168
0.43011,62.777
0.4174,62.19
0.40665,61.604
0.39687,61.017
0.38905,60.626
0.38319,60.039
0.37732,59.648
0.37341,59.061
0.3695,58.67
0.36559,58.475
0.36266,58.475
0.35875,58.67
0.35484,59.844
0.35093,62.386
0.34702,67.471
0.34311,74.707
0.3392,83.898
0.33529,93.481
0.3304,102.67
0.32747,111.08
0.32454,118.12
0.32063,123.79
0.31672,127.71
0.31281,130.25
0.3089,131.42
0.30499,131.42
0.30205,130.44
0.29814,128.68
0.29423,126.53
0.29032,123.99
0.28641,121.45
0.2825,118.51
0.28055,115.58
0.27761,112.26
0.27468,108.54
0.27175,104.63
0.26882,100.52
0.26588,96.219
0.26197,91.917
0.25904,88.005
0.25513,84.681
0.25122,81.943
0.24927,79.596
0.24829,77.64
0.25024,76.271
0.25709,75.293
0.26979,74.511
0.2913,74.12
0.32063,73.729
0.35875,73.729
0.40274,73.729
0.45064,73.729
0.49951,73.533
0.54643,73.533
0.58944,73.533
0.62659,73.533
0.65689,73.533
0.67937,73.338
0.69404,72.947
0.70577,72.555
0.71359,72.164
0.7175,71.773
0.7175,71.186
0.71359,70.6
0.70674,70.209
0.69599,69.622
0.68231,69.035
0.66569,68.449
0.64712,67.862
0.62854,67.471
0.60997,66.884
0.58847,66.493
0.56598,65.906
0.54252,65.515
0.51906,64.928
0.49756,64.537
0.47703,63.95
0.45846,63.364
0.44184,62.973
0.42717,62.386
0.41447,61.799
0.40469,61.408
0.39785,60.821
0.39003,60.235
0.38416,59.844
0.3783,59.257
0.37243,58.866
0.36755,58.475
0.36364,58.083
0.35875,57.888
0.35484,57.888
0.35093,58.279
0.348,59.452
0.34409,61.995
0.34115,66.884
0.3392,74.12
0.33627,82.725
0.33236,91.917
0.32845,100.52
0.32551,108.34
0.3216,114.99
0.31769,120.47
0.31476,124.38
0.31085,126.73
0.30694,127.71
0.30401,127.51
0.30108,126.53
0.29912,124.77
0.29619,122.62
0.29326,120.08
0.29032,117.34
0.28739,114.41
0.28348,111.08
0.28055,107.56
0.27761,103.65
0.27468,99.544
0.27077,95.241
0.26784,91.134
0.26491,87.223
0.26295,83.703
0.261,80.769
0.25904,78.422
0.25709,76.467
0.25611,75.098
0.25806,73.924
0.26491,73.338
0.27761,72.751
0.29912,72.555
0.32845,72.36
0.36461,72.36
0.40567,72.36
0.44379,72.36
0.47996,72.36
0.52004,72.36
0.55816,72.36
0.59335,72.36
0.62366,72.164
0.64712,71.969
0.66569,71.773
0.67937,71.382
0.68719,70.991
0.69013,70.6
0.68915,70.013
0.68426,69.426
0.67742,69.035
0.66764,68.449
0.65494,67.862
0.6393,67.471
0.62072,66.884
0.60117,66.297
0.57967,65.906
0.55718,65.515
0.5347,64.928
0.5132,64.537
0.49267,64.146
0.47312,63.559
0.4565,62.973
0.44379,62.582
0.43011,61.995
0.41838,61.604
0.40762,61.017
0.39883,60.626
0.39003,60.039
0.38319,59.648
0.3783,59.061
0.37341,58.67
0.36852,58.279
0.36461,57.888
0.3607,57.497
0.35875,57.301
0.35679,57.497
0.35386,58.279
0.35093,60.235
0.348,64.146
0.34506,70.6
0.34213,78.814
0.33822,88.005
0.33529,97.197
0.33138,105.41
0.32747,112.84
0.32454,119.1
0.3216,123.79
0.31965,126.92
0.31672,128.68
0.31378,129.07
0.31085,128.68
0.30694,127.31
0.30401,125.36
0.3001,123.21
0.29717,120.67
0.29423,117.93
0.2913,114.8
0.28739,111.67
0.28446,107.95
0.2825,104.24
0.28055,100.13
0.27859,95.828
0.27566,91.721
0.27273,87.614
0.26979,84.289
0.26588,81.16
0.26295,78.814
0.26197,76.858
0.26197,75.489
0.26784,74.511
0.27957,73.729
0.29423,73.338
0.31574,72.947
0.34506,72.947
0.38319,72.751
0.4262,72.947
0.47116,72.947
0.51711,72.947
0.56012,72.947
0.59824,72.947
0.63148,72.751
0.65885,72.751
0.68035,72.555
0.69599,72.164
0.70479,71.969
0.7087,71.382
0.71065,70.991
0.7087,70.404
0.70381,69.818
0.69501,69.231
0.68426,68.84
0.67058,68.253
0.65396,67.666
0.63441,67.275
0.61388,66.688
0.5914,66.102
0.57087,65.711
0.55132,65.319
0.53079,64.733
0.51026,64.342
0.49071,63.755
0.47214,63.168
0.45552,62.777
0.44086,62.19
0.42815,61.604
0.41642,61.213
0.40762,60.821
0.39883,60.235
0.39198,59.844
0.3871,59.257
0.38319,58.67
0.37928,58.279
0.37537,58.083
0.37146,57.888
0.36755,57.888
0.36461,58.475
0.36168,60.039
0.35777,63.168
0.35484,68.84
0.35093,76.662
0.34702,85.854
0.34409,95.241
0.34213,104.04
0.33822,111.86
0.33431,118.51
0.3304,123.79
0.32649,127.51
0.32356,129.66
0.31965,130.44
0.31574,130.25
0.31281,129.07
0.3089,127.51
0.30596,125.36
0.30205,123.01
0.29912,120.47
0.29717,117.54
0.29521,114.6
0.2913,111.08
0.28837,107.56
0.28543,103.65
0.28152,99.544
0.27859,95.046
0.27566,90.939
0.27175,87.027
0.26882,83.703
0.26588,81.16
0.26393,79.009
0.26393,77.249
0.26686,76.076
0.27468,75.293
0.28837,74.707
0.31085,74.511
0.34115,74.316
0.3783,74.316
0.42131,74.316
0.46725,74.511
0.5132,74.511
0.55718,74.511
0.59726,74.707
0.62854,74.511
0.652,74.511
0.67351,74.316
0.6911,74.12
0.70479,73.924
0.71359,73.533
0.7175,73.142
0.71848,72.555
0.71457,71.969
0.70772,71.578
0.69795,70.991
0.68426,70.404
0.67058,70.013
0.65494,69.426
0.63636,69.035
0.61584,68.449
0.59433,67.862
0.57087,67.471
0.54839,67.08
0.5259,66.493
0.50538,66.102
0.48583,65.515
0.46823,64.928
0.45259,64.537
0.44086,64.146
0.43109,63.559
0.42131,62.973
0.41349,62.582
0.40665,61.995
0.40078,61.604
0.39492,61.213
0.39101,60.821
0.3871,60.43
0.38319,60.235
0.38025,60.235
0.37732,60.821
0.37439,62.386
0.37146,65.906
0.3695,71.969
0.36755,80.183
0.36461,89.765
0.3607,99.348
0.35777,108.54
0.35484,116.56
0.35191,123.4
0.348,128.68
0.34506,132.4
0.34213,134.55
0.33822,135.33
0.33627,134.94
0.33529,133.77
0.33333,132.01
0.3304,130.05
0.32747,127.9
0.32454,125.55
0.3216,123.01
0.31867,120.27
0.31574,117.34
0.31281,113.82
0.30987,110.3
0.30694,106.39
0.30401,102.28
0.30205,97.979
0.30108,94.068
0.29814,90.352
0.29521,87.223
0.29228,84.681
0.29228,82.529
0.29619,80.965
0.30596,79.791
0.32356,79.009
0.34897,78.618
0.38416,78.227
0.42522,78.227
0.46628,78.227
0.50538,78.227
0.55034,78.227
0.59629,78.227
0.6393,78.227
0.67742,78.031
0.70968,77.836
0.73509,77.445
0.75464,76.858
0.76931,76.467
0.7781,75.88
0.78201,75.293
0.78201,74.707
0.77908,73.924
0.77224,73.338
0.76246,72.751
0.75073,72.164
0.73705,71.578
0.72043,70.991
0.70088,70.6
0.67937,70.013
0.65689,69.622
0.63343,69.035
0.60899,68.644
0.58553,68.057
0.565,67.471
0.54741,66.884
0.52884,66.297
0.51222,65.711
0.49658,65.124
0.48289,64.537
0.47116,63.95
0.46041,63.364
0.45161,62.777
0.44379,62.386
0.43695,61.799
0.43109,61.213
0.4262,60.821
0.42131,60.43
0.41838,60.43
0.41349,60.821
0.40958,62.386
0.40469,65.906
0.3998,71.773
0.39492,79.987
0.39003,89.765
0.38514,99.739
0.38025,109.32
0.37537,117.73
0.37048,124.97
0.36657,130.25
0.36364,133.96
0.35973,135.92
0.35484,136.7
0.35093,136.31
0.34604,135.14
0.34213,133.38
0.33724,131.42
0.33236,129.27
0.32845,126.92
0.32356,124.19
0.31867,121.45
0.31378,118.32
0.31085,114.99
0.30792,111.47
0.30401,107.37
0.3001,103.26
0.29521,98.957
0.2913,94.655
0.28641,90.743
0.28152,87.419
0.27761,84.681
0.27664,82.334
0.27859,80.574
0.28739,79.205
0.30108,78.227
0.31965,77.445
0.34897,77.054
0.3871,76.858
0.43206,76.662
0.47996,76.662
0.52981,76.662
0.57674,76.662
0.61975,76.467
0.65689,76.467
0.68817,76.271
0.71261,76.076
0.73021,75.685
0.74096,75.489
0.74682,75.098
0.74976,74.511
0.74976,73.924
0.74585,73.338
0.73998,72.751
0.73118,72.164
0.71848,71.578
0.70381,70.795
0.68719,70.404
0.66764,69.818
0.64516,69.231
0.62463,68.84
0.60508,68.253
0.58162,67.666
0.55816,67.275
0.53568,66.688
0.5132,66.102
0.49267,65.515
0.47312,64.928
0.4565,64.342
0.44184,63.755
0.42913,63.168
0.4174,62.777
0.4086,62.19
0.40176,61.604
0.39589,61.213
0.39003,60.626
0.38514,60.235
0.38025,59.844
0.37537,59.844
0.37146,59.844
0.36657,60.43
0.36266,62.19
0.35875,65.906
0.35484,72.164
0.34995,80.769
0.34702,90.352
0.34409,100.13
0.34018,109.13
0.33627,117.34
0.33236,123.99
0.32747,128.88
0.32356,132.2
0.31965,133.96
0.31574,134.55
0.31183,134.16
0.30792,132.79
0.30401,130.83
0.3001,128.68
0.29717,126.14
0.29521,123.4
0.2913,120.67
0.28837,117.54
0.28446,114.21
0.28055,110.5
0.27664,106.58
0.2737,102.48
0.26979,97.979
0.26588,93.677
0.26197,89.765
0.25806,86.441
0.25611,83.507
0.25513,81.16
0.25415,79.205
0.25709,77.836
0.26588,76.858
0.28152,76.271
0.30694,75.685
0.34018,75.489
0.38221,75.489
0.42913,75.293
0.47898,75.293
0.52884,75.293
0.57478,75.293
0.61193,75.293
0.64125,75.098
0.6696,75.098
0.69306,74.902
0.71065,74.511
0.72434,74.12
0.73216,73.533
0.73607,73.142
0.73509,72.555
0.73021,72.164
0.72239,71.578
0.71163,70.795
0.69892,70.209
0.68426,69.622
0.66667,69.035
0.64712,68.644
0.62463,68.253
0.60117,67.666
0.57674,67.275
0.5523,66.688
0.52884,66.102
0.50635,65.711
0.48485,65.124
0.46628,64.537
0.45064,64.146
0.43793,63.559
0.4262,62.973
0.41447,62.582
0.40469,61.995
0.39687,61.408
0.38905,61.017
0.38221,60.43
0.37732,60.039
0.37243,59.648
0.36755,59.257
0.36364,59.257
0.35973,59.452
0.35679,60.43
0.35484,62.777
0.35191,67.08
0.348,73.729
0.34409,82.138
0.34018,91.525
0.33627,100.52
0.33138,108.74
0.32747,116.17
0.32356,122.23
0.31965,126.53
0.31574,129.27
0.31281,130.64
0.31085,130.83
0.30694,130.05
0.30401,128.68
0.3001,126.53
0.29717,124.19
0.29326,121.64
0.28935,118.9
0.28641,115.78
0.2825,112.45
0.27957,108.74
0.27566,104.82
0.27273,100.72
0.27077,96.415
0.26882,92.112
0.26588,88.201
0.26295,84.876
0.26002,82.138
0.25611,79.987
0.25415,78.227
0.25415,76.662
0.25806,75.685
0.26784,75.098
0.28641,74.707
0.31281,74.511
0.34115,74.511
0.37341,74.511
0.41251,74.511
0.4565,74.511
0.50049,74.316
0.5435,74.316
0.58162,74.316
0.61388,74.316
0.64125,73.924
0.66276,73.729
0.67742,73.338
0.68817,72.947
0.69306,72.555
0.69404,72.164
0.69208,71.578
0.68622,70.991
0.6784,70.404
0.66667,69.818
0.65298,69.231
0.63636,68.84
0.61779,68.253
0.59726,67.862
0.57576,67.471
0.55327,66.884
0.53079,66.297
0.51124,65.906
0.49365,65.319
0.47507,64.928
0.45748,64.342
0.44184,63.95
0.42717,63.364
0.41544,62.777
0.40469,62.386
0.39492,61.799
0.38807,61.408
0.38123,60.821
0.37537,60.235
0.37048,59.844
0.36657,59.452
0.36364,59.061
0.3607,59.061
0.35777,59.257
0.35386,60.039
0.35093,62.19
0.348,66.102
0.34409,72.555
0.34115,80.965
0.33724,90.352
0.33431,99.739
0.3304,108.54
0.32747,116.17
0.32551,122.43
0.3216,127.12
0.31867,130.25
0.31476,131.81
0.31183,132.4
0.30792,131.81
0.30499,130.44
0.30108,128.68
0.29814,126.53
0.29423,123.99
0.2913,121.45
0.28837,118.71
0.28641,115.38
0.28446,111.86
0.28152,108.15
0.27859,104.04
0.27566,99.544
0.27273,95.241
0.26979,91.134
0.26588,87.419
0.26295,84.289
0.25904,81.552
0.25709,79.596
0.25806,78.031
0.26197,76.662
0.26979,75.88
0.28446,75.293
0.30694,75.098
0.33822,75.098
0.37634,75.098
0.41935,75.098
0.46628,75.098
0.51222,75.098
0.55621,75.098
0.59531,75.098
0.62952,75.098
0.65689,75.098
0.67644,74.902
0.69013,74.511
0.6999,74.316
0.70772,73.729
0.71065,73.338
0.71065,72.947
0.70674,72.36
0.6999,71.969
0.68915,71.382
0.67546,70.795
0.65982,70.404
0.64125,69.818
0.62268,69.231
0.60411,68.84
0.58358,68.449
0.56012,67.862
0.53763,67.471
0.51515,66.884
0.49462,66.493
0.4741,65.906
0.4565,65.515
0.44086,64.928
0.42717,64.537
0.41544,63.95
0.40567,63.559
0.39785,62.973
0.39198,62.582
0.38612,61.995
0.38123,61.604
0.37634,61.213
0.37243,61.017
0.36852,60.821
0.36461,61.213
0.36168,62.19
0.35875,64.537
0.35484,68.84
0.35191,75.685
0.34897,84.485
0.34702,94.263
0.34311,103.65
0.34018,112.26
0.33627,119.88
0.33333,126.14
0.3304,130.64
0.32649,133.57
0.32356,134.94
0.32063,135.33
0.31672,134.55
0.31378,133.18
0.31085,131.42
0.30792,129.27
0.30596,126.92
0.30401,124.19
0.30108,121.45
0.29814,118.51
0.29521,115.19
0.29228,111.67
0.28935,107.76
0.28641,103.65
0.28348,99.348
0.28055,95.241
0.27761,91.525
0.27566,88.396
0.27468,85.658
0.27273,83.507
0.2737,81.747
0.27761,80.574
0.28739,79.596
0.30499,79.009
0.3304,78.814
0.36364,78.618
0.40371,78.618
0.44868,78.422
0.4956,78.422
0.53568,78.422
0.56989,78.422
0.60606,78.422
0.6393,78.227
0.66764,78.031
0.69013,77.836
0.70772,77.445
0.71945,76.858
0.72727,76.467
0.73021,75.88
0.73021,75.293
0.7263,74.902
0.71848,74.316
0.70968,73.924
0.69795,73.338
0.68426,72.751
0.66764,72.164
0.65005,71.773
0.62952,71.186
0.60802,70.795
0.58651,70.209
0.565,69.426
0.5435,68.84
0.52297,68.253
0.5044,67.471
0.48974,66.884
0.47703,66.297
0.46432,65.711
0.45259,65.124
0.44282,64.537
0.43402,63.95
0.42717,63.559
0.42131,62.973
0.41544,62.582
0.41056,62.19
0.40665,61.799
0.40176,61.799
0.39785,62.19
0.39492,63.559
0.39198,66.688
0.38807,72.36
0.38514,80.574
0.38123,90.352
0.37732,100.52
0.37341,110.1
0.3695,118.71
0.36559,126.14
0.36168,131.81
0.35777,135.72
0.35386,138.07
0.34995,139.05
0.348,139.05
0.34409,138.07
0.34115,136.51
0.33724,134.55
0.33333,132.4
0.32942,130.05
0.32551,127.71
0.3216,124.97
0.31769,122.23
0.31378,118.9
0.30987,115.38
0.30596,111.67
0.30303,107.37
0.30108,103.06
0.29717,98.761
0.29423,94.655
0.29032,90.939
0.28641,87.81
0.28446,85.267
0.28446,83.116
0.29032,81.552
0.30303,80.574
0.32356,79.791
0.35191,79.205
0.38319,78.814
0.41642,78.618
0.45748,78.422
0.50147,78.422
0.54545,78.422
0.58749,78.227
0.62366,78.227
0.65494,78.031
0.67937,77.836
0.69892,77.445
0.71261,77.054
0.72141,76.662
0.72532,76.271
0.72532,75.685
0.72532,75.098
0.72532,74.511
0.72043,73.729
0.71163,73.142
0.6999,72.555
0.68426,71.969
0.66764,71.382
0.64712,70.991
0.62561,70.404
0.60313,69.818
0.57967,69.426
0.55816,68.84
0.53861,68.253
0.51711,67.666
0.49658,67.08
0.47703,66.493
0.45943,65.906
0.44282,65.515
0.42913,64.928
0.4174,64.342
0.40665,63.755
0.39785,63.364
0.39003,62.777
0.38319,62.386
0.37732,61.799
0.37341,61.408
0.3695,61.213
0.36461,61.408
0.3607,62.19
0.35582,64.537
0.35191,68.84
0.348,75.88
0.34311,85.072
0.3392,95.241
0.33431,105.22
0.3304,114.21
0.32649,122.23
0.32356,128.68
0.31965,133.38
0.31574,136.31
0.31183,138.07
0.30792,138.27
0.30401,137.68
0.3001,136.31
0.29619,134.55
0.29228,132.2
0.28837,129.86
0.28446,127.12
0.28055,124.38
0.27761,121.45
0.27566,118.12
0.27273,114.6
0.26979,110.69
0.26588,106.39
0.26295,102.09
0.25904,97.588
0.25513,93.481
0.25122,89.57
0.24829,86.245
0.24536,83.703
0.24536,81.552
0.24927,79.987
0.25709,78.814
0.27273,78.031
0.29717,77.64
0.32942,77.249
0.3695,77.054
0.41544,77.054
0.46432,77.054
0.5132,77.054
0.55914,77.054
0.6002,77.054
0.63636,76.858
0.66569,76.662
0.68524,76.467
0.69892,76.076
0.70968,75.685
0.7175,75.293
0.72043,74.902
0.72043,74.316
0.71652,73.729
0.70968,73.142
0.6999,72.555
0.68719,71.969
0.67155,71.382
0.65396,70.795
0.63636,70.209
0.61779,69.622
0.59629,69.231
0.5738,68.644
0.54936,68.057
0.5259,67.666
0.50244,67.08
0.48094,66.493
0.46041,65.906
0.44184,65.319
0.4262,64.733
0.41251,64.342
0.40078,63.755
0.39198,63.168
0.38416,62.777
0.37732,62.19
0.37146,61.604
0.36559,61.213
0.3607,60.821
0.35582,60.626
0.35191,60.626
0.348,61.213
0.34409,62.386
0.34018,65.515
0.33627,70.795
0.33333,78.618
0.33138,88.005
0.32747,97.979
0.32356,107.17
0.31965,115.58
0.31574,122.82
0.31085,128.29
0.30694,132.2
0.30401,134.55
0.3001,135.72
0.29619,135.53
0.29228,134.55
0.28837,132.99
0.28641,130.83
0.28446,128.49
0.28152,125.95
0.27761,123.21
0.27468,120.08
0.27175,116.75
0.26784,113.23
0.26491,109.13
0.261,105.02
0.25806,100.72
0.25415,96.219
0.25122,92.112
0.24829,88.396
0.24633,85.463
0.2434,82.921
0.24242,80.965
0.2434,79.4
0.24927,78.227
0.261,77.445
0.28152,76.858
0.31085,76.662
0.348,76.467
0.39101,76.467
0.43891,76.467
0.48094,76.271
0.51906,76.271
0.55914,76.271
0.59726,76.076
0.63148,75.88
0.65885,75.685
0.68133,75.489
0.69697,75.098
0.70772,74.707
0.71359,74.316
0.71554,73.729
0.71261,73.338
0.70674,72.555
0.69892,72.164
0.68817,71.578
0.67449,70.991
0.65885,70.404
0.6393,69.818
0.61877,69.231
0.59629,68.84
0.57283,68.253
0.54839,67.666
0.52493,67.275
0.50244,66.688
0.48094,66.102
0.46334,65.711
0.4477,65.124
0.43304,64.537
0.42033,64.146
0.40762,63.559
0.39785,62.973
0.38807,62.582
0.38123,61.995
0.37439,61.408
0.36852,61.017
0.36364,60.626
0.35875,60.235
0.35484,60.235
0.35191,60.626
0.34897,61.799
0.34604,64.537
0.34213,69.426
0.3392,77.054
0.33529,86.245
0.33138,96.024
0.32747,105.41
0.32356,113.82
0.31965,121.25
0.31574,127.12
0.31183,131.23
0.3089,133.77
0.30694,135.14
0.30401,135.14
0.3001,134.35
0.29717,132.79
0.29326,130.83
0.29032,128.68
0.28641,126.34
0.28348,123.6
0.27957,120.67
0.27664,117.34
0.27273,113.82
0.26979,109.91
0.26686,105.8
0.26588,101.5
0.26295,97.001
0.26002,92.894
0.25611,88.983
0.2522,85.854
0.24927,83.312
0.24731,81.16
0.24731,79.4
0.2522,78.227
0.26491,77.249
0.28446,76.858
0.30792,76.467
0.33627,76.271
0.37439,76.076
0.41935,76.076
0.46725,76.076
0.51515,76.076
0.56012,75.88
0.60117,75.88
0.63539,75.685
0.66471,75.489
0.68719,75.293
0.70381,75.098
0.71457,74.707
0.72043,74.12
0.72141,73.729
0.71945,73.142
0.71554,72.555
0.70772,71.969
0.69697,71.382
0.68328,70.795
0.66667,70.404
0.64809,69.818
0.62757,69.231
0.60411,68.84
0.58065,68.253
0.55914,67.862
0.53861,67.275
0.51711,66.688
0.4956,66.102
0.47605,65.515
0.45748,65.124
0.43988,64.537
0.42522,63.95
0.41544,63.364
0.40958,62.973
0.40176,62.386
0.39492,61.799
0.38807,61.408
0.38319,61.017
0.37928,60.43
0.37537,60.235
0.37146,60.039
0.36657,60.43
0.36266,61.408
0.35875,63.755
0.35484,68.253
0.35093,75.293
0.34702,84.289
0.34311,94.263
0.3392,103.85
0.33627,112.84
0.33431,120.67
0.3304,126.92
0.32649,131.62
0.32356,134.55
0.31965,136.11
0.31574,136.51
0.31183,135.92
0.30792,134.55
0.30401,132.59
0.3001,130.44
0.29619,128.1
0.29326,125.36
0.29032,122.43
0.28837,119.49
0.28543,115.97
0.2825,112.26
0.27957,108.34
0.27566,104.24
0.27273,99.739
0.26882,95.437
0.26491,91.33
0.26197,87.81
0.25806,84.876
0.25513,82.529
0.25513,80.574
0.25904,79.205
0.26784,78.227
0.28348,77.445
0.30792,77.054
0.34115,76.858
0.38319,76.858
0.43011,76.858
0.47996,76.858
0.52981,76.858
0.57771,77.054
0.62072,77.054
0.65689,76.858
0.68426,76.858
0.70381,76.662
0.72141,76.467
0.73509,76.076
0.74389,75.489
0.7478,75.098
0.74878,74.511
0.74487,74.12
0.73803,73.533
0.72825,72.947
0.71457,72.36
0.69795,71.773
0.68133,71.186
0.66373,70.6
0.64321,70.209
0.61975,69.818
0.59629,69.231
0.57087,68.84
0.54643,68.253
0.52297,67.666
0.50147,67.275
0.48094,66.688
0.46334,66.102
0.44673,65.711
0.43304,65.124
0.42326,64.537
0.41447,64.146
0.40665,63.559
0.3998,63.168
0.39296,62.582
0.38807,62.19
0.38319,61.799
0.37928,61.799
0.37537,61.995
0.37146,62.973
0.36852,65.319
0.36461,70.013
0.36266,77.249
0.35973,86.441
0.35679,96.415
0.35288,106.19
0.34995,115.38
0.34604,123.4
0.34213,129.66
0.3392,134.16
0.33529,137.09
0.33236,138.46
0.32845,138.85
0.32551,138.07
0.32258,136.7
0.32063,134.75
0.31867,132.79
0.31574,130.44
0.31281,128.1
0.30987,125.36
0.30694,122.43
0.30401,119.3
0.30108,115.78
0.29814,112.06
0.29521,107.95
0.29228,103.65
0.28935,99.348
0.28739,95.241
0.28543,91.525
0.2825,88.396
0.28055,85.854
0.28055,83.703
0.28348,82.138
0.29326,81.16
0.31085,80.183
0.33627,79.791
0.37146,79.596
0.41447,79.4
0.46139,79.4
0.50538,79.4
0.54448,79.4
0.58847,79.4
0.62952,79.4
0.66667,79.205
0.69795,79.009
0.72336,78.814
0.74291,78.227
0.7566,77.836
0.7654,77.249
0.76931,76.467
0.76931,75.685
0.7654,75.098
0.75855,74.316
0.74976,73.533
0.73803,72.947
0.72434,72.36
0.70772,71.773
0.68915,71.186
0.66862,70.6
0.64614,70.209
0.6217,69.818
0.59824,69.231
0.57478,68.84
0.55132,68.253
0.53177,67.471
0.51515,67.08
0.49756,66.297
0.48192,65.711
0.46725,65.124
0.45552,64.537
0.44477,63.95
0.43597,63.364
0.42815,62.973
0.42229,62.386
0.41642,61.799
0.41153,61.408
0.40665,61.213
0.40274,61.408
0.3998,62.386
0.39589,64.928
0.39198,70.013
0.3871,77.64
0.38319,87.223
0.3783,97.784
0.37341,107.76
0.36755,117.14
0.36266,125.16
0.35777,131.42
0.35288,135.92
0.34897,138.66
0.34604,140.03
0.34213,140.03
0.33822,139.24
0.33333,137.68
0.32942,135.72
0.32551,133.57
0.32063,131.23
0.31672,128.68
0.31183,125.95
0.30792,123.01
0.30303,119.69
0.29912,116.36
0.29521,112.65
0.29228,108.54
0.28935,104.24
0.28446,99.739
0.28055,95.437
0.27566,91.721
0.27077,88.201
0.26686,85.463
0.26588,83.116
0.26882,81.356
0.27859,79.987
0.29619,79.009
0.31867,78.422
0.34604,78.031
0.38416,77.836
0.42913,77.64
0.47801,77.445
0.52786,77.445
0.57576,77.445
0.61877,77.249
0.65591,77.249
0.68622,77.054
0.70968,76.858
0.72727,76.467
0.739,76.076
0.74487,75.489
0.74585,75.098
0.74487,74.316
0.74096,73.729
0.73412,73.142
0.72434,72.36
0.71261,71.969
0.69795,71.382
0.68133,70.6
0.66178,70.209
0.64125,69.622
0.61779,69.035
0.59726,68.644
0.57674,68.057
0.55425,67.471
0.53079,66.884
0.50831,66.297
0.4868,65.711
0.46725,65.124
0.44966,64.537
0.43402,64.146
0.42033,63.559
0.4086,62.973
0.39883,62.386
0.39003,61.995
0.38416,61.408
0.37928,61.017
0.37439,60.626
0.3695,60.235
0.36461,60.039
0.3607,60.43
0.35679,61.604
0.35288,64.342
0.348,69.426
0.34409,77.054
0.34018,86.636
0.33627,96.806
0.33236,106.58
0.32942,115.38
0.32454,123.01
0.31769,128.88
0.31281,132.99
0.30792,135.53
0.30401,136.7
0.3001,136.7
0.29619,135.92
0.29228,134.16
0.28837,132.2
0.28543,129.86
0.28152,127.12
0.27859,124.38
0.27664,121.25
0.2737,118.12
0.27077,114.6
0.26686,110.89
0.26393,106.78
0.26002,102.67
0.25709,98.175
0.25318,93.872
0.25024,89.961
0.24633,86.441
0.24242,83.703
0.24145,81.356
0.24145,79.596
0.25024,78.227
0.261,77.249
0.2737,76.662
0.29619,76.271
0.32845,76.076
0.36852,75.88
0.41447,75.88
0.46334,75.88
0.51124,75.685
0.55621,75.685
0.59629,75.685
0.62659,75.489
0.65005,75.293
0.67058,75.098
0.68719,74.707
0.69892,74.316
0.70674,73.729
0.70968,73.338
0.7087,72.751
0.70381,72.164
0.69697,71.578
0.68622,70.991
0.67253,70.404
0.65885,69.818
0.64321,69.231
0.62463,68.644
0.60411,68.253
0.5826,67.666
0.55914,67.08
0.53568,66.688
0.51222,66.102
0.48974,65.515
0.46921,65.124
0.45064,64.537
0.43402,63.95
0.41838,63.364
0.40762,62.973
0.39785,62.386
0.38905,61.799
0.38123,61.408
0.37439,60.821
0.36755,60.43
0.36266,59.844
0.35777,59.648
0.35288,59.257
0.34897,59.257
0.34506,59.648
0.34115,60.821
0.33822,63.364
0.33627,68.449
0.33333,75.88
0.3304,85.072
0.32649,94.655
0.32258,104.04
0.31867,112.45
0.31476,119.69
0.31085,125.55
0.30694,129.66
0.30303,132.2
0.29912,133.38
0.29619,133.38
0.29423,132.59
0.2913,130.83
0.28837,128.68
0.28543,126.34
0.28152,123.6
0.27859,120.67
0.27468,117.54
0.27175,114.21
0.26784,110.5
0.26491,106.39
0.26197,102.28
0.25904,97.784
0.25709,93.481
0.25513,89.374
0.25318,85.854
0.24927,82.921
0.24633,80.378
0.2434,78.618
0.2434,77.054
0.24731,76.076
0.25611,75.293
0.2737,74.902
0.29912,74.707
0.33333,74.707
0.36755,74.511
0.40371,74.511
0.4477,74.511
0.49365,74.511
0.53861,74.511
0.57967,74.316
0.61584,74.316
0.64516,74.12
0.6696,73.729
0.68719,73.533
0.69892,73.142
0.70674,72.555
0.7087,72.164
0.70674,71.578
0.70186,70.991
0.69404,70.404
0.68426,69.818
0.67058,69.231
0.65396,68.644
0.63539,68.253
0.61486,67.666
0.59335,67.08
0.56989,66.493
0.54643,66.102
0.52297,65.515
0.50244,65.124
0.48485,64.537
0.46628,63.95
0.44868,63.559
0.43304,62.973
0.41838,62.386
0.40665,61.995
0.39589,61.408
0.3871,61.017
0.37928,60.43
0.37341,59.844
0.36755,59.452
0.36266,59.061
0.35875,58.67
0.35679,58.475
0.35386,58.475
0.34995,59.257
0.34702,60.821
0.34213,64.537
0.33822,70.404
0.33529,78.618
0.33236,88.201
0.32942,97.784
0.32551,106.78
0.3216,114.8
0.31867,121.45
0.31574,126.53
0.31281,130.05
0.3089,132.2
0.30596,132.79
0.30205,132.4
0.29912,131.23
0.29521,129.27
0.29228,127.12
0.28837,124.58
0.28543,122.03
0.28152,119.1
0.27859,115.97
0.27664,112.45
0.27468,108.54
0.27175,104.43
0.26882,100.13
0.26588,95.828
0.26295,91.721
0.26002,87.81
0.25611,84.485
0.25318,81.747
0.24927,79.596
0.24829,77.836
0.24927,76.662
0.25415,75.88
0.26393,75.293
0.28152,75.098
0.30694,74.902
0.34213,74.902
0.38319,75.098
0.42913,75.098
0.47703,75.098
0.52395,75.293
0.56794,75.293
0.60704,75.293
0.64027,75.098
0.66764,74.902
0.68524,74.707
0.69795,74.316
0.70674,73.924
0.71261,73.533
0.71359,72.947
0.71163,72.36
0.70674,71.773
0.69795,71.186
0.68622,70.6
0.67155,70.209
0.65396,69.622
0.63441,69.231
0.61486,68.84
0.59629,68.253
0.5738,67.666
0.55132,67.275
0.52884,66.884
0.50635,66.297
0.48485,65.906
0.4653,65.319
0.4477,64.928
0.43304,64.342
0.41935,63.95
0.4086,63.364
0.3998,62.973
0.39296,62.582
0.3871,61.995
0.38221,61.408
0.37732,61.017
0.37341,60.821
0.3695,60.626
0.36657,60.626
0.36266,61.017
0.35973,62.582
0.35679,65.906
0.35386,71.578
0.35093,79.791
0.348,89.179
0.34604,98.957
0.34311,108.34
0.34018,116.56
0.33627,123.79
0.33333,129.27
0.32942,133.18
0.32649,135.33
0.32356,136.31
0.32063,135.92
0.31769,134.75
0.31476,133.18
0.31183,131.03
0.3089,128.88
0.30792,126.34
0.30499,123.6
0.30303,120.67
0.3001,117.54
0.29717,114.21
0.29521,110.3
0.29228,106.39
0.29326,102.09
0.29619,97.784
0.29619,93.677
0.29423,89.961
0.29326,86.832
0.29228,84.289
0.2913,82.138
0.2913,80.574
0.29619,79.596
0.30694,78.814
0.32649,78.227
0.35386,78.227
0.39003,78.031
0.43304,78.227
0.48094,78.227
0.53079,78.227
0.57967,78.227
0.61975,78.227
0.65298,78.031
0.68524,77.64
0.71359,77.249
0.73705,76.858
0.75464,76.271
0.76637,75.685
0.77419,75.098
0.77517,74.316
0.77322,73.729
0.76931,73.142
0.76246,72.555
0.75269,71.969
0.73998,71.382
0.72532,70.795
0.70772,70.404
0.68817,69.818
0.66667,69.231
0.64321,68.84
0.61877,68.253
0.59531,67.666
0.57185,67.08
0.54936,66.493
0.52884,65.906
0.51026,65.319
0.4956,64.733
0.48289,64.146
0.47116,63.559
0.46041,62.973
0.45161,62.582
0.44379,61.995
0.43793,61.408
0.43206,61.017
0.4262,60.43
0.42131,60.235
0.41642,60.039
0.41251,60.235
0.4086,61.604
0.40469,64.733
0.40078,70.404
0.39687,78.422
0.39198,88.201
0.3871,98.37
0.38221,108.15
0.37732,116.75
0.37243,124.19
0.36755,129.86
0.36266,133.77
0.35777,136.11
0.35484,137.09
0.35093,136.9
0.34702,135.72
0.34311,134.16
0.3392,132.01
0.33431,129.86
0.32942,127.31
0.32551,124.58
0.32063,121.64
0.31574,118.51
0.31085,114.99
0.30694,111.28
0.30205,107.37
0.29912,103.06
0.29619,98.761
0.29326,94.459
0.28935,90.548
0.28446,87.027
0.27957,84.289
0.27664,81.747
0.27468,79.987
0.27761,78.618
0.28739,77.64
0.30499,76.858
0.33138,76.662
0.36168,76.271
0.39492,76.271
0.43793,76.271
0.48485,76.076
0.53372,76.076
0.58065,76.076
0.62366,76.076
0.65982,75.88
0.69013,75.685
0.71359,75.293
0.73021,75.098
0.74194,74.511
0.74878,74.12
0.74976,73.533
0.7478,72.947
0.74291,72.164
0.73509,71.578
0.72532,70.991
0.71261,70.404
0.69697,69.818
0.67937,69.231
0.65885,68.84
0.63734,68.253
0.61388,67.666
0.58944,67.275
0.56794,66.688
0.54741,66.102
0.5259,65.711
0.5044,65.124
0.48485,64.537
0.46628,63.95
0.44966,63.364
0.43597,62.973
0.42326,62.386
0.41251,61.799
0.40371,61.408
0.39687,60.821
0.39003,60.235
0.38514,59.844
0.38221,59.452
0.3783,59.061
0.37439,59.061
0.37048,59.452
0.36657,60.626
0.36266,63.364
0.35875,68.644
0.35484,76.271
0.35093,85.658
0.34604,95.632
0.34213,105.22
0.33822,113.82
0.33529,121.25
0.33236,127.12
0.32747,131.23
0.32356,133.57
0.31965,134.75
0.31574,134.55
0.31183,133.57
0.3089,131.81
0.30499,129.86
0.30108,127.31
0.29717,124.58
0.29326,121.64
0.2913,118.51
0.28935,115.19
0.28641,111.67
0.2825,107.56
0.27859,103.46
0.27566,99.153
0.27273,94.85
0.26882,90.548
0.26588,86.832
0.26197,83.703
0.25806,81.16
0.25513,79.205
0.25513,77.64
0.25806,76.467
0.26588,75.685
0.28055,75.293
0.30303,74.902
0.33529,74.902
0.37634,74.707
0.42229,74.707
0.47214,74.707
0.52297,74.707
0.56989,74.707
0.6129,74.707
0.65005,74.511
0.67644,74.316
0.69599,73.924
0.71359,73.729
0.7263,73.338
0.73412,72.751
0.73803,72.164
0.73705,71.773
0.73314,70.991
0.72532,70.404
0.71457,69.818
0.70088,69.231
0.68426,68.84
0.66667,68.253
0.64907,67.666
0.62854,67.275
0.60508,66.688
0.58065,66.102
0.55621,65.711
0.53275,65.124
0.50929,64.537
0.48778,64.146
0.46823,63.559
0.45161,62.973
0.43597,62.582
0.42326,61.995
0.41349,61.408
0.40567,61.017
0.39785,60.43
0.39198,60.039
0.38514,59.648
0.38025,59.061
0.37537,58.67
0.37146,58.475
0.36755,58.475
0.36364,58.866
0.3607,59.844
0.35679,62.582
0.35386,67.471
0.35191,74.511
0.348,83.507
0.34506,92.894
0.34115,102.09
0.33627,110.3
0.33236,117.34
0.32845,123.01
0.32454,126.92
0.32063,129.47
0.31672,130.44
0.31281,130.44
0.3089,129.47
0.30596,127.9
0.30401,125.75
0.30108,123.4
0.29814,120.67
0.29521,117.73
0.2913,114.41
0.28739,111.08
0.28446,107.17
0.28055,103.06
0.27761,98.957
0.27468,94.459
0.27077,90.352
0.26882,86.441
0.26686,83.116
0.26491,80.378
0.261,78.227
0.25904,76.467
0.25806,75.098
0.26002,74.316
0.26784,73.729
0.2825,73.338
0.30596,73.338
0.33822,73.142
0.3783,73.338
0.42424,73.338
0.46628,73.338
0.50538,73.338
0.54252,73.338
0.57478,73.338
0.60704,73.142
0.63636,72.947
0.65982,72.751
0.67742,72.36
0.69013,71.969
0.69795,71.578
0.70088,70.991
0.6999,70.6
0.69599,70.013
0.68915,69.426
0.67937,68.84
0.66667,68.253
0.65103,67.666
0.63343,67.275
0.6129,66.688
0.5914,66.297
0.56891,65.906
0.54545,65.319
0.52297,64.733
0.50049,64.342
0.48192,63.755
0.46628,63.364
0.45064,62.777
0.43304,62.19
0.41838,61.799
0.4086,61.213
0.3998,60.821
0.39003,60.235
0.38319,59.844
0.3783,59.257
0.37341,58.67
0.3695,58.279
0.36559,58.083
0.36364,57.888
0.3607,58.083
0.35875,58.67
0.35582,60.43
0.35288,64.146
0.34995,70.209
0.34702,78.422
0.34311,87.81
0.34018,97.197
0.33627,106
0.33236,113.82
0.32845,120.27
0.32649,125.36
0.32356,128.68
0.3216,130.64
0.31769,131.42
0.31476,130.83
0.31183,129.66
0.30792,127.71
0.30499,125.55
0.30108,123.01
0.29814,120.27
0.29423,117.34
0.2913,114.02
0.28837,110.5
0.28543,106.78
0.28446,102.48
0.28152,98.175
0.27859,93.872
0.27566,89.765
0.27273,86.05
0.26979,82.725
0.26588,80.183
0.26295,78.031
0.26295,76.467
0.26393,75.293
0.26784,74.511
0.27664,73.924
0.29032,73.729
0.31281,73.533
0.34506,73.533
0.38319,73.533
0.42717,73.533
0.47312,73.533
0.52004,73.533
0.56403,73.338
0.60313,73.338
0.63636,73.142
0.66373,72.947
0.68524,72.751
0.70088,72.36
0.71065,71.969
0.71554,71.578
0.71652,70.991
0.71457,70.404
0.70968,69.818
0.70186,69.231
0.6911,68.84
0.67644,68.253
0.65982,67.666
0.64125,67.08
0.61975,66.688
0.6002,66.102
0.58065,65.711
0.55914,65.124
0.53666,64.537
0.51026,64.146
0.4868,63.559
0.47116,63.168
0.45552,62.582
0.44184,61.995
0.42815,61.604
0.4174,61.213
0.40762,60.626
0.39883,60.039
0.39296,59.648
0.38807,59.257
0.38319,58.67
0.3783,58.279
0.37439,58.083
0.37048,58.083
0.36657,58.475
0.36168,59.648
0.35777,62.386
0.35582,67.471
0.35191,74.902
0.348,84.094
0.34604,93.481
0.34311,102.67
0.33822,111.08
0.33529,118.12
0.33236,123.99
0.32942,128.1
0.32454,130.44
0.32063,131.62
0.31769,131.62
0.31378,130.44
0.3089,128.88
0.30499,126.92
0.30205,124.58
0.3001,122.03
0.29717,119.3
0.29521,116.17
0.29228,112.84
0.28837,109.32
0.28543,105.41
0.28152,101.3
0.27859,97.001
0.27468,92.699
0.27175,88.788
0.26784,85.267
0.26588,82.334
0.26393,79.791
0.26295,77.836
0.26491,76.467
0.27077,75.293
0.28446,74.707
0.30499,74.12
0.33431,73.729
0.35973,73.729
0.39687,73.533
0.45161,73.533
0.50342,73.533
0.55034,73.533
0.58749,73.533
0.61681,73.533
0.64516,73.533
0.6696,73.338
0.68915,73.142
0.70283,72.751
0.71261,72.36
0.7175,71.773
0.7175,71.382
0.71457,70.795
0.70772,70.209
0.69892,69.622
0.68719,69.035
0.67351,68.644
0.65787,68.057
0.6393,67.666
0.61877,67.08
0.59629,66.493
0.5738,66.102
0.55034,65.515
0.52786,65.124
0.50635,64.537
0.48583,64.146
0.46725,63.559
0.45161,62.973
0.43793,62.582
0.42717,61.995
0.4174,61.408
0.40762,61.017
0.3998,60.43
0.39296,59.844
0.38612,59.452
0.38123,59.061
0.37634,58.67
0.37243,58.279
0.36852,58.279
0.36461,58.475
0.36168,59.452
0.35973,61.799
0.35679,66.297
0.35386,73.533
0.34995,82.529
0.34702,92.308
0.34311,101.89
0.3392,110.5
0.33529,118.32
0.33236,124.58
0.32845,129.07
0.32454,132.01
0.32063,133.57
0.31769,133.96
0.31574,133.38
0.31281,132.01
0.30987,130.05
0.30694,127.9
0.30303,125.55
0.3001,123.01
0.29619,120.27
0.29326,117.14
0.28935,114.02
0.28641,110.3
0.28348,106.58
0.28152,102.48
0.27957,98.175
0.27761,94.068
0.2737,90.157
0.27077,86.832
0.26784,83.898
0.26588,81.552
0.26686,79.791
0.27273,78.227
0.28446,77.249
0.30499,76.467
0.33333,76.076
0.37048,75.88
0.40665,75.685
0.44379,75.685
0.48778,75.88
0.53275,75.88
0.57674,75.88
0.61584,75.88
0.65005,75.88
0.67742,75.685
0.6999,75.489
0.71554,75.293
0.7263,74.902
0.73216,74.511
0.73412,73.924
0.73118,73.533
0.72727,72.947
0.71945,72.36
0.70968,71.773
0.69697,71.186
0.68231,70.6
0.66471,70.013
0.64516,69.622
0.62561,69.035
0.60508,68.644
0.5826,68.057
0.56207,67.666
0.54252,67.08
0.52297,66.493
0.50244,65.906
0.48387,65.515
0.46725,64.928
0.45259,64.537
0.43891,63.95
0.42815,63.364
0.41935,62.973
0.41056,62.582
0.40469,61.995
0.39883,61.604
0.39394,61.213
0.39101,60.821
0.3871,60.626
0.38416,60.821
0.38025,61.408
0.37732,63.559
0.37439,67.862
0.37048,74.511
0.36755,83.507
0.36364,93.481
0.35973,103.06
0.35679,112.06
0.35386,119.88
0.35093,126.53
0.348,131.23
0.34409,134.35
0.34115,136.11
0.33724,136.31
0.33431,135.72
0.3304,134.35
0.32747,132.59
0.32356,130.44
0.32063,128.1
0.31672,125.55
0.31378,122.82
0.31183,120.08
0.30987,116.75
0.30792,113.43
0.30499,109.71
0.30205,105.61
0.29912,101.3
0.29619,97.197
0.29228,93.09
0.28935,89.374
0.28641,86.245
0.28446,83.703
0.28543,81.552
0.28935,79.987
0.29814,79.009
0.31476,78.227
0.3392,77.836
0.37341,77.445
0.41349,77.249
0.45943,77.249
0.50733,77.249
0.55425,77.054
0.59824,77.054
0.63832,76.858
0.67155,76.662
0.69892,76.467
0.7175,76.076
0.73021,75.685
0.739,75.098
0.74487,74.511
0.7478,73.924
0.74682,73.338
0.74291,72.751
0.73509,72.164
0.72532,71.578
0.71163,70.991
0.69697,70.404
0.6784,69.818
0.6608,69.231
0.64223,68.84
0.6217,68.253
0.59922,67.666
0.57576,67.275
0.55327,66.688
0.53177,66.297
0.51026,65.711
0.49169,65.124
0.4741,64.537
0.45943,63.95
0.44673,63.364
0.435,62.777
0.4262,62.386
0.41935,61.799
0.41251,61.408
0.40665,60.821
0.40078,60.235
0.39492,59.844
0.39003,59.648
0.38416,59.452
0.37928,59.844
0.37439,61.017
0.3695,63.755
0.36461,69.035
0.3607,76.858
0.35679,86.636
0.35288,96.61
0.348,106.39
0.34311,115.19
0.33822,122.62
0.33333,128.49
0.32942,132.4
0.32454,134.75
0.32063,135.72
0.31574,135.53
0.31183,134.55
0.30792,132.79
0.30499,130.64
0.30205,128.29
0.29912,125.75
0.29521,123.01
0.2913,120.08
0.28739,116.95
0.28348,113.62
0.27957,109.91
0.27664,106
0.27273,101.69
0.26882,97.393
0.26491,93.09
0.26197,89.179
0.26002,85.854
0.25709,83.116
0.25415,80.769
0.25513,79.009
0.261,77.836
0.2737,76.858
0.29521,76.076
0.32454,75.685
0.36364,75.489
0.40762,75.293
0.45552,75.293
0.5044,75.293
0.54545,75.098
0.57967,75.098
0.61486,75.098
0.64614,74.902
0.67155,74.707
0.6911,74.511
0.70577,74.12
0.71554,73.729
0.72043,73.338
0.72043,72.751
0.7175,72.164
0.71163,71.578
0.70283,70.991
0.69208,70.404
0.67937,69.818
0.66276,69.231
0.64516,68.644
0.62463,68.057
0.60313,67.666
0.57967,67.08
0.55621,66.493
0.53275,66.102
0.51026,65.515
0.48876,65.124
0.46823,64.537
0.45259,63.95
0.43891,63.364
0.42522,62.777
0.41251,62.19
0.40176,61.604
0.39296,61.213
0.38514,60.626
0.3783,60.235
0.37243,59.648
0.36657,59.257
0.36168,58.866
0.35777,58.67
0.35484,58.67
0.35191,58.866
0.348,60.039
0.34506,62.973
0.34115,67.862
0.33724,75.293
0.33333,84.289
0.32845,93.872
0.32454,102.87
0.32063,111.08
0.31672,118.12
0.31281,123.6
0.3089,127.31
0.30596,129.66
0.30303,130.64
0.3001,130.44
0.29619,129.47
0.29326,127.71
0.28935,125.55
0.28641,123.01
0.2825,120.47
0.27859,117.54
0.27566,114.41
0.27175,111.08
0.26882,107.17
0.26588,103.26
0.26393,99.153
0.26197,94.85
0.25904,90.548
0.25611,86.832
0.2522,83.507
0.24829,80.769
0.24536,78.618
0.24438,76.858
0.24536,75.489
0.2522,74.707
0.26588,73.924
0.28739,73.533
0.31281,73.533
0.34213,73.338
0.38025,73.338
0.42522,73.338
0.47116,73.338
0.51711,73.338
0.56012,73.338
0.59824,73.338
0.6305,73.142
0.65591,72.947
0.67546,72.555
0.68915,72.164
0.69599,71.969
0.69892,71.382
0.69892,70.991
0.69599,70.404
0.69013,69.818
0.68035,69.231
0.66862,68.644
0.65298,68.057
0.63636,67.666
0.61584,67.08
0.59531,66.688
0.57185,66.297
0.55132,65.711
0.53177,65.319
0.51124,64.733
0.48974,64.146
0.47019,63.755
0.45161,63.168
0.435,62.777
0.42033,62.19
0.40762,61.604
0.39687,61.213
0.38807,60.626
0.38025,60.039
0.37341,59.648
0.36852,59.257
0.36461,58.67
0.3607,58.279
0.35777,57.888
0.35679,57.692
0.35484,57.692
0.35191,58.279
0.34897,59.648
0.34604,62.582
0.34311,67.862
0.3392,75.293
0.33627,84.289
0.33333,93.481
0.33138,102.09
0.32747,109.91
0.32454,116.75
0.32063,122.03
0.31769,125.55
0.31378,127.71
0.31085,128.68
0.30694,128.49
0.30401,127.12
0.3001,125.36
0.29717,123.21
0.29423,120.67
0.2913,117.93
0.28935,114.8
0.28739,111.47
0.28446,107.95
0.28152,104.04
0.27859,99.739
0.27566,95.437
0.27175,91.33
0.26882,87.223
0.26588,83.703
0.26197,80.965
0.25904,78.422
0.25709,76.662
0.25709,75.098
0.25904,74.12
0.26491,73.533
0.27664,72.947
0.29521,72.751
0.32356,72.555
0.35875,72.555
0.3998,72.555
0.44477,72.555
0.49071,72.555
0.5347,72.555
0.57576,72.555
0.60802,72.555
0.63245,72.36
0.65591,72.164
0.67449,71.969
0.68817,71.578
0.69795,71.186
0.70186,70.6
0.70283,70.209
0.69892,69.622
0.69208,69.035
0.68231,68.644
0.66862,68.057
0.65396,67.471
0.63832,66.884
0.61975,66.493
0.59824,65.906
0.57674,65.515
0.55327,64.928
0.53079,64.537
0.50929,63.95
0.48876,63.559
0.46921,62.973
0.45259,62.582
0.43793,61.995
0.42424,61.408
0.41447,61.017
0.40665,60.626
0.39883,60.039
0.39198,59.648
0.38612,59.061
0.38123,58.67
0.37634,58.083
0.37243,57.692
0.36852,57.497
0.36461,57.497
0.36168,57.692
0.35875,58.67
0.35582,61.017
0.35386,65.319
0.35093,72.164
0.348,80.574
0.34409,89.961
0.34018,98.761
0.33724,106.98
0.33333,114.21
0.32942,120.08
0.32551,124.38
0.3216,127.12
0.31867,128.49
0.31476,128.68
0.31281,128.1
0.31085,126.53
0.30792,124.58
0.30499,122.23
0.30205,119.69
0.29814,116.95
0.29521,113.82
0.2913,110.5
0.28837,106.98
0.28543,103.06
0.28152,98.761
0.27859,94.655
0.27664,90.352
0.27468,86.441
0.27273,83.116
0.26882,80.378
0.26588,78.031
0.26393,76.271
0.26393,74.902
0.26784,73.924
0.27761,73.338
0.29521,72.947
0.32063,72.751
0.35386,72.555
0.39394,72.555
0.43206,72.555
0.46921,72.555
0.51124,72.555
0.55327,72.555
0.59238,72.555
0.62659,72.36
0.65591,72.36
0.6784,72.164
0.69599,71.969
0.70772,71.578
0.71457,71.186
0.71652,70.795
0.71457,70.404
0.70968,69.818
0.70186,69.231
0.6911,68.84
0.67742,68.253
0.66178,67.862
0.64321,67.275
0.62268,66.884
0.6002,66.493
0.57771,66.102
0.55425,65.515
0.53079,65.124
0.50929,64.537
0.49071,64.146
0.47507,63.559
0.45943,63.168
0.44477,62.777
0.43109,62.19
0.42033,61.799
0.41056,61.408
0.40176,60.821
0.39492,60.43
0.38807,59.844
0.38319,59.452
0.3783,59.061
0.37439,58.866
0.37243,58.67
0.36852,58.866
0.36559,59.648
0.36266,61.604
0.35973,65.515
0.35679,71.969
0.35386,80.574
0.34995,89.961
0.34702,99.348
0.34311,107.76
0.3392,115.38
0.33627,121.84
0.33333,126.73
0.33138,130.05
0.32845,131.62
0.32551,132.2
0.3216,131.62
0.31867,130.44
0.31574,128.68
0.31281,126.53
0.30987,124.19
0.30694,121.64
0.30401,118.71
0.30108,115.78
0.29912,112.45
0.29717,108.93
0.29521,105.02
0.29228,100.91
0.29032,96.806
0.28739,92.699
0.28446,88.983
0.28152,85.658
0.27859,82.921
0.27664,80.769
0.27664,79.009
0.28055,77.836
0.28837,76.858
0.30108,76.271
0.32258,76.076
0.35191,75.88
0.38905,75.88
0.43206,75.88
0.47801,75.88
0.52493,76.076
0.57087,76.076
0.61193,76.076
0.64809,75.88
0.6784,75.685
0.70283,75.489
0.71848,75.098
0.72923,74.902
0.73607,74.316
0.74096,73.729
0.74194,73.142
0.739,72.555
0.73314,72.164
0.72434,71.578
0.71261,70.991
0.69795,70.404
0.68133,70.013
0.66276,69.426
0.64418,69.035
0.62561,68.644
0.60411,68.057
0.5826,67.666
0.56109,67.08
0.54057,66.688
0.52004,66.102
0.50244,65.711
0.48583,65.124
0.47214,64.537
0.46041,64.146
0.44966,63.559
0.44086,62.973
0.43402,62.582
0.42913,62.19
0.42424,61.604
0.41935,61.213
0.41544,60.626
0.41153,60.43
0.40762,60.235
0.40371,60.626
0.40078,62.19
0.39687,65.711
0.39296,71.969
0.39003,80.378
0.3871,90.352
0.38416,100.13
0.38025,109.13
0.37732,117.34
0.37341,123.99
0.3695,129.27
0.36559,132.59
0.36168,134.55
0.35777,135.14
0.35484,134.75
0.34995,133.38
0.34604,131.62
0.34213,129.47
0.3392,127.12
0.33627,124.58
0.33333,121.64
0.3304,118.71
0.32649,115.58
0.32258,112.06
0.31965,108.34
0.31574,104.24
0.31281,100.13
0.3089,96.024
0.30499,91.917
0.30108,88.201
0.29912,85.072
0.29717,82.529
0.29521,80.574
0.29717,79.009
0.30303,77.836
0.31574,77.054
0.33627,76.467
0.36559,76.271
0.40274,76.076
0.44575,76.076
0.49169,76.076
0.53861,76.076
0.58358,76.076
0.61877,75.88
0.64712,75.685
0.67449,75.489
0.69795,75.293
0.71652,74.902
0.73021,74.511
0.73803,73.924
0.74194,73.338
0.74194,72.751
0.73803,72.164
0.73118,71.578
0.72141,70.991
0.71065,70.404
0.69697,69.818
0.68133,69.231
0.66276,68.84
0.64223,68.253
0.62072,67.666
0.59726,67.275
0.5738,66.688
0.55034,66.297
0.52786,65.711
0.50635,65.124
0.4868,64.733
0.46921,64.146
0.45455,63.559
0.44282,62.973
0.43206,62.386
0.42131,61.799
0.41251,61.408
0.40469,60.821
0.39883,60.43
0.39296,59.844
0.3871,59.452
0.38319,59.061
0.3783,58.866
0.37439,58.866
0.37048,59.648
0.36755,61.408
0.36364,65.515
0.35875,71.969
0.35484,80.769
0.34995,90.743
0.34604,100.52
0.34115,109.52
0.33627,117.54
0.33236,123.99
0.32747,128.88
0.32356,132.01
0.31965,133.57
0.31672,133.96
0.31378,133.38
0.31085,131.81
0.30694,130.05
0.30401,127.71
0.3001,125.36
0.29619,122.62
0.29228,119.88
0.28837,116.75
0.28543,113.43
0.28152,109.91
0.27761,106
0.27566,101.89
0.2737,97.588
0.27077,93.481
0.26686,89.57
0.26393,86.05
0.26002,83.116
0.25709,80.769
0.25611,78.814
0.25904,77.445
0.26686,76.467
0.2825,75.685
0.30694,75.293
0.34018,74.902
0.37439,74.707
0.41056,74.707
0.45455,74.707
0.50049,74.707
0.54643,74.511
0.58944,74.511
0.62659,74.316
0.65787,74.316
0.68231,73.924
0.70088,73.729
0.71359,73.338
0.72141,72.947
0.72434,72.36
0.72336,71.773
0.71945,71.186
0.71261,70.6
0.70381,70.209
0.69208,69.622
0.67742,69.035
0.6608,68.449
0.64125,67.862
0.61975,67.471
0.59824,66.884
0.57478,66.297
0.55132,65.906
0.53079,65.319
0.51222,64.928
0.49267,64.342
0.4741,63.755
0.4565,63.168
0.44086,62.777
0.42717,62.19
0.41544,61.604
0.40567,61.017
0.39687,60.626
0.38905,60.039
0.38221,59.648
0.37732,59.257
0.37341,58.67
0.3695,58.475
0.36559,58.279
0.36168,58.475
0.35875,59.257
0.35484,61.408
0.35093,65.319
0.34702,71.773
0.34311,79.987
0.33822,89.179
0.33431,98.37
0.3304,106.78
0.32747,114.02
0.32454,120.08
0.32063,124.58
0.31769,127.31
0.31378,128.68
0.30987,129.07
0.30596,128.49
0.30303,126.92
0.29912,124.97
0.29521,122.43
0.29228,119.88
0.28837,117.14
0.28543,114.02
0.28348,110.69
0.28055,107.17
0.27761,103.26
0.27468,99.153
0.27077,94.85
0.26784,90.548
0.26491,86.832
0.261,83.507
0.25806,80.769
0.25415,78.422
0.2522,76.662
0.2522,75.293
0.25513,74.316
0.26197,73.729
0.27566,73.338
0.29717,73.142
0.32649,72.947
0.36364,72.947
0.40567,72.947
0.45161,72.947
0.49756,72.947
0.54252,72.751
0.5826,72.751
0.61779,72.751
0.64321,72.555
0.66178,72.36
0.6784,71.969
0.6911,71.578
0.69892,71.186
0.70186,70.795
0.70186,70.209
0.69795,69.622
0.69013,69.035
0.67937,68.644
0.66569,68.057
0.65005,67.471
0.63343,66.884
0.61584,66.493
0.59531,65.906
0.5738,65.515
0.55034,64.928
0.52786,64.537
0.50635,64.146
0.48583,63.559
0.46628,62.973
0.44966,62.582
0.43402,61.995
0.42131,61.408
0.40958,61.017
0.40078,60.43
0.39394,60.039
0.3871,59.648
0.38123,59.061
0.37634,58.67
0.37146,58.279
0.36657,57.888
0.36266,57.692
0.35875,57.692
0.35582,58.083
0.35288,59.452
0.34897,62.386
0.34604,67.666
0.34409,75.293
0.34115,84.485
0.33822,93.677
0.33431,102.67
0.33138,110.5
0.32747,117.14
0.32356,122.43
0.32063,126.14
0.31672,128.49
0.31281,129.27
0.30987,129.07
0.30596,128.1
0.30401,126.34
0.30108,124.19
0.29912,121.84
0.29521,119.1
0.29228,116.36
0.28935,113.23
0.28641,109.91
0.2825,106.19
0.27957,102.28
0.27664,97.979
0.2737,93.872
0.26979,89.765
0.26784,86.05
0.26686,82.921
0.26393,80.378
0.261,78.227
0.25904,76.662
0.25904,75.293
0.26393,74.316
0.27468,73.729
0.29326,73.533
0.32063,73.142
0.35582,73.142
0.39687,72.947
0.44379,72.947
0.48485,72.947
0.52297,72.947
0.56305,72.947
0.60117,72.947
0.63539,72.751
0.66373,72.555
0.68622,72.36
0.70283,72.164
0.71359,71.578
0.72043,71.186
0.72239,70.6
0.72043,70.209
0.71457,69.622
0.70674,69.035
0.69599,68.449
0.68133,68.057
0.66471,67.471
0.64614,67.08
0.62561,66.493
0.60313,65.906
0.58065,65.515
0.55718,65.124
0.5347,64.537
0.5132,64.146
0.49267,63.559
0.47605,62.973
0.46139,62.582
0.4477,61.995
0.43402,61.408
0.42229,61.017
0.41251,60.43
0.40371,60.039
0.39589,59.452
0.39003,59.061
0.38416,58.475
0.37928,58.083
0.37537,57.888
0.37146,57.692
0.36852,57.888
0.36559,58.67
0.36266,60.626
0.35875,64.733
0.35484,71.186
0.35093,79.596
0.348,88.983
0.34409,98.175
0.34018,106.78
0.33627,114.21
0.33236,120.27
0.32845,124.97
0.32551,128.1
0.32258,129.66
0.31965,130.25
0.31672,129.66
0.31281,128.29
0.30987,126.34
0.30596,123.99
0.30205,121.64
0.29912,119.1
0.29521,116.36
0.29228,113.23
0.28837,109.91
0.28641,106.19
0.28446,102.28
0.28152,98.175
0.27859,93.872
0.27566,89.765
0.27175,86.05
0.26784,82.921
0.26491,80.378
0.26197,78.227
0.261,76.662
0.26295,75.293
0.27175,74.511
0.28641,73.924
0.30596,73.533
0.3304,73.338
0.36559,73.338
0.40665,73.142
0.45259,73.142
0.50049,73.338
0.54741,73.338
0.59042,73.338
0.62757,73.142
0.65982,72.947
0.68524,72.751
0.70479,72.555
0.7175,72.164
0.72434,71.773
0.72825,71.382
0.72825,70.795
0.7263,70.404
0.72043,69.818
0.71163,69.231
0.6999,68.644
0.68524,68.253
0.66764,67.666
0.64809,67.08
0.62561,66.688
0.60313,66.102
0.58162,65.711
0.56207,65.124
0.54057,64.733
0.51906,64.146
0.49853,63.559
0.47996,62.973
0.46237,62.582
0.44673,62.19
0.43304,61.604
0.42131,61.213
0.41153,60.626
0.40274,60.039
0.39589,59.648
0.39101,59.061
0.38612,58.67
0.38123,58.279
0.37732,58.083
0.37341,58.083
0.3695,58.475
0.36559,59.844
0.36168,63.168
0.35777,68.644
0.35484,76.662
0.35093,85.854
0.348,95.437
0.34506,104.63
0.34213,112.84
0.33822,119.69
0.33431,125.16
0.3304,129.07
0.32649,131.42
0.32258,132.4
0.31867,132.2
0.31574,131.23
0.31183,129.66
0.30792,127.71
0.30401,125.55
0.30205,123.01
0.3001,120.47
0.29717,117.73
0.29326,114.6
0.29032,111.08
0.28641,107.37
0.28348,103.46
0.28055,99.348
0.27664,95.046
0.2737,90.939
0.26979,87.419
0.26588,84.289
0.26393,81.552
0.26295,79.4
0.26295,77.836
0.26784,76.467
0.27761,75.685
0.29521,75.098
0.32258,74.902
0.35679,74.707
0.39883,74.511
0.44575,74.511
0.49462,74.511
0.5435,74.511
0.58847,74.511
0.62366,74.511
0.652,74.511
0.6784,74.316
0.70088,74.12
0.71945,73.924
0.73216,73.533
0.73998,73.142
0.74389,72.751
0.74389,72.164
0.73998,71.773
0.73216,71.186
0.72239,70.6
0.71065,70.013
0.69697,69.622
0.67937,69.035
0.6608,68.644
0.6393,68.057
0.61681,67.666
0.59335,67.08
0.56891,66.493
0.54545,66.102
0.52395,65.711
0.50244,65.124
0.48387,64.537
0.46628,64.146
0.45259,63.559
0.44184,63.168
0.43109,62.777
0.42131,62.19
0.41251,61.604
0.40567,61.213
0.39883,60.821
0.39296,60.235
0.38807,60.039
0.38416,59.844
0.38025,60.235
0.37634,61.213
0.37341,63.755
0.37048,68.644
0.36755,76.076
0.36364,85.267
0.3607,95.046
0.35679,104.43
0.35386,113.04
0.34995,120.27
0.34604,126.34
0.34311,130.64
0.3392,133.38
0.33627,134.75
0.33236,134.94
0.3304,134.16
0.32747,132.59
0.32551,130.83
0.3216,128.68
0.31867,126.53
0.31574,123.99
0.31281,121.45
0.3089,118.71
0.30596,115.78
0.30303,112.45
0.3001,108.74
0.29717,104.82
0.29521,100.72
0.29423,96.61
0.2913,92.503
0.28837,88.983
0.28543,85.854
0.28348,83.312
0.2825,81.356
0.28641,79.987
0.29521,79.009
0.31281,78.227
0.33822,77.836
0.37146,77.445
0.41251,77.445
0.45259,77.249
0.49071,77.249
0.5347,77.249
0.57967,77.249
0.6217,77.054
0.65885,77.054
0.69013,76.858
0.71457,76.662
0.73412,76.467
0.7478,76.076
0.75367,75.489
0.75171,74.902
0.74878,74.316
0.74487,73.533
0.73803,72.947
0.73021,72.36
0.71945,71.773
0.70577,71.186
0.6911,70.6
0.67253,69.818
0.65298,69.231
0.63148,68.644
0.60997,68.253
0.58651,67.666
0.56403,67.08
0.54448,66.493
