0.39589,59.257
0.38807,58.866
0.38319,58.279
0.3783,57.888
0.37439,57.497
0.37243,56.91
0.3695,56.519
0.36755,56.323
0.36461,55.932
0.36266,55.932
0.35973,56.128
0.35777,56.715
0.35484,58.279
0.35191,61.213
0.34995,65.906
0.34702,72.164
0.34409,79.596
0.34311,87.223
0.34018,94.263
0.33724,100.91
0.33431,106.78
0.33138,111.67
0.32845,115.19
0.32454,117.54
0.3216,118.9
0.31867,119.1
0.31476,118.51
0.31183,117.14
0.3089,115.38
0.30694,113.04
0.30401,110.5
0.3001,107.56
0.29717,104.24
0.29326,100.72
0.28935,96.806
0.28641,92.894
0.2825,88.788
0.27859,85.072
0.27468,81.747
0.27175,78.814
0.27077,76.467
0.27273,74.511
0.27761,73.142
0.28935,71.969
0.3089,71.186
0.33627,70.6
0.37341,70.209
0.41642,69.818
0.46432,69.818
0.51417,69.622
0.56305,69.622
0.60899,69.622
0.64907,69.622
0.6784,69.622
0.70088,69.622
0.71945,69.426
0.73509,69.231
0.74389,69.035
0.74878,68.84
0.7478,68.644
0.74291,68.253
0.73314,67.862
0.72043,67.471
0.70381,67.08
0.68426,66.688
0.6608,66.102
0.6393,65.711
0.61779,65.319
0.59335,64.928
0.56794,64.537
0.54252,63.95
0.51906,63.559
0.49658,63.168
0.47605,62.582
0.45846,62.19
0.44282,61.604
0.42913,61.213
0.4174,60.626
0.4086,60.235
0.40176,59.648
0.39492,59.257
0.38905,58.67
0.38416,58.279
0.38025,57.888
0.37634,57.301
0.37243,56.91
0.3695,56.715
0.36657,56.519
0.36364,56.715
0.3607,57.301
0.35777,58.67
0.35484,61.408
0.35288,66.102
0.34995,72.555
0.34702,80.183
0.34409,88.005
0.34018,95.437
0.33724,102.48
0.33333,108.54
0.32942,113.62
0.32649,117.54
0.32258,120.08
0.31965,121.45
0.31672,121.84
0.31476,121.25
0.31183,120.08
0.3089,118.32
0.30499,116.17
0.30108,113.82
0.29717,111.08
0.29326,107.95
0.28935,104.63
0.28543,100.91
0.28152,97.001
0.27761,93.09
0.2737,88.983
0.27077,85.463
0.26882,82.334
0.26784,79.596
0.26882,77.445
0.2737,75.685
0.28446,74.316
0.30401,73.338
0.33333,72.751
0.37048,72.164
0.41447,71.969
0.46432,71.773
0.51515,71.773
0.55816,71.773
0.59629,71.773
0.63441,71.773
0.6696,71.773
0.69892,71.773
0.72141,71.773
0.73803,71.578
0.74878,71.382
0.75367,71.186
0.75367,70.991
0.74976,70.6
0.74096,70.209
0.72923,69.818
0.71457,69.426
0.69892,68.84
0.67937,68.449
0.65689,68.057
0.63245,67.666
0.60704,67.275
0.58162,66.884
0.55621,66.297
0.53177,65.906
0.50831,65.515
0.48778,64.928
0.46823,64.537
0.45357,63.95
0.44086,63.559
0.43011,62.973
0.41935,62.582
0.41153,61.995
0.40371,61.408
0.39785,61.017
0.39296,60.626
0.38905,60.039
0.38514,59.648
0.38221,59.257
0.37928,59.061
0.37732,58.866
0.37537,58.866
0.37341,59.648
0.37048,61.017
0.36852,63.95
0.36559,68.84
0.36364,75.293
0.3607,83.116
0.35777,91.33
0.35484,98.957
0.35191,106.19
0.34897,112.45
0.34506,117.73
0.34311,121.45
0.34115,123.99
0.3392,125.16
0.33627,125.36
0.33333,124.77
0.3304,123.4
0.32747,121.64
0.32454,119.49
0.3216,117.14
0.31867,114.41
0.31574,111.47
0.31183,108.15
0.3089,104.63
0.30694,100.91
0.30499,96.806
0.30205,92.699
0.29912,88.983
0.29619,85.658
0.29423,82.725
0.29521,80.574
0.30108,78.618
0.31378,77.249
0.33431,76.076
0.36364,75.293
0.40176,74.707
0.43891,74.316
0.47703,74.12
0.52297,74.12
0.56989,73.924
0.61486,73.924
0.65591,73.729
0.6911,73.729
0.71945,73.533
0.74096,73.533
0.75562,73.338
0.7654,72.947
0.76931,72.751
0.76833,72.36
0.76344,71.969
0.75562,71.382
0.74487,70.991
0.73118,70.404
0.71359,69.818
0.69501,69.426
0.67253,68.84
0.64907,68.449
0.62463,67.862
0.59922,67.471
0.5738,66.884
0.54936,66.493
0.52395,65.906
0.49853,65.319
0.47801,64.733
0.45943,64.342
0.44379,63.559
0.43109,62.973
0.42033,62.582
0.41153,61.995
0.40371,61.408
0.39785,60.821
0.39198,60.43
0.38807,59.844
0.38416,59.452
0.38025,59.257
0.3783,58.866
0.37439,58.67
0.37146,58.67
0.36755,59.061
0.36461,60.43
0.3607,62.973
0.35679,67.666
0.35191,74.12
0.348,81.747
0.34409,89.765
0.3392,97.588
0.33627,105.02
0.33236,111.47
0.32845,116.75
0.32454,120.86
0.31965,123.4
0.31574,124.77
0.31085,124.97
0.30694,124.19
0.30205,122.82
0.29717,121.06
0.29326,118.9
0.28837,116.36
0.28446,113.62
0.28152,110.69
0.27761,107.17
0.2737,103.65
0.26979,99.544
0.26588,95.437
0.26197,91.525
0.25806,87.614
0.25513,84.289
0.2522,81.552
0.2522,79.205
0.25709,77.249
0.26882,75.88
0.28348,74.707
0.30499,73.924
0.33529,73.338
0.37537,72.947
0.42033,72.751
0.46823,72.555
0.51613,72.555
0.56207,72.555
0.60215,72.36
0.63636,72.36
0.66373,72.36
0.68426,72.164
0.69697,71.969
0.70381,71.773
0.70674,71.578
0.70674,71.186
0.70283,70.795
0.69599,70.404
0.68524,69.818
0.67155,69.231
0.65396,68.84
0.63441,68.253
0.6129,67.862
0.58944,67.275
0.565,66.884
0.54252,66.297
0.52102,65.906
0.49853,65.515
0.47703,64.928
0.4565,64.537
0.43695,64.146
0.42033,63.559
0.40567,62.973
0.39296,62.386
0.38319,61.995
0.37439,61.408
0.36657,60.821
0.36168,60.43
0.35777,59.844
0.35386,59.452
0.34995,59.061
0.34702,58.475
0.34409,58.279
0.34115,57.888
0.33822,57.888
0.33431,58.083
0.33138,58.67
0.32845,60.039
0.32454,63.168
0.3216,68.057
0.31867,74.707
0.31672,82.138
0.31378,89.961
0.30987,97.393
0.30596,104.24
0.30303,110.3
0.29912,114.99
0.29521,118.51
0.2913,120.86
0.28837,121.84
0.28446,121.84
0.28055,121.06
0.27859,119.49
0.27664,117.54
0.2737,115.19
0.26979,112.45
0.26686,109.32
0.26295,106
0.25904,102.48
0.25513,98.566
0.2522,94.459
0.24829,90.352
0.24536,86.441
0.24145,82.921
0.23851,79.987
0.23851,77.64
0.23949,75.685
0.24438,74.12
0.25513,72.947
0.2737,72.164
0.3001,71.578
0.33431,71.186
0.37634,70.991
0.42229,70.991
0.47116,70.991
0.51808,70.991
0.56207,70.795
0.59629,70.795
0.62268,70.795
0.64712,70.795
0.66764,70.6
0.68231,70.6
0.6911,70.404
0.69501,70.013
0.69501,69.818
0.68915,69.426
0.68035,69.035
0.66764,68.449
0.65103,68.057
0.63245,67.471
0.6129,67.08
0.59335,66.688
0.57087,66.102
0.54643,65.711
0.52102,65.319
0.49658,64.733
0.4741,64.342
0.45161,63.95
0.43206,63.364
0.41544,62.973
0.3998,62.582
0.3871,61.995
0.3783,61.408
0.37048,60.821
0.36364,60.43
0.35777,59.844
0.35288,59.452
0.348,58.866
0.34409,58.475
0.34115,58.083
0.33822,57.692
0.33529,57.301
0.33236,57.106
0.3304,57.106
0.32747,57.497
0.32551,58.475
0.32356,60.43
0.3216,63.755
0.31867,69.035
0.31574,75.685
0.31281,82.921
0.3089,90.352
0.30596,97.197
0.30303,103.46
0.29912,108.93
0.29619,113.04
0.29326,116.17
0.2913,117.93
0.28935,118.51
0.28641,118.32
0.28348,117.14
0.27957,115.58
0.27664,113.43
0.27273,111.08
0.26882,108.15
0.26491,105.02
0.26197,101.5
0.25806,97.784
0.25415,93.677
0.25122,89.765
0.24927,85.854
0.24731,82.529
0.24438,79.791
0.24242,77.249
0.24145,75.098
0.2434,73.533
0.24927,72.36
0.26295,71.382
0.28348,70.795
0.31281,70.404
0.34995,70.013
0.39296,69.818
0.43206,69.622
0.47019,69.622
0.51222,69.426
0.55327,69.426
0.59042,69.426
0.62268,69.426
0.64809,69.426
0.66667,69.426
0.68035,69.231
0.68719,69.035
0.68915,68.84
0.68622,68.449
0.67937,68.057
0.6696,67.666
0.65689,67.275
0.64125,66.884
0.6217,66.297
0.6002,65.906
0.57674,65.515
0.55327,65.124
0.52884,64.733
0.5044,64.342
0.48094,63.755
0.45943,63.364
0.43988,62.973
0.42424,62.386
0.41153,61.995
0.39883,61.408
0.3871,61.017
0.37732,60.43
0.36852,59.844
0.36168,59.452
0.35484,58.866
0.34995,58.475
0.34604,58.083
0.34213,57.497
0.3392,57.106
0.33724,56.715
0.33529,56.519
0.33333,56.323
0.33138,56.519
0.32942,57.106
0.32747,58.67
0.32454,61.408
0.32649,66.102
0.3304,72.36
0.3304,79.791
0.32845,87.419
0.32649,94.85
0.32356,101.5
0.32063,107.56
0.31965,112.45
0.31672,116.17
0.31476,118.51
0.31183,119.69
0.30792,119.88
0.30499,119.3
0.30108,117.93
0.29717,115.97
0.29326,113.62
0.28935,111.08
0.28641,108.15
0.28348,104.82
0.28152,101.11
0.27859,97.197
0.27468,93.286
0.27175,89.179
0.26784,85.463
0.26393,82.138
0.261,79.205
0.25806,76.858
0.25904,75.098
0.26393,73.533
0.27566,72.555
0.29619,71.773
0.31965,71.186
0.34897,70.991
0.38807,70.795
0.43402,70.795
0.48485,70.795
0.53568,70.795
0.58358,70.991
0.62757,71.186
0.66471,71.186
0.69501,71.186
0.71848,71.186
0.73509,71.186
0.74389,70.991
0.74682,70.795
0.74682,70.404
0.74194,70.013
0.73412,69.622
0.72239,69.231
0.70577,68.84
0.68719,68.449
0.66471,68.057
0.64027,67.666
0.61486,67.275
0.58749,66.884
0.56109,66.493
0.53763,65.906
0.51711,65.515
0.4956,65.124
0.47605,64.733
0.45748,64.342
0.44184,63.755
0.42815,63.168
0.41642,62.777
0.40665,62.386
0.39785,61.799
0.39198,61.408
0.38612,61.017
0.38319,60.626
0.38025,60.039
0.37732,59.648
0.37537,59.257
0.37341,59.061
0.37146,59.061
0.3695,59.257
0.36755,59.844
0.36461,61.408
0.36266,64.537
0.3607,69.622
0.35777,76.467
0.35484,84.094
0.35288,91.917
0.35191,99.348
0.34897,106
0.34702,112.06
0.34409,116.95
0.34115,120.47
0.33822,122.62
0.33529,123.79
0.33236,123.79
0.32942,123.01
0.32649,121.64
0.32356,119.69
0.3216,117.54
0.31965,115.19
0.31769,112.45
0.31574,109.32
0.31281,106
0.31085,102.28
0.30792,98.175
0.30499,94.263
0.30205,90.352
0.29912,87.027
0.29717,84.094
0.29619,81.552
0.29912,79.4
0.30499,77.836
0.31476,76.467
0.33333,75.685
0.3607,75.098
0.39589,74.707
0.43891,74.511
0.4868,74.316
0.53763,74.316
0.58749,74.316
0.63343,74.316
0.67449,74.12
0.70968,74.12
0.73412,73.924
0.75171,73.729
0.7654,73.338
0.77517,72.947
0.78104,72.36
0.78104,71.969
0.77713,71.578
0.76931,70.991
0.75855,70.6
0.74389,70.013
0.72532,69.426
0.70479,69.035
0.68133,68.644
0.65982,68.253
0.63734,67.666
0.61388,67.471
0.58944,66.884
0.565,66.297
0.54252,65.906
0.52199,65.319
0.50342,64.733
0.48778,64.342
0.47312,63.755
0.46139,63.168
0.45064,62.582
0.44282,61.995
0.43695,61.408
0.43109,60.821
0.4262,60.43
0.42229,60.039
0.41838,59.452
0.41447,59.061
0.41056,58.67
0.40665,58.475
0.40274,58.67
0.39883,59.452
0.39492,61.213
0.39003,64.733
0.38612,70.404
0.38319,77.445
0.37928,85.658
0.37537,93.677
0.37146,101.5
0.36657,108.74
0.36266,114.8
0.35777,119.88
0.35386,123.21
0.34897,125.36
0.34409,126.34
0.3392,126.14
0.33529,125.16
0.33236,123.79
0.32747,121.84
0.32258,119.49
0.31769,116.95
0.31281,114.21
0.30792,110.89
0.30303,107.56
0.29814,103.85
0.29326,99.935
0.28837,95.828
0.28348,91.721
0.27859,87.81
0.27566,84.485
0.27468,81.552
0.27468,79.4
0.27859,77.445
0.29032,76.076
0.30987,75.098
0.33822,74.12
0.37634,73.533
0.42131,73.338
0.47116,73.142
0.52199,73.142
0.57283,72.947
0.6129,72.947
0.64614,72.947
0.6784,72.751
0.70577,72.751
0.72727,72.555
0.74291,72.36
0.75269,72.164
0.7566,71.969
0.75562,71.578
0.75073,70.991
0.74291,70.6
0.73021,70.013
0.71457,69.426
0.69795,69.035
0.68035,68.449
0.65885,68.057
0.63441,67.471
0.60802,67.08
0.58162,66.688
0.55523,66.102
0.52884,65.711
0.5044,65.124
0.48192,64.733
0.46237,64.146
0.44477,63.755
0.43109,63.168
0.42033,62.582
0.40958,61.995
0.3998,61.408
0.39198,61.017
0.38612,60.43
0.38025,60.039
0.37537,59.648
0.37146,59.061
0.36755,58.67
0.36461,58.279
0.3607,58.083
0.35875,58.083
0.35679,58.475
0.35386,59.452
0.35093,61.408
0.34702,65.319
0.34311,70.991
0.3392,78.227
0.33529,86.05
0.33138,94.068
0.32747,101.3
0.32356,108.15
0.31965,113.82
0.31574,118.12
0.31281,121.06
0.31085,122.82
0.30792,123.6
0.30401,123.21
0.3001,122.03
0.29717,120.47
0.29326,118.32
0.28935,115.78
0.28543,113.23
0.28152,110.1
0.27761,106.78
0.2737,103.26
0.27175,99.348
0.26784,95.241
0.26197,91.134
0.25806,87.223
0.25415,83.703
0.25122,80.769
0.24927,78.422
0.25122,76.467
0.25709,74.902
0.27077,73.729
0.29228,72.947
0.32258,72.36
0.3607,71.969
0.39883,71.773
0.43695,71.578
0.48094,71.382
0.52688,71.382
0.56989,71.382
0.60802,71.382
0.64125,71.382
0.66667,71.186
0.68622,71.186
0.69892,70.991
0.70674,70.795
0.7087,70.6
0.70674,70.209
0.70186,69.818
0.69306,69.426
0.68035,68.84
0.66569,68.449
0.64809,67.862
0.62757,67.471
0.60411,66.884
0.58065,66.493
0.55523,65.906
0.52981,65.515
0.50538,65.124
0.48289,64.537
0.46334,64.146
0.44673,63.755
0.43011,63.168
0.41544,62.777
0.40176,62.19
0.39003,61.604
0.38025,61.213
0.37243,60.626
0.36559,60.039
0.35973,59.648
0.35484,59.257
0.35093,58.67
0.348,58.279
0.34604,57.888
0.34409,57.497
0.34115,57.497
0.3392,57.497
0.33627,57.888
0.33333,59.061
0.33138,61.213
0.32845,65.319
0.32551,71.186
0.3216,78.227
0.31867,85.854
0.31574,93.481
0.31281,100.52
0.31085,106.78
0.3089,112.06
0.30596,116.36
0.30205,119.3
0.29912,120.86
0.29619,121.45
0.29228,121.06
0.28935,119.88
0.28543,118.12
0.2825,115.97
0.27859,113.43
0.27664,110.69
0.27468,107.56
0.27175,104.24
0.26882,100.33
0.26588,96.415
0.26197,92.112
0.25904,88.201
0.25611,84.485
0.2522,81.356
0.25024,78.814
0.24927,76.662
0.2522,74.902
0.26002,73.533
0.27273,72.555
0.29032,71.773
0.31672,71.382
0.35191,70.991
0.39394,70.795
0.43988,70.6
0.48778,70.6
0.5347,70.6
0.57771,70.6
0.61584,70.404
0.64712,70.404
0.67253,70.404
0.68817,70.209
0.69795,70.013
0.70479,69.818
0.70772,69.426
0.70674,69.231
0.70088,68.84
0.69208,68.449
0.67937,67.862
0.66276,67.471
0.64321,67.08
0.6217,66.688
0.59824,66.102
0.5738,65.711
0.55132,65.319
0.53079,64.928
0.50831,64.342
0.48583,63.95
0.4653,63.559
0.44575,62.973
0.42913,62.582
0.41447,61.995
0.40078,61.408
0.39003,61.017
0.38123,60.43
0.37341,60.039
0.36755,59.452
0.36364,59.061
0.35875,58.475
0.35582,58.083
0.35191,57.692
0.34897,57.301
0.34604,56.91
0.34409,56.91
0.34115,57.106
0.3392,57.888
0.33627,59.452
0.33333,62.386
0.3304,67.471
0.32747,73.924
0.32551,81.552
0.32356,89.179
0.32063,96.61
0.31769,103.46
0.31476,109.32
0.31183,114.21
0.3089,117.73
0.30499,120.08
0.30205,121.06
0.29912,121.06
0.29619,120.27
0.29326,118.9
0.2913,116.95
0.28837,114.8
0.28543,112.26
0.2825,109.52
0.27859,106.19
0.27468,102.67
0.27175,98.761
0.26784,94.85
0.26491,90.743
0.261,87.027
0.25806,83.507
0.25513,80.574
0.25318,78.227
0.25415,76.271
0.25806,74.707
0.26686,73.533
0.2825,72.751
0.30694,72.164
0.34018,71.773
0.38025,71.578
0.4262,71.382
0.4741,71.382
0.52199,71.382
0.56794,71.382
0.60411,71.382
0.63245,71.382
0.65982,71.382
0.68231,71.382
0.69892,71.382
0.71065,71.186
0.71652,70.991
0.7175,70.795
0.71457,70.404
0.70772,70.013
0.69599,69.622
0.68133,69.231
0.66276,68.84
0.64516,68.253
0.62561,67.862
0.60313,67.471
0.57967,67.08
0.55523,66.688
0.52981,66.297
0.50635,65.906
0.48387,65.515
0.46334,64.928
0.44575,64.537
0.43011,64.146
0.41642,63.559
0.40567,63.168
0.39687,62.582
0.39003,62.19
0.38319,61.799
0.37732,61.408
0.37243,60.821
0.36852,60.43
0.36461,59.844
0.36168,59.452
0.35973,59.257
0.35777,59.061
0.35484,59.257
0.35386,59.844
0.35191,61.408
0.34995,64.342
0.348,69.231
0.34506,76.076
0.34311,83.898
0.34018,91.917
0.33822,99.544
0.33529,106.78
0.33236,113.04
0.3304,118.12
0.32747,122.03
0.32551,124.58
0.32356,125.75
0.3216,125.75
0.31965,125.16
0.31769,123.79
0.31476,122.03
0.31281,119.88
0.30987,117.54
0.30792,114.8
0.30499,111.86
0.30303,108.74
0.3001,105.22
0.29814,101.3
0.29619,97.393
0.29423,93.286
0.29228,89.57
0.29032,86.245
0.28837,83.507
0.28837,81.16
0.29326,79.4
0.30205,78.031
0.31965,76.858
0.34409,76.076
0.3783,75.685
0.41838,75.293
0.4653,75.098
0.50733,74.902
0.54643,74.902
0.58847,74.902
0.62854,74.902
0.66471,74.902
0.69599,74.707
0.71945,74.707
0.73705,74.316
0.74878,73.924
0.75464,73.533
0.7566,73.142
0.75367,72.555
0.7478,71.969
0.73803,71.382
0.7263,70.795
0.71163,70.209
0.69404,69.622
0.67351,69.035
0.652,68.644
0.62854,68.253
0.60411,67.666
0.58065,67.275
0.55718,66.884
0.5347,66.493
0.51417,65.906
0.49756,65.515
0.48289,64.928
0.46921,64.537
0.4565,63.95
0.44575,63.364
0.43597,62.777
0.42815,62.19
0.42131,61.604
0.41544,61.017
0.41056,60.626
0.40567,60.039
0.40176,59.648
0.39883,59.257
0.39589,59.061
0.39296,59.061
0.38905,59.452
0.38514,60.626
0.38221,63.364
0.3783,67.862
0.37341,74.511
0.3695,82.334
0.36461,90.743
0.3607,98.761
0.35582,106.19
0.35191,112.84
0.348,118.32
0.34506,122.43
0.34213,125.16
0.33822,126.73
0.33431,126.92
0.3304,126.34
0.32551,125.16
0.3216,123.4
0.31672,121.25
0.31281,118.9
0.30792,116.36
0.30303,113.23
0.3001,110.1
0.29717,106.39
0.29326,102.67
0.28935,98.566
0.28446,94.459
0.28055,90.352
0.27566,86.832
0.27175,83.703
0.26979,81.16
0.27175,79.009
0.27859,77.249
0.29326,75.88
0.31672,75.098
0.34311,74.316
0.37341,73.924
0.41349,73.533
0.45943,73.338
0.50635,73.142
0.55327,73.142
0.59531,73.142
0.63245,72.947
0.66276,72.947
0.68622,72.751
0.70283,72.555
0.71457,72.36
0.71945,71.969
0.72043,71.773
0.7175,71.382
0.71261,70.795
0.70381,70.404
0.69208,69.818
0.67742,69.231
0.65982,68.84
0.6393,68.253
0.61779,67.862
0.59335,67.471
0.56891,66.884
0.5435,66.493
0.52199,65.906
0.50244,65.515
0.48192,65.124
0.46139,64.537
0.44282,64.146
0.42717,63.559
0.41251,62.973
0.3998,62.386
0.38905,61.799
0.38025,61.408
0.37341,60.821
0.36657,60.235
0.36266,59.844
0.35875,59.452
0.35484,58.866
0.35191,58.475
0.34897,58.279
0.34604,58.083
0.34213,58.083
0.3392,58.67
0.33627,60.039
0.33333,62.777
0.32942,67.471
0.32649,74.12
0.32258,81.747
0.32063,89.961
0.31769,97.784
0.31476,105.02
0.31183,111.47
0.30792,116.56
0.30499,120.47
0.30205,123.01
0.29814,124.19
0.29521,124.38
0.2913,123.6
0.28837,122.43
0.28446,120.47
0.2825,118.12
0.27957,115.78
0.27664,112.84
0.2737,109.71
0.27077,106.39
0.26686,102.67
0.26393,98.566
0.26002,94.459
0.25709,90.352
0.25318,86.636
0.25024,83.312
0.24731,80.378
0.24731,78.031
0.25024,76.076
0.25709,74.707
0.27077,73.533
0.29228,72.751
0.3216,72.36
0.35973,71.969
0.40469,71.773
0.45259,71.578
0.50049,71.578
0.54741,71.382
0.58944,71.382
0.62561,71.382
0.652,71.186
0.67155,71.186
0.68719,70.991
0.69892,70.795
0.70674,70.6
0.7087,70.209
0.70674,69.818
0.70088,69.426
0.6911,69.035
0.6784,68.449
0.66276,67.862
0.64418,67.471
0.62463,66.884
0.60508,66.493
0.5826,65.906
0.55914,65.515
0.53372,65.124
0.50929,64.733
0.48583,64.342
0.46432,63.755
0.44477,63.168
0.42717,62.777
0.41153,62.19
0.39785,61.799
0.3871,61.213
0.3783,60.821
0.37243,60.235
0.36559,59.844
0.3607,59.257
0.35582,58.866
0.35191,58.279
0.348,57.888
0.34506,57.497
0.34213,57.301
0.3392,57.106
0.33627,57.301
0.33333,57.888
0.3304,59.257
0.32942,61.995
0.32649,66.493
0.32356,72.751
0.32063,80.183
0.31769,87.81
0.31476,95.241
0.31085,102.09
0.30792,107.95
0.30401,112.84
0.3001,116.56
0.29717,118.9
0.29423,120.08
0.2913,120.27
0.28935,119.49
0.28739,118.12
0.28446,116.17
0.28152,113.82
0.27761,111.28
0.27468,108.34
0.27175,105.22
0.26784,101.5
0.26491,97.588
0.26197,93.677
0.25806,89.57
0.25611,85.854
0.25415,82.529
0.2522,79.596
0.24927,77.054
0.24829,75.098
0.25122,73.533
0.25806,72.555
0.27175,71.578
0.29423,70.991
0.32454,70.6
0.36168,70.209
0.40567,70.013
0.45259,70.013
0.49365,69.818
0.52981,69.818
0.56891,69.818
0.60411,69.818
0.63539,69.818
0.65982,69.622
0.6784,69.426
0.6911,69.231
0.69795,69.035
0.6999,68.84
0.69795,68.449
0.6911,68.057
0.68133,67.471
0.6696,67.08
0.65396,66.688
0.63539,66.297
0.61388,65.906
0.5914,65.319
0.56696,64.928
0.54252,64.537
0.51808,63.95
0.49462,63.559
0.47312,63.168
0.45259,62.777
0.435,62.19
0.42131,61.604
0.40958,61.213
0.39785,60.626
0.38807,60.039
0.38025,59.648
0.37243,59.257
0.36657,58.67
0.36168,58.279
0.35777,57.888
0.35386,57.301
0.35093,56.91
0.348,56.715
0.34604,56.519
0.34409,56.323
0.34213,56.715
0.34018,57.497
0.33822,59.452
0.33529,62.973
0.33333,68.449
0.3304,75.489
0.32747,82.921
0.32356,90.548
0.32063,97.784
0.31769,104.24
0.31476,109.91
0.31281,114.21
0.31085,117.34
0.3089,119.49
0.30596,120.27
0.30303,120.08
0.3001,119.1
0.29717,117.54
0.29423,115.58
0.2913,113.23
0.28739,110.5
0.28446,107.56
0.28055,104.24
0.27859,100.52
0.27664,96.61
0.2737,92.503
0.27077,88.592
0.26784,84.876
0.26491,81.552
0.26197,78.814
0.26002,76.662
0.26002,74.707
0.26491,73.338
0.27468,72.36
0.29228,71.578
0.31867,70.991
0.34702,70.6
0.3783,70.404
0.41838,70.404
0.46334,70.404
0.50929,70.404
0.55425,70.404
0.59433,70.404
0.62854,70.404
0.65591,70.404
0.6784,70.404
0.69404,70.209
0.70381,70.013
0.70772,69.622
0.70674,69.426
0.70381,69.035
0.69697,68.644
0.68622,68.253
0.67253,67.666
0.65591,67.471
0.63636,67.08
0.61388,66.493
0.5914,66.102
0.56696,65.711
0.54252,65.319
0.51906,64.928
0.49853,64.537
0.48094,64.146
0.46237,63.755
0.44575,63.168
0.43011,62.777
0.4174,62.386
0.40567,61.799
0.39589,61.408
0.38807,61.017
0.38123,60.626
0.37537,60.039
0.37146,59.844
0.36755,59.257
0.36559,58.866
0.36266,58.475
0.3607,58.279
0.35875,58.279
0.35582,58.279
0.35386,59.061
0.35093,60.626
0.348,63.755
0.34604,68.84
0.34311,75.685
0.34018,83.312
0.33724,90.939
0.33529,98.37
0.33431,105.22
0.33236,111.08
0.32942,115.97
0.32747,119.49
0.32454,121.64
0.32258,122.62
0.31965,122.62
0.31769,121.84
0.31476,120.47
0.31281,118.51
0.30987,116.36
0.3089,113.82
0.30694,111.08
0.30499,108.15
0.30303,104.63
0.3001,101.11
0.29814,97.001
0.29521,93.09
0.29326,89.179
0.29032,85.658
0.28739,82.725
0.28641,80.183
0.28739,78.031
0.2913,76.467
0.29912,75.293
0.31183,74.511
0.33236,73.924
0.3607,73.533
0.39785,73.338
0.43988,73.338
0.48485,73.142
0.53177,73.142
0.57576,73.142
0.61584,73.142
0.65005,72.947
0.6784,72.751
0.69795,72.555
0.71163,72.36
0.72141,71.969
0.72825,71.382
0.73021,70.991
0.72923,70.404
0.72336,69.818
0.71457,69.035
0.70283,68.449
0.68817,67.862
0.67058,67.275
0.65005,66.884
0.6305,66.297
0.61095,65.906
0.58944,65.319
0.56696,64.928
0.54448,64.537
0.52297,64.146
0.50342,63.559
0.48583,63.168
0.47019,62.777
0.4565,62.386
0.44477,61.799
0.435,61.408
0.42717,61.017
0.42131,60.43
0.41642,60.039
0.41153,59.648
0.40665,59.257
0.40274,58.67
0.39785,58.279
0.39394,58.083
0.39101,57.888
0.3871,57.888
0.38319,58.279
0.37928,59.452
0.37439,61.995
0.37048,66.493
0.36755,72.751
0.36364,80.378
0.35973,88.592
0.35484,96.415
0.34995,103.65
0.34604,110.1
0.34115,115.38
0.33724,119.49
0.33333,122.23
0.32845,123.6
0.32454,123.99
0.32063,123.21
0.31769,122.03
0.31476,120.27
0.31183,118.12
0.30792,115.78
0.30401,113.04
0.29912,110.1
0.29521,106.98
0.2913,103.26
0.28739,99.544
0.28446,95.437
0.28055,91.33
0.27566,87.419
0.27273,84.094
0.27077,81.16
0.26882,78.814
0.26979,76.858
0.27468,75.293
0.28446,74.12
0.30303,73.338
0.3304,72.751
0.36461,72.36
0.40567,72.164
0.45161,72.164
0.49853,72.164
0.5435,72.164
0.57967,71.969
0.60997,71.969
0.63832,71.773
0.66276,71.773
0.68133,71.578
0.69501,71.186
0.70381,70.795
0.70772,70.6
0.70674,70.013
0.70283,69.622
0.69404,69.035
0.68328,68.644
0.67058,68.057
0.65591,67.666
0.63832,67.08
0.61779,66.688
0.59531,66.297
0.57185,65.711
0.54839,65.319
0.52493,64.928
0.50147,64.537
0.47996,63.95
0.46041,63.364
0.44282,62.973
0.42815,62.386
0.41642,61.799
0.40665,61.408
0.39785,60.821
0.39003,60.43
0.38319,59.844
0.3783,59.452
0.37341,58.866
0.36852,58.475
0.36559,58.083
0.36168,57.692
0.35875,57.301
0.35582,57.106
0.35288,57.106
0.35093,57.692
0.348,59.061
0.34506,61.799
0.34213,66.688
0.3392,73.142
0.33529,80.574
0.33236,88.396
0.32747,96.024
0.3216,103.06
0.31769,109.13
0.31281,114.21
0.30987,117.93
0.30694,120.47
0.30499,121.64
0.30205,121.84
0.29814,121.06
0.29521,119.88
0.2913,117.93
0.28837,115.78
0.28446,113.23
0.28055,110.5
0.27761,107.56
0.2737,104.04
0.27077,100.33
0.26882,96.219
0.26686,92.112
0.26393,88.201
0.261,84.485
0.25806,81.356
0.25513,78.618
0.25318,76.467
0.25513,74.707
0.26197,73.533
0.27566,72.36
0.29717,71.773
0.32747,71.186
0.36559,70.795
0.40371,70.6
0.44282,70.404
0.4868,70.404
0.53275,70.209
0.57674,70.209
0.61584,70.209
0.64809,70.209
0.67449,70.013
0.69404,69.818
0.70772,69.622
0.71457,69.426
0.7175,69.035
0.71554,68.84
0.70968,68.253
0.70186,67.862
0.69013,67.471
0.67449,66.884
0.65689,66.493
0.63636,66.102
0.61388,65.515
0.58944,65.124
0.56403,64.733
0.53861,64.342
0.5132,63.755
0.48974,63.364
0.47019,62.973
0.45357,62.386
0.43695,61.995
0.42131,61.408
0.40762,60.821
0.39589,60.43
0.38612,59.844
0.37732,59.452
0.37048,58.866
0.36364,58.475
0.35875,57.888
0.35484,57.497
0.35191,56.91
0.34897,56.715
0.34702,56.519
0.34409,56.323
0.34115,56.519
0.33822,57.301
0.33529,58.866
0.33236,62.19
0.32845,67.275
0.32551,73.729
0.3216,81.16
0.31867,88.788
0.31574,96.024
0.31281,102.48
0.31085,108.15
0.30792,112.65
0.30499,115.97
0.30205,118.12
0.29912,119.1
0.29521,118.9
0.29228,117.93
0.28837,116.36
0.28543,114.41
0.28152,112.06
0.27859,109.52
0.27566,106.39
0.2737,103.06
0.27077,99.544
0.26784,95.632
0.26491,91.525
0.26197,87.614
0.25806,84.094
0.25513,80.769
0.25122,78.031
0.24927,75.88
0.24829,73.924
0.2522,72.555
0.25904,71.578
0.27077,70.795
0.2913,70.209
0.31965,69.818
0.35679,69.622
0.3998,69.426
0.44673,69.231
0.4956,69.231
0.54154,69.231
0.58358,69.035
0.62072,69.035
0.65103,69.035
0.67449,68.84
0.69013,68.84
0.69892,68.644
0.70479,68.253
0.70674,67.862
0.70381,67.471
0.69795,67.275
0.68817,66.688
0.67449,66.297
0.65689,65.906
0.63734,65.319
0.61584,64.928
0.59238,64.537
0.56989,64.146
0.54936,63.755
0.5259,63.364
0.50342,62.973
0.48094,62.386
0.46041,61.995
0.44184,61.408
0.42522,61.017
0.41056,60.43
0.39785,60.039
0.38807,59.452
0.37928,59.061
0.37146,58.475
0.36657,58.083
0.36266,57.497
0.35875,57.106
0.35484,56.715
0.35191,56.323
0.34897,56.128
0.34604,55.932
0.34311,56.128
0.34018,56.715
0.33724,58.279
0.33431,61.213
0.33138,65.906
0.32942,72.36
0.32747,79.596
0.32454,87.027
0.3216,94.068
0.31867,100.72
0.31574,106.39
0.31183,111.08
0.3089,114.6
0.30596,116.95
0.30303,117.93
0.29912,118.12
0.29619,117.54
0.29326,116.17
0.29032,114.21
0.28837,112.06
0.28543,109.52
0.2825,106.58
0.27957,103.46
0.27566,99.739
0.27273,96.024
0.26882,91.917
0.26491,87.81
0.26197,84.094
0.25806,80.769
0.25513,78.031
0.25318,75.489
0.25318,73.729
0.25513,72.164
0.261,70.991
0.27273,70.209
0.29228,69.622
0.31965,69.231
0.35582,69.035
0.39883,68.84
0.44477,68.84
0.49267,68.84
0.53959,68.644
0.58162,68.644
0.61486,68.644
0.64027,68.644
0.66373,68.644
0.68328,68.449
0.69697,68.253
0.70577,68.057
0.70968,67.666
0.70772,67.471
0.70283,67.08
0.69306,66.688
0.68035,66.102
0.66373,65.906
0.64614,65.319
0.62757,64.928
0.60606,64.537
0.58162,64.146
0.55718,63.755
0.53177,63.168
0.50831,62.777
0.48485,62.386
0.46334,61.995
0.44477,61.408
0.42717,61.017
0.41251,60.43
0.3998,59.844
0.39101,59.452
0.38319,59.061
0.37634,58.475
0.3695,58.083
0.36461,57.692
0.35973,57.106
0.35582,56.715
0.35191,56.323
0.34897,56.128
0.34604,55.932
0.34311,56.128
0.34115,56.91
0.3392,58.475
0.33724,61.604
0.33431,66.493
0.33236,73.142
0.32845,80.769
0.32551,88.396
0.32258,95.437
0.31867,102.09
0.31574,107.95
0.31281,112.84
0.30987,116.36
0.30694,118.71
0.30303,119.88
0.30108,119.88
0.29912,119.3
0.29619,117.93
0.29326,115.97
0.29032,113.82
0.28641,111.28
0.2825,108.34
0.27859,105.22
0.27566,101.69
0.27175,97.784
0.26784,93.872
0.26491,89.765
0.26197,85.854
0.26002,82.334
0.25806,79.4
0.25709,76.858
0.25611,74.902
0.25806,73.338
0.26491,71.969
0.27859,70.991
0.3001,70.404
0.33138,69.818
0.37048,69.622
0.41642,69.426
0.4653,69.231
0.50929,69.231
0.54839,69.231
0.59042,69.231
0.62854,69.231
0.66276,69.231
0.6911,69.231
0.71163,69.035
0.7263,68.84
0.73607,68.644
0.739,68.253
0.73803,68.057
0.73216,67.666
0.72336,67.275
0.71163,66.688
0.69697,66.297
0.6784,65.906
0.65689,65.515
0.63343,64.928
0.60802,64.537
0.58162,64.146
0.55621,63.755
0.53079,63.168
0.50635,62.777
0.48387,62.19
0.46334,61.799
0.44673,61.213
0.43304,60.821
0.42033,60.235
0.4086,59.844
0.39785,59.257
0.38905,58.866
0.38123,58.279
0.37537,57.888
0.3695,57.301
0.36461,56.91
0.3607,56.519
0.35679,56.128
0.35386,56.128
0.35191,56.128
0.34995,56.715
0.34702,58.279
0.34409,61.017
0.34115,65.711
0.33822,72.164
0.33431,79.791
0.33138,87.419
0.32747,95.046
0.32356,101.89
0.31965,108.15
0.31672,113.23
0.31378,117.14
0.31183,119.69
0.3089,121.06
0.30596,121.45
0.30205,120.86
0.29814,119.49
0.29423,117.73
0.2913,115.38
0.28739,113.04
0.28348,110.1
0.27957,106.98
0.27566,103.65
0.27273,99.935
0.27077,96.024
0.26784,91.917
0.26393,88.005
0.26002,84.485
0.25611,81.356
0.25318,78.618
0.25122,76.467
0.2522,74.707
0.25806,73.533
0.27077,72.36
0.29228,71.773
0.31672,71.186
0.34702,70.795
0.3871,70.6
0.43304,70.6
0.48192,70.404
0.53177,70.404
0.57771,70.6
0.61975,70.6
0.65494,70.6
0.68426,70.404
0.70674,70.404
0.72239,70.209
0.73216,70.013
0.73607,69.818
0.73607,69.426
0.73216,69.035
0.72434,68.644
0.71359,68.253
0.69892,67.862
0.68133,67.471
0.66178,67.08
0.6393,66.493
0.61486,66.102
0.58944,65.711
0.56403,65.319
0.54154,64.928
0.52102,64.537
0.50049,64.146
0.47996,63.559
0.46139,62.973
0.44575,62.582
0.43109,61.995
0.41838,61.604
0.40762,61.017
0.39883,60.626
0.39198,60.039
0.38514,59.648
0.38025,59.257
0.37634,58.67
0.37341,58.279
0.37048,58.083
0.36852,57.888
0.36559,57.888
0.36364,58.279
0.3607,59.648
0.35875,62.386
0.35582,67.08
0.35288,73.533
0.34995,81.16
0.34702,89.374
0.34506,97.001
0.34311,104.24
0.34115,110.69
0.33822,116.17
0.33529,120.08
0.33236,122.82
0.32942,124.38
0.32649,124.58
0.32356,123.99
0.32063,122.43
0.31769,120.67
0.31476,118.51
0.31183,115.97
0.30987,113.23
0.30792,110.3
0.30596,106.98
0.30303,103.26
0.3001,99.348
0.29717,95.437
0.29326,91.33
0.29032,87.614
0.28739,84.289
0.28446,81.552
0.2825,79.205
0.28446,77.054
0.28935,75.685
0.29912,74.511
0.31672,73.729
0.34213,73.142
0.37634,72.555
0.41838,72.36
0.46432,72.164
0.5132,71.969
0.56207,71.969
0.60704,71.969
0.64712,71.773
0.68133,71.773
0.7087,71.578
0.72727,71.578
0.739,71.186
0.7478,70.991
0.75269,70.795
0.75367,70.404
0.75073,70.013
0.74389,69.426
0.73412,69.035
0.72043,68.644
0.70381,68.057
0.68426,67.666
0.66276,67.08
0.64125,66.688
0.62072,66.102
0.59726,65.711
0.5738,65.124
0.54936,64.733
0.52688,64.146
0.50635,63.559
0.4868,62.973
0.47019,62.582
0.45552,61.995
0.44379,61.408
0.43304,60.821
0.42424,60.235
0.4174,59.844
0.41251,59.257
0.40665,58.67
0.40176,58.279
0.39785,57.888
0.39394,57.497
0.39003,57.301
0.38612,57.301
0.38221,57.497
0.37928,58.475
0.37537,60.821
0.37146,64.733
0.36852,70.6
0.36559,78.031
0.36266,85.854
0.35875,93.677
0.35484,101.11
0.34995,107.76
0.34506,113.43
0.34115,117.93
0.33627,121.06
0.33236,122.82
0.32747,123.4
0.32356,123.01
0.31867,121.64
0.31476,119.88
0.31183,117.73
0.30792,114.99
0.30401,112.26
0.29912,109.13
0.29423,105.61
0.28935,102.09
0.28543,97.979
0.28055,93.872
0.27664,89.765
0.27175,86.05
0.26784,82.529
0.26491,79.596
0.26295,77.054
0.26197,75.098
0.26491,73.533
0.27175,72.36
0.28641,71.578
0.3089,70.795
0.34018,70.404
0.37928,70.209
0.42424,70.013
0.47214,69.818
0.51906,69.818
0.56403,69.818
0.6002,69.818
0.62854,69.818
0.65591,69.818
0.6784,69.818
0.69599,69.622
0.70772,69.426
0.71457,69.035
0.71652,68.84
0.71163,68.449
0.70283,67.862
0.6911,67.471
0.67644,67.08
0.66178,66.688
0.64516,66.297
0.62561,65.906
0.60411,65.319
0.58065,64.928
0.55621,64.537
0.53177,63.95
0.50831,63.559
0.48583,62.973
0.4653,62.582
0.44673,61.995
0.43011,61.408
0.41544,61.017
0.40371,60.43
0.39492,59.844
0.3871,59.452
0.37928,58.866
0.37243,58.279
0.36755,57.888
0.36266,57.497
0.35875,56.91
0.35484,56.715
0.35191,56.323
0.34897,56.128
0.34604,56.323
0.34409,56.715
0.34213,57.692
0.3392,60.039
0.33627,64.146
0.33333,70.013
0.3304,77.249
0.32649,84.681
0.32356,92.112
0.31965,99.153
0.31672,105.41
0.31281,110.89
0.3089,114.99
0.30596,117.73
0.30303,119.3
0.30108,119.69
0.29814,119.1
0.29521,117.73
0.2913,115.78
0.28837,113.43
0.28446,110.5
0.28055,107.56
0.27664,104.04
0.27273,100.33
0.26882,96.415
0.26588,92.308
0.26295,88.201
0.261,84.289
0.25904,80.965
0.25513,78.031
0.2522,75.489
0.24927,73.338
0.24927,71.773
0.2522,70.6
0.261,69.622
0.27664,69.035
0.30108,68.449
0.33333,68.253
0.36559,68.057
0.40078,68.057
0.44282,68.057
0.4868,68.057
0.53079,68.057
0.57087,68.057
0.60606,68.057
0.63539,68.057
0.65885,68.057
0.67546,67.862
0.68622,67.666
0.69208,67.471
0.69306,67.08
0.68915,66.884
0.68231,66.493
0.67155,65.906
0.65787,65.515
0.64125,65.124
0.6217,64.733
0.6002,64.342
0.57674,63.95
0.55327,63.364
0.52884,62.973
0.50538,62.582
0.48289,62.19
0.46432,61.604
0.44868,61.213
0.43304,60.821
0.41838,60.235
0.40469,59.648
0.39394,59.257
0.38416,58.67
0.37537,58.279
0.36852,57.692
0.36266,57.301
0.35777,56.91
0.35386,56.323
0.35093,55.932
0.348,55.541
0.34604,55.346
0.34409,55.15
0.34213,55.346
0.3392,55.541
0.33724,56.715
0.33431,59.061
0.33138,62.973
0.32942,68.644
0.32649,75.489
0.32356,82.529
0.32063,89.57
0.31769,96.024
0.31574,101.89
0.31378,106.98
0.31085,110.89
0.30792,113.43
0.30499,114.99
0.30108,115.38
0.29814,114.8
0.29521,113.62
0.2913,111.67
0.28837,109.13
0.28446,106.39
0.28055,103.26
0.27859,99.739
0.27664,95.828
0.2737,91.917
0.27077,87.81
0.26686,83.898
0.26393,80.378
0.26002,77.249
0.25709,74.707
0.25415,72.555
0.25122,70.795
0.25122,69.426
0.25415,68.449
0.26197,67.666
0.2737,67.08
0.29326,66.884
0.32063,66.493
0.35582,66.493
0.39589,66.297
0.43988,66.297
0.48485,66.297
0.52786,66.493
0.56794,66.493
0.60215,66.493
0.6305,66.493
0.65298,66.493
0.66667,66.297
0.67546,66.102
0.68035,65.906
0.68231,65.515
0.67937,65.124
0.67253,64.733
0.66178,64.537
0.64712,64.146
0.6305,63.755
0.60997,63.364
0.58847,62.973
0.565,62.582
0.54448,62.19
0.52493,61.799
0.5044,61.408
0.48387,61.017
0.46334,60.626
0.44575,60.235
0.42913,59.844
0.41544,59.257
0.40274,58.67
0.39198,58.279
0.38319,57.692
0.37537,57.301
0.3695,56.91
0.36559,56.323
0.36168,55.932
0.35875,55.346
0.35582,55.15
0.35288,54.759
0.34995,54.563
0.348,54.368
0.34506,54.759
0.34311,55.346
0.34018,56.91
0.33822,60.039
0.33529,64.733
0.33431,70.991
0.33236,78.227
0.3304,85.463
0.32747,92.308
0.32551,98.761
0.32258,104.24
0.31965,108.93
0.31769,112.45
0.31476,114.8
0.31183,115.97
0.3089,116.17
0.30499,115.38
0.30205,113.82
0.3001,111.67
0.29814,109.13
0.29619,106.19
0.29326,103.06
0.28935,99.544
0.28641,95.632
0.2825,91.721
0.27957,87.614
0.27664,83.703
0.27273,80.183
0.26882,77.249
0.26588,74.707
0.26295,72.555
0.26295,70.795
0.26295,69.426
0.26686,68.449
0.27664,67.666
0.29423,67.08
0.31867,66.884
0.35191,66.493
0.39101,66.493
0.435,66.493
0.48094,66.297
0.52688,66.493
0.56891,66.493
0.60313,66.493
0.62952,66.493
0.65494,66.493
0.67644,66.493
0.69208,66.297
0.70283,66.102
0.7087,65.906
0.7087,65.515
0.70479,65.124
0.69697,64.733
0.68426,64.537
0.66862,64.146
0.65103,63.755
0.63343,63.168
0.6129,62.973
0.58944,62.582
0.56598,62.19
0.54252,61.604
0.51906,61.408
0.49658,60.821
0.47605,60.43
0.45748,59.844
0.44086,59.452
0.42717,58.866
0.41447,58.475
0.40469,58.083
0.39687,57.497
0.39296,56.91
0.39101,56.519
0.3871,56.128
0.38319,55.541
0.37928,55.15
0.37634,54.759
0.37243,54.563
0.3695,54.368
0.36755,54.368
0.36461,54.563
0.36266,55.541
0.3607,57.888
0.35777,61.604
0.35582,67.275
0.35288,74.316
0.34995,81.747
0.34604,88.983
0.34311,95.828
0.34018,102.09
0.33724,107.37
0.33431,111.67
0.3304,114.8
0.32845,116.56
0.32649,117.14
0.32356,116.75
0.32063,115.58
0.31672,113.62
0.31281,111.47
0.3089,108.93
0.30499,106
0.30108,102.87
0.29717,99.348
0.29326,95.632
0.28935,91.525
0.28543,87.614
0.2825,83.898
0.28055,80.378
0.27761,77.445
0.2737,74.902
0.27077,72.947
0.26882,71.382
0.27077,70.209
0.27761,69.231
0.29228,68.644
0.31574,68.057
0.34702,67.862
0.38807,67.862
0.42717,67.666
0.46823,67.862
0.51417,67.862
0.56207,68.057
0.60802,68.057
0.65005,68.253
0.68524,68.253
0.71359,68.253
0.73509,68.253
0.74976,68.057
0.75855,67.862
0.76149,67.471
0.75953,67.275
0.75367,67.08
0.74487,66.688
0.73118,66.297
0.71457,65.906
0.69501,65.711
0.67253,65.319
0.64809,64.928
0.6217,64.537
0.59629,64.146
0.56989,63.755
0.54545,63.364
0.52199,62.973
0.50244,62.386
0.4868,61.995
0.47019,61.408
0.45552,61.017
0.44282,60.43
0.43206,60.039
0.42229,59.648
0.41447,59.257
0.40762,58.67
0.40274,58.279
0.39785,57.888
0.39492,57.497
0.39198,57.106
0.39003,56.91
0.38807,56.91
0.38612,57.106
0.38416,58.083
0.38221,60.039
0.38025,63.95
0.3783,69.622
0.37634,76.858
0.37341,84.485
0.37146,92.112
0.3695,99.153
0.36657,105.61
0.36559,111.28
0.36364,115.78
0.36168,119.1
0.35973,120.86
0.35777,121.64
0.35484,121.45
0.35288,120.27
0.34995,118.51
0.34702,116.36
0.34409,114.02
0.34213,111.47
0.3392,108.54
0.33627,105.41
0.33431,101.89
0.33236,98.175
0.3304,94.263
0.32747,90.352
0.32454,86.636
0.3216,83.312
0.31867,80.574
0.31672,78.227
0.31574,76.271
0.31867,74.902
0.32649,73.533
0.34213,72.751
0.36168,72.164
0.3871,71.578
0.42229,71.186
0.4653,71.186
0.51417,70.991
0.56403,70.991
0.61388,70.795
0.65982,70.795
0.70088,70.795
0.73607,70.6
0.76344,70.6
0.78495,70.404
0.79961,70.209
0.80743,69.818
0.80938,69.426
0.80841,69.035
0.80352,68.84
0.7957,68.253
0.78299,67.862
0.76833,67.471
0.74976,67.08
0.72825,66.688
0.70577,66.102
0.68035,65.711
0.65494,65.319
0.63148,64.733
0.60997,64.342
0.58847,63.755
0.56598,63.168
0.54545,62.777
0.52688,62.19
0.51026,61.408
0.4956,61.017
0.48289,60.43
0.47214,59.844
0.46334,59.257
0.45552,58.866
0.44868,58.279
0.44379,57.888
0.43988,57.497
0.435,57.106
0.43109,56.91
0.42717,56.715
0.42229,56.715
0.41838,57.301
0.41447,58.866
0.41056,61.799
0.40567,66.884
0.40176,73.533
0.39785,81.16
0.39394,88.983
0.39003,96.61
0.38612,103.46
0.38221,109.71
0.37732,114.6
0.37243,118.32
0.36852,120.67
0.36364,121.84
0.35875,121.84
0.35386,120.86
0.348,119.3
0.34311,117.14
0.33822,114.8
0.33431,112.26
0.3304,109.32
0.32551,106.19
0.32063,102.67
0.31574,98.957
0.31085,95.046
0.30596,91.134
0.30205,87.223
0.29717,83.703
0.29228,80.574
0.28739,78.031
0.28446,75.88
0.28446,74.12
0.28739,72.751
0.29619,71.773
0.31281,70.991
0.33724,70.6
0.37146,70.209
0.41251,70.013
0.46041,70.013
0.51026,69.818
0.56109,69.818
0.60802,69.818
0.65005,69.622
0.68622,69.622
0.71163,69.622
0.72923,69.622
0.74389,69.426
0.75464,69.035
0.76051,68.84
0.76051,68.449
0.75758,68.057
0.74976,67.666
0.73803,67.275
0.72239,66.884
0.70479,66.297
0.68426,65.906
0.66373,65.515
0.64223,65.124
0.61877,64.733
0.59335,64.146
0.56794,63.755
0.5435,63.364
0.52004,62.973
0.49853,62.386
0.47801,61.799
0.46139,61.408
0.44575,60.821
0.43304,60.235
0.42229,59.844
0.41349,59.257
0.40665,58.67
0.40078,58.279
0.39492,57.692
0.39003,57.301
0.38612,56.91
0.38221,56.519
0.3783,56.323
0.37537,56.128
0.37146,56.128
0.36852,56.715
0.36559,58.083
0.36266,60.626
0.3607,65.319
0.35777,71.578
0.35386,78.814
0.35093,86.245
0.34702,93.481
0.34311,100.13
0.34018,106.19
0.33627,111.28
0.32649,114.99
0.31476,117.34
0.30792,118.51
0.30303,118.71
0.3001,117.93
0.29619,116.36
0.29326,114.41
0.28935,111.86
0.28543,109.32
0.28152,106.19
0.27859,102.87
0.27468,99.348
0.27077,95.437
0.26686,91.33
0.26393,87.419
0.26002,83.703
0.25806,80.378
0.25611,77.64
0.25415,75.293
0.25122,73.338
0.25122,71.969
0.25318,70.6
0.261,69.818
0.27566,69.231
0.29717,68.84
0.32747,68.644
0.36559,68.449
0.40762,68.449
0.44673,68.253
0.48387,68.253
0.52395,68.253
0.56207,68.253
0.59726,68.253
0.62659,68.253
0.64907,68.253
0.66667,68.057
0.67742,67.666
0.68328,67.471
0.68426,67.08
0.68035,66.688
0.67351,66.297
0.66276,65.906
0.65005,65.515
0.63441,65.124
0.61584,64.733
0.59433,64.342
0.57185,63.95
0.54839,63.559
0.52493,63.168
0.50244,62.777
0.47996,62.386
0.45943,61.995
0.43988,61.408
0.42522,61.017
0.41251,60.43
0.40078,59.844
0.39003,59.452
0.38025,58.866
0.37243,58.279
0.36559,57.888
0.35973,57.497
0.35386,56.91
0.34995,56.519
0.34604,56.128
0.34311,55.737
0.34018,55.541
0.33822,55.541
0.33627,55.737
0.33431,56.323
0.33236,57.692
0.3304,60.43
0.32747,64.928
0.32454,70.991
0.32258,77.836
0.31965,84.876
0.31672,91.721
0.31378,97.979
0.31085,103.46
0.3089,107.95
0.30694,111.47
0.30401,113.62
0.30205,114.8
0.29912,114.8
0.29619,114.02
0.29228,112.65
0.28935,110.5
0.28543,108.15
0.2825,105.22
0.27859,102.09
0.27566,98.761
0.27175,95.046
0.26979,91.134
0.26784,87.419
0.26491,83.507
0.26197,80.183
0.25904,77.249
0.25513,74.902
0.2522,72.947
0.25024,71.186
0.25024,70.013
0.25415,69.035
0.26295,68.449
0.27859,67.862
0.29717,67.471
0.32063,67.275
0.35386,67.275
0.39198,67.275
0.435,67.08
0.47898,67.08
0.52102,67.08
0.56012,67.08
0.59335,67.275
0.6217,67.08
0.64321,67.08
0.65885,66.884
0.66862,66.493
0.67351,66.297
0.67253,65.906
0.66862,65.711
0.66178,65.319
0.65103,64.928
0.63636,64.537
0.61975,64.146
0.6002,63.755
0.57869,63.364
0.55621,62.973
0.53372,62.777
0.51026,62.19
0.49071,61.799
0.47312,61.408
0.45552,61.017
0.43793,60.626
0.42229,60.039
0.4086,59.648
0.39687,59.061
0.38612,58.475
0.37732,58.083
0.37048,57.692
0.36364,57.106
0.35875,56.715
0.35386,56.323
0.35093,55.737
0.348,55.346
0.34604,55.15
0.34311,55.15
0.34115,55.15
0.3392,55.541
0.33627,56.715
0.33431,58.866
0.33138,62.973
0.32942,68.644
0.32649,75.489
0.32454,82.725
0.32258,89.765
0.32063,96.415
0.31867,102.28
0.31574,107.37
0.31378,111.47
0.31085,114.21
0.30792,115.78
0.30499,116.17
0.30303,115.78
0.3001,114.6
0.29619,112.65
0.29326,110.5
0.29032,107.95
0.28837,105.02
0.28641,101.69
0.28348,98.175
0.28055,94.263
0.27761,90.352
0.2737,86.441
0.27077,82.725
0.26686,79.596
0.26393,76.662
0.26002,74.316
0.25806,72.555
0.25709,70.991
0.25904,69.818
0.26491,69.035
0.27566,68.449
0.29423,67.862
0.32063,67.666
0.35386,67.471
0.39394,67.471
0.43793,67.471
0.48387,67.471
0.52786,67.666
0.56891,67.666
0.60508,67.666
0.63539,67.666
0.65689,67.666
0.67155,67.471
0.68426,67.275
0.69208,67.08
0.69501,66.884
0.69404,66.493
0.68817,66.102
0.6784,65.711
0.66569,65.319
0.64907,65.124
0.62952,64.733
0.60802,64.342
0.58749,63.95
0.56794,63.559
0.54545,63.168
0.52199,62.973
0.49951,62.582
0.47801,61.995
0.45846,61.604
0.44086,61.213
0.42522,60.821
0.41056,60.235
0.39883,59.844
0.38905,59.257
0.38025,58.866
0.37341,58.475
0.3695,58.083
0.36461,57.692
0.3607,57.301
0.35679,56.91
0.35386,56.715
0.35191,56.519
0.34897,56.519
0.34604,56.91
0.34409,58.083
0.34115,60.43
0.3392,64.342
0.33724,70.209
0.33529,77.054
0.33333,84.485
0.3304,91.721
0.32845,98.37
0.32551,104.43
0.32258,109.71
0.31965,113.62
0.31672,116.56
0.31476,118.12
0.31183,118.71
0.3089,118.12
0.30694,116.95
0.30499,115.38
0.30205,113.23
0.3001,111.08
0.29717,108.34
0.29423,105.22
0.29032,101.89
0.28739,98.37
0.28446,94.459
0.28152,90.743
0.27859,87.027
0.27566,83.703
0.27273,80.769
0.27077,78.227
0.26979,76.271
0.26882,74.511
0.27175,73.338
0.27957,72.36
0.29326,71.773
0.31476,71.382
0.34506,70.991
0.38319,70.991
0.42815,70.795
0.47801,70.795
0.52884,70.795
0.57283,70.991
0.60997,70.991
0.64809,70.991
0.68231,70.991
0.71163,70.795
0.73412,70.6
0.74976,70.404
0.76051,70.209
0.7654,69.818
0.7654,69.622
0.75953,69.231
0.75073,68.84
0.73803,68.449
0.72239,68.057
0.70577,67.471
0.68524,67.275
0.66276,66.884
0.63832,66.297
0.61388,65.906
0.58847,65.515
0.56403,65.124
0.54154,64.537
0.52004,64.146
0.50049,63.755
0.48387,63.168
0.47019,62.777
0.45943,62.19
0.44966,61.604
0.44086,61.213
0.43304,60.821
0.42717,60.235
0.42229,59.844
0.4174,59.452
0.41349,59.061
0.41056,58.866
0.4086,58.67
0.40567,58.866
0.40274,59.452
0.40078,61.017
0.3998,64.146
0.39687,69.035
0.39492,75.88
0.39198,83.507
0.38905,91.134
0.38612,98.566
0.38319,105.41
0.38025,111.67
0.37634,116.56
0.37341,120.27
0.37048,122.62
0.36755,123.6
0.36559,123.6
0.36364,122.82
0.35973,121.45
0.35679,119.49
0.35386,117.34
0.34995,114.8
0.34604,112.06
0.34213,108.93
0.3392,105.61
0.33529,102.09
0.33138,97.979
0.32747,94.068
0.32454,90.157
0.32258,86.441
0.31965,83.116
0.31574,80.378
0.31281,78.227
0.31281,76.467
0.31574,74.902
0.32551,73.924
0.34213,73.142
0.36852,72.555
0.40274,72.164
0.44477,72.164
0.48583,71.969
0.5259,71.969
0.57087,72.164
0.61681,72.164
0.65982,72.164
0.69795,72.164
0.72923,71.969
0.75367,71.773
0.77126,71.578
0.78299,71.186
0.78886,70.795
0.78983,70.404
0.7869,69.818
0.77908,69.426
0.76833,68.84
0.75464,68.449
0.73705,67.862
0.7175,67.471
0.69404,66.884
0.6696,66.493
0.64223,66.102
0.61486,65.711
0.58749,65.124
0.56109,64.733
0.53568,64.342
0.51515,63.755
0.49658,63.168
0.47898,62.777
0.46237,62.19
0.4477,61.604
0.435,61.213
0.42424,60.626
0.41544,60.039
0.40762,59.648
0.40078,59.061
0.39589,58.67
0.39101,58.279
0.38612,57.888
0.38319,57.692
0.38025,57.692
0.37634,58.083
0.37243,59.257
0.36852,61.604
0.36461,65.906
0.3607,72.164
0.35679,79.791
0.35191,87.614
0.34702,95.437
0.34311,102.67
0.33822,109.13
0.33529,114.41
0.33236,118.51
0.32845,121.25
0.32454,122.62
0.32063,123.01
0.31574,122.43
0.31183,121.25
0.30792,119.49
0.30401,117.14
0.29912,114.6
0.29521,111.86
0.2913,108.74
0.28641,105.61
0.28348,101.89
0.28152,97.979
0.27761,94.068
0.2737,89.961
0.26979,86.245
0.26588,82.921
0.26197,80.183
0.25806,77.836
0.25709,75.88
0.25904,74.511
0.26686,73.338
0.28152,72.555
0.30108,71.969
0.32649,71.578
0.36168,71.186
0.40665,70.991
0.45552,70.991
0.50733,70.991
0.55816,70.795
0.60508,70.795
0.64712,70.795
0.68133,70.795
0.7087,70.6
0.72923,70.6
0.74291,70.404
0.74976,70.013
0.75073,69.622
0.74878,69.231
0.74389,68.84
0.73509,68.449
0.72239,68.057
0.70577,67.471
0.68622,67.08
0.66471,66.688
0.64027,66.297
0.61486,65.906
0.58749,65.319
0.56403,64.928
0.54154,64.537
0.51906,63.95
0.4956,63.559
0.47507,62.973
0.45552,62.386
0.43793,61.799
0.42326,61.408
0.41056,60.821
0.3998,60.235
0.39003,59.844
0.38221,59.257
0.37634,58.67
0.37243,58.279
0.36852,57.888
0.36461,57.497
0.3607,57.301
0.35777,57.301
0.35484,57.497
0.35191,58.083
0.34897,59.844
0.34604,62.973
0.34311,67.862
0.3392,74.316
0.33627,81.747
0.33333,89.179
0.33138,96.415
0.32747,103.06
0.32454,108.74
0.32063,113.62
0.31769,116.95
0.31378,119.1
0.31085,120.08
0.30694,120.08
0.30303,119.1
0.29912,117.73
0.29521,115.78
0.29228,113.23
0.29032,110.69
0.28739,107.56
0.28348,104.24
0.27957,100.52
0.27566,96.61
0.27175,92.699
0.26784,88.788
0.26393,84.876
0.25904,81.747
0.25513,78.814
0.2522,76.467
0.25024,74.707
0.25024,73.142
0.25415,72.164
0.26197,71.186
0.27761,70.6
0.30205,70.404
0.33431,70.013
0.37537,70.013
0.42131,69.818
0.47214,69.818
0.52297,69.818
0.57087,69.818
0.61486,69.818
0.64809,69.818
0.67449,69.818
0.69697,69.622
0.71554,69.426
0.72825,69.231
0.73509,69.035
0.73803,68.644
0.73509,68.253
0.72825,67.666
0.71652,67.471
0.69208,66.884
0.6608,66.493
0.63343,66.102
0.61095,65.711
0.58847,65.319
0.56598,64.733
0.54154,64.342
0.51808,63.95
0.49462,63.364
0.47312,62.973
0.45259,62.386
0.435,61.995
0.41935,61.408
0.40567,61.017
0.39394,60.43
0.38514,59.844
0.3783,59.452
0.37243,58.866
0.36657,58.279
0.36168,57.888
0.35777,57.497
0.35484,57.106
0.35093,56.91
0.34897,56.91
0.34604,56.91
0.34409,57.497
0.34115,58.866
0.3392,61.408
0.33724,65.906
0.33627,71.969
0.33431,79.009
0.33138,86.441
0.32845,93.677
0.32551,100.52
0.32258,106.39
0.31965,111.47
0.31672,115.38
0.31378,117.93
0.31085,119.1
0.30792,119.49
0.30596,118.71
0.30401,117.54
0.30108,115.58
0.29814,113.23
0.29521,110.69
0.2913,107.76
0.28837,104.43
0.28446,100.91
0.28152,97.197
0.27761,93.09
0.27468,89.179
0.27077,85.463
0.26784,82.138
0.26491,79.205
0.26295,76.858
0.261,74.902
0.26002,73.338
0.26197,72.164
0.26784,71.186
0.28055,70.6
0.3001,70.013
0.32845,69.818
0.36364,69.622
0.40567,69.426
0.45161,69.426
0.49267,69.426
0.52884,69.426
0.56794,69.426
0.60411,69.426
0.63539,69.426
0.66178,69.426
0.68231,69.231
0.69599,69.035
0.70381,68.84
0.70772,68.449
0.70577,68.057
0.6999,67.666
0.69013,67.275
0.67742,66.884
0.66373,66.493
0.64614,66.102
0.62561,65.711
0.60313,65.124
0.57869,64.733
0.55425,64.342
0.53079,63.95
0.50733,63.559
0.48485,62.973
0.46432,62.582
0.44673,61.995
0.43206,61.604
0.41935,61.017
0.4086,60.626
0.39785,60.039
0.38905,59.648
0.38123,59.061
0.37439,58.67
0.36852,58.279
0.36364,57.692
0.35973,57.301
0.35679,57.106
0.35386,56.91
0.35093,57.106
0.34897,57.692
0.34702,58.866
0.34506,61.408
0.34311,65.906
0.34018,72.164
0.33822,79.4
0.33529,87.027
0.33236,94.459
0.32942,101.3
0.32649,107.56
0.32356,112.84
0.32063,116.75
0.31867,119.49
0.31672,120.86
0.31476,121.06
0.31183,120.47
0.3089,119.3
0.30596,117.54
0.30205,115.38
0.29912,112.84
0.29521,110.1
0.29228,106.78
0.28837,103.26
0.28543,99.544
0.28152,95.437
0.27957,91.525
0.27761,87.419
0.27468,83.898
0.27077,80.769
0.26784,78.031
0.26491,75.88
0.26393,74.12
0.26588,72.751
0.27175,71.773
0.28543,71.186
0.30694,70.6
0.33627,70.404
0.36755,70.209
0.40078,70.209
0.44282,70.209
0.48876,70.209
0.53568,70.209
0.57967,70.209
0.61877,70.209
0.652,70.209
0.6784,70.013
0.69892,69.818
0.71261,69.622
0.72141,69.426
0.72434,69.035
0.72239,68.84
0.7175,68.253
0.7087,67.862
0.69697,67.471
0.68133,67.08
0.66276,66.688
0.64223,66.102
0.61975,65.906
0.59531,65.319
0.56989,64.928
0.54448,64.537
0.52004,64.146
0.49853,63.559
0.48094,62.973
0.46237,62.582
0.44575,61.995
0.43011,61.408
0.41642,61.017
0.40469,60.43
0.39492,60.039
0.38612,59.452
0.37928,59.061
0.37341,58.475
0.36852,58.083
0.36559,57.692
0.36266,57.301
0.3607,57.301
0.35777,57.301
0.35484,57.888
0.35288,59.452
0.34995,62.386
0.34702,67.08
0.34506,73.729
0.34213,81.16
0.3392,88.983
0.33627,96.61
0.33236,103.65
0.3304,109.91
0.32845,114.99
0.32649,118.9
0.32356,121.45
0.32063,122.82
0.31672,123.01
0.31378,122.23
0.31085,121.06
0.30694,119.1
0.30401,116.95
0.30108,114.41
0.29717,111.67
0.29423,108.74
0.29228,105.22
0.28935,101.5
0.28641,97.588
0.2825,93.481
0.27859,89.57
0.27468,85.854
0.27077,82.529
0.26784,79.596
0.26491,77.249
0.26393,75.293
0.26588,73.924
0.27468,72.751
0.28641,71.969
0.30401,71.382
0.3304,71.186
0.36559,70.795
0.4086,70.795
0.45552,70.6
0.5044,70.6
0.55132,70.6
0.59531,70.795
0.63441,70.795
0.66667,70.795
0.69306,70.795
0.70968,70.6
0.72043,70.6
0.72825,70.404
0.73216,70.013
0.73118,69.818
0.7263,69.426
0.71848,69.035
0.70577,68.644
0.6911,68.253
0.67253,67.666
0.65103,67.275
0.62854,66.884
0.60313,66.493
0.58065,66.102
0.55914,65.711
0.53568,65.319
0.51222,64.733
0.48974,64.342
0.46921,63.95
0.44966,63.364
0.43402,62.973
0.41935,62.386
0.40665,61.995
0.39687,61.408
0.38807,61.017
0.38123,60.43
0.37634,60.039
0.37146,59.648
0.36755,59.257
0.36266,59.061
0.35777,58.866
0.35386,58.866
0.35093,59.648
0.348,61.017
0.34506,64.146
0.34311,69.231
0.34018,76.076
0.33724,83.898
0.33529,91.917
0.33333,99.544
0.33138,106.78
0.32845,113.04
0.32551,118.12
0.32258,122.03
0.31965,124.38
0.31672,125.55
0.31378,125.75
0.31085,124.97
0.30792,123.6
0.30499,121.84
0.30205,119.69
0.30108,117.34
0.29814,114.6
0.29521,111.67
0.29228,108.34
0.28935,104.82
0.28641,100.91
0.28348,97.001
0.28055,92.894
0.27664,89.179
0.2737,85.854
0.27077,82.921
0.26882,80.574
0.26882,78.618
0.27175,77.054
0.27957,75.88
0.29326,75.098
0.31574,74.511
0.34702,74.12
0.3871,73.924
0.43304,73.924
0.48289,73.924
0.53372,73.924
0.58358,73.924
0.62854,73.924
0.66373,73.924
0.69013,73.729
0.71554,73.729
0.73509,73.533
0.75073,73.142
0.75953,72.947
0.76442,72.555
0.76442,72.164
0.76051,71.578
0.75171,71.186
0.73998,70.795
0.72532,70.404
0.70674,69.818
0.68817,69.426
0.66862,68.84
0.64516,68.449
0.62072,68.057
0.59531,67.471
0.57087,67.08
0.54643,66.688
0.52297,66.102
0.50244,65.515
0.48387,64.928
0.46725,64.342
0.45259,63.755
0.44184,63.168
0.43304,62.777
0.42424,62.19
0.4174,61.408
0.41153,61.017
0.40567,60.43
0.40176,59.844
0.39785,59.648
0.39492,59.452
0.39101,59.452
0.38807,60.039
0.38514,61.995
0.38221,65.515
0.37928,70.991
0.37732,78.227
0.37439,86.441
0.37048,94.85
0.36755,102.67
0.36364,109.91
0.35973,116.36
0.35582,121.06
0.35288,124.58
0.34897,126.53
0.34506,127.31
0.34115,127.12
0.33822,125.95
0.33627,124.19
0.33333,122.43
0.32942,120.08
0.32551,117.73
0.3216,114.99
0.31672,111.86
0.31281,108.54
0.3089,104.82
0.30499,101.11
0.30108,96.806
0.29717,92.894
0.29228,88.983
0.28935,85.854
0.28641,82.921
0.28348,80.574
0.2825,78.618
0.28446,77.054
0.2913,75.88
0.30596,75.098
0.3304,74.511
0.36266,74.12
0.40371,73.924
0.44966,73.729
0.49951,73.533
0.5435,73.533
0.58162,73.533
0.62072,73.533
0.65689,73.338
0.68719,73.142
0.71163,72.947
0.72923,72.751
0.74096,72.36
0.7478,71.969
0.74878,71.578
0.74682,70.991
0.73998,70.6
0.73021,70.013
0.71848,69.622
0.70381,69.035
0.68524,68.644
0.66471,68.057
0.64125,67.666
0.61681,67.08
0.5914,66.688
0.565,66.102
0.53959,65.711
0.51515,65.124
0.49267,64.733
0.47214,64.146
0.45455,63.559
0.44086,62.973
0.42717,62.582
0.41447,61.995
0.40371,61.408
0.39492,61.017
0.3871,60.43
0.37928,59.844
0.37341,59.452
0.36852,59.061
0.36364,58.866
0.35973,58.67
0.35679,58.67
0.35386,59.061
0.35093,60.235
0.348,62.973
0.34409,67.471
0.34018,74.12
0.33627,81.747
0.33236,89.961
0.32845,97.784
0.32454,105.22
0.31965,111.86
0.31574,117.14
0.31085,121.25
0.30792,123.79
0.30596,125.16
0.30205,125.55
0.29912,124.77
0.29521,123.4
0.2913,121.64
0.28739,119.49
0.28348,116.95
0.27957,114.02
0.27566,110.89
0.27273,107.37
0.26882,103.65
0.26588,99.544
0.26393,95.437
0.261,91.33
0.25709,87.614
0.25415,84.289
0.25024,81.356
0.24633,78.814
0.24438,76.858
0.24536,75.489
0.25122,74.316
0.26491,73.533
0.28543,72.947
0.31574,72.555
0.34897,72.36
0.38416,72.164
0.42913,72.164
0.47801,72.164
0.52688,72.164
0.5738,72.164
0.61584,71.969
0.652,71.969
0.68035,71.773
0.70186,71.773
0.7175,71.382
0.7263,71.186
0.72923,70.795
0.72825,70.404
0.72336,69.818
0.71554,69.231
0.70381,68.84
0.68915,68.253
0.67058,67.862
0.65005,67.275
0.62659,66.884
0.60117,66.297
0.57576,65.906
0.54936,65.515
0.52395,64.928
0.50147,64.537
0.48192,63.95
0.46237,63.364
0.44379,62.973
0.42717,62.386
0.41251,61.799
0.3998,61.408
0.38807,60.821
0.37928,60.235
0.37146,59.844
0.36559,59.452
0.35973,58.866
0.35582,58.475
0.35288,58.083
0.34995,57.888
0.34702,57.888
0.34409,58.083
0.34115,58.67
0.33822,60.235
0.33431,63.168
0.33138,67.862
0.32747,74.316
0.32454,81.552
0.32063,89.179
0.31672,96.415
0.31378,103.06
0.31183,109.13
0.3089,113.82
0.30499,117.34
0.30205,119.49
0.29814,120.67
0.29423,120.47
0.29032,119.69
0.28641,118.12
0.2825,116.17
0.27957,113.62
0.27859,111.08
0.27664,107.95
0.27566,104.63
0.27273,100.91
0.26979,96.806
0.26686,92.894
0.26393,88.983
0.261,85.267
0.25709,81.943
0.25415,79.205
0.25024,76.858
0.24829,75.098
0.24829,73.533
0.25024,72.555
0.25709,71.773
0.26784,71.186
0.28543,70.795
0.31281,70.6
0.34702,70.404
0.3871,70.404
0.43206,70.404
0.47801,70.404
0.52297,70.404
0.565,70.404
0.60215,70.404
0.63245,70.209
0.65396,70.013
0.66862,69.818
0.68035,69.622
0.68817,69.231
0.6911,68.84
0.69013,68.449
0.68426,68.057
0.67546,67.471
0.66276,67.08
0.64614,66.688
0.62757,66.102
0.60606,65.711
0.5826,65.319
0.56109,64.928
0.54057,64.537
0.51906,63.95
0.49658,63.559
0.4741,62.973
0.45455,62.582
0.43597,61.995
0.41935,61.408
0.40567,61.017
0.39394,60.43
0.38319,59.844
0.37537,59.452
0.3695,59.061
0.36461,58.475
0.35973,58.083
0.35582,57.692
0.35288,57.301
0.34897,56.91
0.34604,56.91
0.34409,57.106
0.34115,57.497
0.33822,58.866
0.33627,61.604
0.33333,65.906
0.3304,72.164
0.32845,79.596
0.32649,87.027
0.32454,94.459
0.3216,101.3
0.31867,107.37
0.31574,112.45
0.31183,116.36
0.3089,118.9
0.30499,120.08
0.30205,120.27
0.29814,119.69
0.29521,118.32
0.29326,116.36
0.29032,114.21
0.28837,111.67
0.28446,108.74
0.28152,105.41
0.27761,101.69
0.27468,97.784
0.27077,93.677
0.26784,89.57
0.26393,85.854
0.261,82.334
0.25806,79.4
0.25415,76.858
0.2522,74.902
0.2522,73.338
0.25318,72.164
0.25806,71.186
0.26784,70.6
0.28641,70.209
0.31183,70.013
0.34604,69.818
0.3871,69.818
0.43304,69.818
0.48094,69.818
0.52786,69.818
0.56598,69.818
0.59726,70.013
0.62757,69.818
0.65494,69.818
0.67546,69.622
0.6911,69.426
0.70088,69.231
0.70577,68.84
0.70577,68.449
0.70186,68.057
0.69306,67.666
0.68035,67.275
0.66569,66.884
0.65005,66.493
0.6305,66.102
0.60802,65.711
0.58456,65.319
0.55914,64.928
0.5347,64.537
0.51026,64.146
0.4868,63.755
0.4653,63.168
0.44575,62.777
0.42913,62.19
0.41349,61.799
0.40274,61.408
0.39296,60.821
0.38514,60.43
0.37732,60.039
0.37048,59.648
0.36559,59.257
0.3607,58.866
0.35679,58.475
0.35386,58.279
0.35093,58.083
0.348,58.279
0.34604,58.67
0.34409,60.039
0.34213,62.973
0.34018,67.471
0.33822,73.533
0.33529,80.965
0.33236,88.788
0.32942,96.219
0.32649,103.06
0.32356,109.13
0.32063,114.21
0.31769,117.93
0.31476,120.47
0.31183,121.84
0.30987,122.03
0.3089,121.25
0.30694,119.88
0.30401,118.12
0.30108,115.97
0.29814,113.43
0.29521,110.69
0.29228,107.56
0.28935,104.24
0.28641,100.52
0.28348,96.61
0.28055,92.503
0.27859,88.788
0.27761,85.267
0.27468,82.334
0.27273,79.791
0.27077,77.836
0.26882,76.271
0.27077,75.098
0.27566,74.12
0.28739,73.533
0.30694,73.142
0.33529,72.751
0.37048,72.751
0.41251,72.751
0.45161,72.751
0.48974,72.751
0.53275,72.947
0.57576,72.947
0.61486,72.947
0.64907,72.751
0.67742,72.555
0.6999,72.36
0.71554,72.164
0.7263,71.773
0.73118,71.382
0.73118,70.991
0.72727,70.6
0.71945,70.209
0.7087,69.622
0.69599,69.231
0.67937,68.84
0.65982,68.449
0.6393,68.057
0.61584,67.471
0.59238,67.08
0.56891,66.688
0.54545,66.102
0.52395,65.711
0.50342,65.124
0.4868,64.733
0.47312,64.146
0.45943,63.755
0.44673,63.168
0.43695,62.777
0.42815,62.19
0.42033,61.799
0.41447,61.408
0.40958,60.821
0.40567,60.43
0.40176,59.844
0.39883,59.648
0.39687,59.452
0.39492,59.452
0.39296,59.844
0.39003,61.213
0.38807,64.342
0.38514,69.426
0.38221,76.467
0.37928,84.289
0.37537,92.503
0.37243,100.33
0.3695,107.56
0.36559,114.02
0.36266,119.1
0.35973,122.82
0.35777,124.97
0.35484,125.95
0.35191,125.95
0.34897,124.97
0.34506,123.6
0.34213,121.64
0.33822,119.49
0.33431,116.95
0.33138,114.21
0.32747,111.08
0.32454,107.76
0.3216,104.04
0.31965,100.13
0.31672,96.024
0.31281,91.917
0.30987,88.201
0.30596,84.876
0.30205,82.138
0.29912,79.791
0.29717,77.836
0.29814,76.467
0.30401,75.293
0.31672,74.707
0.33724,74.12
0.36168,73.729
0.39003,73.533
0.42815,73.533
0.47214,73.533
0.52102,73.338
0.57087,73.338
0.61584,73.338
0.65494,73.142
0.68817,72.947
0.71359,72.751
0.73216,72.555
0.74487,72.164
0.75073,71.773
0.75269,71.186
0.75073,70.795
0.74585,70.209
0.73705,69.622
0.7263,69.035
0.71065,68.644
0.69306,68.057
0.67253,67.666
0.65005,67.275
0.62561,66.688
0.6002,66.297
0.57478,65.906
0.5523,65.515
0.53177,64.928
0.51026,64.537
0.48974,63.95
0.47116,63.364
0.45455,62.973
0.43988,62.386
0.42717,61.799
0.41642,61.213
0.40762,60.821
0.3998,60.235
0.39296,59.844
0.38807,59.257
0.38416,58.866
0.38025,58.475
0.37634,58.083
0.37243,58.083
0.36852,58.279
0.36461,59.257
0.3607,61.408
0.35679,65.124
0.35288,70.991
0.34897,78.227
0.34506,86.245
0.34018,94.459
0.33724,101.89
0.33431,108.74
0.3304,114.6
0.32649,119.1
0.32258,122.23
0.31867,123.99
0.31476,124.38
0.31085,123.99
0.30694,122.82
0.30303,121.06
0.29912,118.9
0.29619,116.56
0.29326,113.82
0.29032,110.69
0.28739,107.37
0.28446,103.85
0.28055,99.935
0.27761,95.828
0.2737,91.721
0.26979,87.81
0.26588,84.289
0.26295,81.356
0.25904,78.814
0.25611,76.858
0.25611,75.293
0.25904,74.12
0.26588,73.142
0.27957,72.555
0.30108,72.164
0.33138,71.969
0.37048,71.773
0.41544,71.773
0.46432,71.773
0.5132,71.773
0.56012,71.773
0.60313,71.773
0.6393,71.578
0.66667,71.578
0.68524,71.382
0.70186,70.991
0.71359,70.795
0.72043,70.404
0.72336,70.013
0.72141,69.426
0.71554,69.035
0.70577,68.449
0.69306,68.057
0.67644,67.471
0.65689,67.08
0.63734,66.493
0.61779,66.102
0.59433,65.515
0.56989,65.124
0.54448,64.733
0.52004,64.342
0.49658,63.755
0.47507,63.168
0.45552,62.777
0.43793,62.19
0.42229,61.604
0.40958,61.213
0.39883,60.626
0.39101,60.039
0.38416,59.648
0.3783,59.061
0.37341,58.67
0.36852,58.279
0.36461,57.888
0.3607,57.497
0.35777,57.497
0.35484,57.497
0.35191,57.692
0.34897,58.67
0.34604,60.821
0.34311,64.537
0.34115,70.013
0.33822,77.054
0.33529,84.681
0.33138,92.112
0.32747,99.153
0.32356,105.61
0.31965,111.08
0.31574,115.38
0.31281,118.32
0.3089,120.08
0.30499,120.47
0.30108,120.08
0.29912,118.9
0.29619,117.14
0.29326,114.8
0.29032,112.26
0.28641,109.32
0.28348,106.19
0.27957,102.67
0.27566,98.761
0.27175,94.655
0.26882,90.548
0.26491,86.636
0.26197,83.116
0.25904,80.183
0.25709,77.64
0.25513,75.489
0.2522,73.924
0.2522,72.555
0.25415,71.773
0.26197,70.991
0.27664,70.6
0.29912,70.404
0.3304,70.209
0.3695,70.013
0.41349,70.013
0.46139,70.013
0.50342,70.013
0.54057,70.013
0.57967,70.013
0.61584,70.013
0.64712,69.818
0.67155,69.622
0.6911,69.426
0.70381,69.231
0.71065,68.84
0.71261,68.449
0.70968,68.057
0.70283,67.471
0.69208,67.08
0.68035,66.688
0.66373,66.102
0.64418,65.711
0.62268,65.319
0.59824,64.733
0.5738,64.342
0.54839,63.95
0.52297,63.559
0.49951,62.973
0.47703,62.582
0.45748,62.19
0.43891,61.604
0.42522,61.213
0.41447,60.626
0.40371,60.039
0.39394,59.648
0.38612,59.061
0.37928,58.67
0.37341,58.279
0.36852,57.692
0.36461,57.301
0.3607,56.91
0.35777,56.715
0.35484,56.715
0.35288,56.715
0.35093,57.301
0.34897,58.67
0.34604,61.408
0.34409,66.102
0.34115,72.164
0.33822,79.4
0.33529,86.832
0.33138,94.068
0.32845,100.72
0.32551,106.58
0.3216,111.47
0.31867,115.19
0.31574,117.54
0.31378,118.71
0.31183,118.9
0.3089,118.32
0.30499,116.75
0.30205,114.8
0.29814,112.65
0.29521,109.91
0.2913,106.98
0.28739,103.46
0.28446,99.739
0.28055,95.828
0.27761,91.721
0.27566,87.81
0.2737,84.289
0.26979,80.965
0.26686,78.227
0.26295,76.076
0.26002,74.12
0.25904,72.751
0.25904,71.578
0.26491,70.795
0.27566,70.404
0.29423,70.013
0.3216,69.622
0.35093,69.622
0.38416,69.426
0.42522,69.426
0.47214,69.426
0.51906,69.426
0.56403,69.426
0.60508,69.426
0.64027,69.231
0.6696,69.231
0.69208,69.035
0.70772,68.84
0.7175,68.449
0.72239,68.057
0.72141,67.666
0.71652,67.275
0.7087,66.884
0.69697,66.297
0.68133,65.906
0.66276,65.515
0.64223,65.124
0.61877,64.733
0.59433,64.342
0.56891,63.95
0.54252,63.364
0.51613,62.973
0.49462,62.582
0.47703,61.995
0.45846,61.604
0.44184,61.017
0.42717,60.626
0.41447,60.235
0.40371,59.648
0.39394,59.257
0.38612,58.67
0.37928,58.279
0.37341,57.888
0.36852,57.497
0.36559,57.106
0.36266,56.91
0.35973,56.715
0.35777,56.715
0.35484,57.301
0.35288,58.475
0.34995,61.017
0.34702,65.319
0.34409,71.382
0.34115,78.618
0.33822,86.245
0.33529,93.677
0.33138,100.72
0.32942,106.98
0.32747,112.26
0.32454,116.17
0.3216,118.9
0.31867,120.27
0.31476,120.67
0.31183,120.08
0.3089,118.9
0.30499,116.95
0.30205,114.8
0.29814,112.26
0.29521,109.52
0.29228,106.39
0.29032,102.67
0.28739,98.957
0.28446,94.85
0.28055,90.743
0.27761,87.027
0.27468,83.507
0.27077,80.378
0.26784,78.031
0.26491,75.88
0.26295,74.12
0.26295,72.947
0.26686,71.969
0.2737,71.382
0.28837,70.991
0.31085,70.6
0.34115,70.404
0.38025,70.404
0.42522,70.209
0.47312,70.404
0.52102,70.404
0.56794,70.404
0.60997,70.404
0.64614,70.209
0.67644,70.209
0.69697,70.013
0.70968,69.818
0.72043,69.426
0.72727,69.035
0.72923,68.644
0.7263,68.253
0.72043,67.862
0.70968,67.471
0.69599,66.884
0.6784,66.493
0.65885,66.102
0.63636,65.711
0.61388,65.124
0.59335,64.733
0.56891,64.342
0.54448,63.755
0.52102,63.364
0.49853,62.777
0.47801,62.386
0.45943,61.799
0.44282,61.408
0.42815,60.821
0.41642,60.235
0.40665,59.844
0.39785,59.452
0.39101,58.866
0.38612,58.279
0.38123,57.888
0.37732,57.497
0.37341,57.301
0.37048,57.106
0.36755,57.106
0.36461,57.497
0.36168,58.67
0.35973,61.017
0.35679,65.124
0.35386,71.186
0.35093,78.422
0.34897,86.245
0.34604,93.872
0.34311,101.11
0.3392,107.56
0.33627,113.04
0.33333,117.34
0.32942,120.27
0.32649,121.84
0.32258,122.43
0.31965,122.03
0.31574,120.86
0.31183,119.1
0.30987,117.14
0.30694,114.8
0.30401,112.06
0.3001,109.13
0.29717,105.8
0.29326,102.09
0.28935,98.175
0.28543,94.068
0.2825,90.157
0.27859,86.245
0.27468,82.921
0.27077,80.183
0.26882,77.836
0.26686,75.88
0.26686,74.511
0.26882,73.338
0.27664,72.555
0.29032,72.164
0.31281,71.773
0.34409,71.578
0.38319,71.382
0.42913,71.382
0.47703,71.382
0.5259,71.382
0.57283,71.382
0.60997,71.382
0.64027,71.382
0.6696,71.382
0.69404,71.186
0.71359,70.991
0.72727,70.795
0.73509,70.6
0.73803,70.209
0.73705,69.818
0.73118,69.426
0.72239,69.035
0.7087,68.644
0.69404,68.057
0.67742,67.666
0.65787,67.275
0.63539,66.884
0.61095,66.493
0.58553,65.906
0.56012,65.515
0.53568,65.124
0.51222,64.537
0.48974,64.146
0.47019,63.559
0.45259,63.168
0.43695,62.777
0.42522,62.19
0.41544,61.604
0.40665,61.213
0.39883,60.626
0.39198,60.235
0.38612,59.844
0.38123,59.452
0.37634,59.257
0.37341,59.061
0.37048,59.061
0.36755,59.452
0.36461,60.626
0.36266,63.168
0.3607,67.471
0.35875,73.729
0.35582,81.16
0.35288,89.179
0.34995,97.197
0.34702,104.63
0.34409,111.28
0.34115,116.75
0.33822,121.06
0.33529,123.99
0.33236,125.55
0.32942,125.75
0.32649,125.36
0.32551,124.19
0.32258,122.62
0.31965,120.67
0.31672,118.32
0.31378,115.78
0.31085,112.84
0.30694,109.52
0.30401,106
0.30108,102.28
0.29814,98.175
0.29521,94.263
0.29228,90.352
0.2913,87.027
0.28837,84.094
0.28543,81.552
0.28348,79.596
0.28348,78.031
0.28641,76.858
0.29521,76.076
0.31183,75.489
0.33627,75.098
0.36852,75.098
0.40958,74.902
0.45552,74.902
0.49756,74.902
0.53763,74.902
0.58065,74.902
0.6217,74.902
0.65982,74.707
0.69208,74.511
0.7175,74.316
0.73607,74.12
0.74976,73.729
0.75758,73.338
0.76051,72.751
0.75953,72.36
0.75464,71.773
0.74585,71.382
0.73509,70.795
0.72043,70.404
0.70283,69.818
0.68328,69.426
0.66178,69.035
0.63832,68.644
0.61388,68.057
0.58944,67.471
0.56598,67.08
0.5435,66.493
0.52199,65.906
0.50538,65.124
0.48974,64.537
0.47605,63.755
0.46334,63.168
0.45259,62.582
0.44282,61.995
0.435,61.408
0.42815,61.017
0.42326,60.626
0.41838,60.039
0.41447,59.844
0.41056,59.452
0.40762,59.648
0.40469,59.844
0.40176,61.017
0.39785,63.364
0.39492,67.666
0.38807,73.924
0.38025,81.747
0.37439,89.961
0.3695,98.175
0.36559,105.8
0.3607,112.65
0.35679,118.32
0.35288,122.43
0.34995,125.36
0.34702,126.92
0.34409,127.31
0.34018,126.92
0.33627,125.55
0.33333,123.79
0.32942,121.84
0.32454,119.49
0.32063,116.75
0.31574,114.02
0.31183,110.69
0.30694,107.17
0.30303,103.46
0.3001,99.348
0.29619,95.241
0.29228,91.134
0.28837,87.614
0.28446,84.485
0.27957,81.747
0.27664,79.596
0.27468,78.031
0.27664,76.662
0.28348,75.685
0.29814,74.902
0.31672,74.511
0.34115,74.316
0.37439,74.12
0.41544,74.12
0.46041,73.924
0.50733,73.924
0.55327,73.924
0.59531,73.924
0.63148,73.729
0.6608,73.533
0.68426,73.338
0.70186,72.947
0.71261,72.555
0.7175,72.164
0.71848,71.773
0.71554,71.186
0.71065,70.795
0.70283,70.209
0.6911,69.622
0.67644,69.231
0.65885,68.644
0.6393,68.253
0.61779,67.666
0.59335,67.275
0.56891,66.884
0.54741,66.297
0.52688,65.906
0.5044,65.319
0.48289,64.733
0.46334,64.342
0.44477,63.755
0.42913,62.973
0.41544,62.582
0.40274,61.995
0.39296,61.408
0.38514,60.821
0.37732,60.43
0.37146,59.844
0.36755,59.452
0.36364,59.061
0.3607,58.866
0.35679,58.67
0.35386,58.866
0.34995,59.452
0.34702,61.017
0.34311,63.95
0.3392,68.84
0.33627,75.489
0.33236,83.312
0.32845,91.525
0.32551,99.348
0.32258,106.39
0.31965,112.84
0.31574,117.93
0.31183,121.45
0.30792,123.79
0.30401,124.77
0.30108,124.77
0.29717,123.99
0.29423,122.43
0.29032,120.47
0.28641,118.12
0.2825,115.58
0.27957,112.65
0.27761,109.52
0.27468,105.8
0.27077,102.09
0.26686,97.979
0.26295,93.677
0.26002,89.57
0.25611,85.854
0.2522,82.725
0.24927,79.987
0.24536,77.64
0.2434,75.88
0.24438,74.707
0.24731,73.729
0.25611,72.947
0.27175,72.555
0.29521,72.36
0.32747,72.164
0.36657,72.164
0.41153,72.164
0.45943,72.164
0.50635,72.164
0.55132,72.164
0.5914,72.164
0.62561,71.969
0.65005,71.969
0.66764,71.578
0.68133,71.382
0.69208,70.991
0.69795,70.6
0.69892,70.209
0.69599,69.622
0.68817,69.231
0.6784,68.644
0.66373,68.253
0.64712,67.666
0.62757,67.275
0.60802,66.688
0.58749,66.297
0.565,65.906
0.54057,65.319
0.51613,64.928
0.49169,64.342
0.46921,63.95
0.44868,63.364
0.43011,62.777
0.41349,62.19
0.3998,61.799
0.3871,61.213
0.37732,60.821
0.37048,60.235
0.36461,59.844
0.35875,59.257
0.35386,58.866
0.34995,58.475
0.34604,58.083
0.34311,57.888
0.34018,57.888
0.33724,58.279
0.33431,59.061
0.33236,60.626
0.32942,63.95
0.32747,68.84
0.32551,75.293
0.32258,82.725
0.31965,90.157
0.31574,97.197
0.31281,103.85
0.3089,109.32
0.30499,114.02
0.30205,117.14
0.29814,119.1
0.29423,119.88
0.2913,119.69
0.28739,118.71
0.28543,117.14
0.2825,114.99
0.28055,112.45
0.27664,109.52
0.2737,106.39
0.27077,102.67
0.26686,98.957
0.26295,94.85
0.25904,90.743
0.25611,86.832
0.2522,83.312
0.24927,80.378
0.24731,77.836
0.24536,75.685
0.2434,74.12
0.24242,72.947
0.24242,71.969
0.24731,71.382
0.25709,70.991
0.27468,70.6
0.3001,70.6
0.33333,70.404
0.37243,70.404
0.41642,70.404
0.46237,70.404
0.50244,70.404
0.53666,70.404
0.57185,70.404
0.60313,70.209
0.6305,70.013
0.65103,69.818
0.66667,69.622
0.67644,69.231
0.68035,68.84
0.67937,68.449
0.67449,68.057
0.66569,67.471
0.65396,67.08
0.64027,66.688
0.62366,66.297
0.60313,65.906
0.58065,65.319
0.55718,64.928
0.53275,64.537
0.50929,64.146
0.48583,63.559
0.46432,63.168
0.44477,62.582
0.4262,61.995
0.41056,61.604
0.39883,61.213
0.38905,60.626
0.38025,60.039
0.37146,59.648
0.36461,59.061
0.35875,58.67
0.35386,58.279
0.34995,57.888
0.34702,57.692
0.34409,57.301
0.34115,57.301
0.33822,57.497
0.33724,58.279
0.33529,59.648
0.33333,62.582
0.33138,67.275
0.32845,73.729
0.32551,80.965
0.32258,88.592
0.31965,95.828
0.31672,102.48
0.31378,108.54
0.31085,113.23
0.30694,116.95
0.30401,119.1
0.30205,120.27
0.3001,120.27
0.29717,119.49
0.29423,117.93
0.2913,115.97
0.28739,113.62
0.28446,110.89
0.28055,107.76
0.27761,104.43
0.2737,100.72
0.27077,96.61
0.26979,92.308
0.27077,88.396
0.27077,84.681
0.26979,81.356
0.26686,78.618
0.26393,76.467
0.261,74.707
0.25904,73.338
0.25904,72.164
0.26295,71.578
0.27273,71.186
0.29032,70.795
0.31574,70.6
0.34409,70.6
0.37634,70.6
0.4174,70.6
0.46334,70.6
0.51124,70.6
0.55718,70.6
0.59922,70.6
0.63539,70.6
0.66569,70.404
0.68915,70.209
0.70674,69.818
0.7175,69.426
0.72336,69.035
0.72336,68.84
0.71848,68.253
0.71065,67.862
0.6999,67.471
0.68524,66.884
0.66667,66.493
0.64614,65.906
0.62268,65.711
0.59824,65.124
0.57283,64.733
0.54741,64.342
0.52199,63.755
0.50049,63.364
0.48192,62.777
0.46334,62.386
0.44673,61.799
0.43109,61.408
0.4174,60.821
0.40567,60.43
0.39589,59.844
0.38807,59.452
0.38123,58.866
0.37634,58.475
0.37146,58.083
0.36755,57.692
0.36461,57.497
0.36266,57.497
0.35973,57.692
0.35777,58.279
0.35484,59.844
0.35191,62.582
0.34897,67.471
0.34604,73.729
0.34311,81.16
0.34018,88.983
0.33627,96.415
0.33333,103.26
0.3304,109.52
0.32845,114.41
0.32551,118.12
0.3216,120.67
0.31867,121.84
0.31476,122.03
0.31183,121.45
0.30792,120.08
0.30499,118.12
0.30108,115.97
0.29717,113.43
0.29326,110.5
0.28935,107.17
0.28739,103.65
0.28446,99.739
0.28152,95.632
0.27859,91.525
0.27566,87.419
0.27175,84.094
0.26784,81.16
0.26491,78.618
0.261,76.662
0.25904,75.098
0.25904,73.924
0.26393,73.142
0.27175,72.555
0.28543,72.36
0.30694,72.164
0.33724,72.164
0.37634,72.164
0.42131,72.164
0.47019,72.164
0.51906,72.36
0.56696,72.36
0.60899,72.36
0.64712,72.36
0.67742,72.164
0.70186,72.164
0.7175,71.969
0.7263,71.578
0.73216,71.186
0.73412,70.795
0.73216,70.404
0.7263,70.013
0.71554,69.622
0.70186,69.035
0.68524,68.644
0.66471,68.253
0.64223,67.862
0.61681,67.471
0.59433,66.884
0.57283,66.493
0.54839,65.906
0.52493,65.515
0.50147,65.124
0.48094,64.537
0.46139,64.146
0.44477,63.559
0.43109,63.168
0.41838,62.777
0.4086,62.19
0.40078,61.799
0.39394,61.408
0.38905,60.821
0.38514,60.43
0.38221,60.039
0.3783,59.844
0.37634,59.844
0.37341,60.039
0.37146,60.821
0.3695,62.582
0.36657,65.906
0.36461,71.382
0.36266,78.422
0.35973,86.441
0.35777,94.655
0.35582,102.28
0.35386,109.32
0.35093,115.58
0.348,120.47
0.34506,123.99
0.34213,126.14
0.3392,127.12
0.33627,126.92
0.33333,126.14
0.3304,124.58
0.32747,122.82
0.32454,120.67
0.32258,118.32
0.32063,115.58
0.31867,112.45
0.31574,108.93
0.31281,105.22
0.30987,101.3
0.30792,97.197
0.30499,93.09
0.30205,89.374
0.29912,86.245
0.29619,83.507
0.29326,81.356
0.29228,79.596
0.29326,78.227
0.29814,77.249
0.30792,76.662
0.32551,76.076
0.35093,75.88
0.38612,75.88
0.42815,75.685
0.47507,75.88
0.52493,75.88
0.5738,75.88
0.61877,75.88
0.65982,75.88
0.69013,75.685
0.71359,75.489
0.73412,75.293
0.74976,74.902
0.76149,74.316
0.76833,73.729
0.77028,73.142
0.76833,72.555
0.76246,71.969
0.75269,71.382
0.739,70.795
0.72239,70.209
0.70577,69.622
0.68719,69.231
0.66471,68.84
0.64125,68.253
0.61681,67.666
0.5914,67.275
0.56794,66.688
0.54448,66.102
0.52297,65.711
0.5044,65.124
0.4868,64.537
0.47214,63.95
0.46041,63.364
0.45064,62.973
0.44282,62.386
0.43597,61.799
0.43011,61.213
0.42522,60.821
0.42033,60.43
0.41642,60.039
0.41251,59.844
0.40958,60.039
0.40567,60.821
0.40274,62.777
0.39883,66.493
0.39589,72.164
0.39296,79.791
0.38905,88.005
0.38514,96.415
0.38123,104.24
0.37634,111.67
0.37146,117.93
0.36755,122.82
0.36266,126.14
0.35777,128.1
0.35386,128.68
0.34897,128.49
0.34506,127.31
0.34213,125.75
0.33822,123.79
0.33431,121.45
0.32942,118.9
0.32454,116.17
0.31965,113.04
0.31476,109.52
0.30987,105.61
0.30499,101.69
0.3001,97.588
0.29521,93.286
0.29032,89.374
0.28641,86.05
0.2825,83.116
0.27859,80.769
0.27566,78.814
0.27468,77.445
0.27761,76.467
0.28739,75.685
0.30499,75.098
0.33138,74.902
0.36657,74.707
0.4086,74.511
0.4565,74.511
0.49951,74.511
0.53861,74.511
0.58065,74.316
0.62072,74.316
0.65591,74.12
0.68426,73.924
0.70088,73.533
0.70772,73.338
0.71261,72.947
0.71554,72.36
0.71457,71.969
0.71065,71.382
0.70283,70.795
0.69306,70.404
0.68035,69.818
0.66569,69.231
0.64712,68.84
0.62757,68.253
0.60508,67.666
0.58065,67.275
0.55621,66.688
0.53177,66.297
0.50733,65.711
0.48485,65.124
0.46334,64.733
0.44575,64.146
0.43206,63.559
0.4174,62.973
0.40567,62.582
0.39492,61.995
0.38514,61.408
0.37732,61.017
0.37048,60.626
0.36559,60.039
0.3607,59.648
0.35679,59.452
0.35288,59.257
0.34995,59.257
0.34702,59.648
0.34506,60.821
0.34213,63.168
0.3392,67.471
0.33627,73.729
0.33236,81.356
0.32942,89.374
0.32551,97.588
0.3216,105.02
0.31769,111.86
0.31378,117.73
0.30987,121.84
0.30694,124.77
0.30499,126.34
0.30205,126.73
0.29814,125.95
0.29423,124.77
0.2913,122.82
0.28739,120.67
0.28348,118.12
0.27957,115.38
0.27566,112.26
0.27175,108.74
0.26784,105.02
0.26393,100.91
0.26197,96.61
0.26002,92.503
0.25709,88.592
0.25415,85.072
0.25024,82.138
0.24731,79.791
0.24438,77.836
0.2434,76.271
0.24438,75.098
0.25122,74.316
0.26491,73.729
0.28641,73.338
0.31085,73.142
0.34018,72.947
0.37928,72.947
0.42424,72.947
0.47214,72.947
0.51906,72.947
0.56305,72.947
0.60215,72.751
0.63441,72.751
0.6608,72.555
0.68035,72.164
0.69404,71.969
0.70186,71.578
0.70381,71.186
0.70186,70.6
0.69697,70.209
0.68915,69.622
0.67742,69.035
0.66276,68.644
0.64516,68.057
0.62463,67.666
0.60215,67.275
0.57771,66.688
0.55327,66.297
0.52884,65.711
0.50635,65.319
0.4868,64.733
0.46628,64.342
0.44673,63.755
0.42913,63.168
0.41251,62.582
0.39883,62.19
0.3871,61.604
0.37732,61.017
0.3695,60.626
0.36266,60.039
0.35679,59.648
0.35191,59.257
0.348,58.866
0.34604,58.475
0.34311,58.475
0.34018,58.475
0.33822,59.061
0.33529,60.235
0.33236,62.777
0.32942,67.08
0.32649,73.142
0.32356,80.378
0.32063,88.005
0.31672,95.632
0.31476,102.67
0.31183,109.13
0.3089,114.41
0.30596,118.32
0.30303,121.06
0.29912,122.43
0.29619,122.62
0.29228,122.03
0.28935,120.67
0.28543,118.9
0.2825,116.56
0.27859,113.82
0.27468,110.89
0.27175,107.56
0.26979,103.85
0.26686,99.935
0.26393,95.828
0.26002,91.721
0.25709,87.614
0.25318,84.289
0.25024,81.16
0.24633,78.618
0.2434,76.662
0.24145,75.098
0.24047,73.729
0.24242,72.947
0.24829,72.36
0.25904,71.969
0.27859,71.773
0.30499,71.578
0.34018,71.578
0.38123,71.382
0.42717,71.382
0.4741,71.578
0.52004,71.578
0.56207,71.382
0.59922,71.382
0.62952,71.186
0.652,70.991
0.66667,70.795
0.6784,70.6
0.68524,70.209
0.68817,69.818
0.68719,69.231
0.68231,68.84
0.67253,68.449
0.65982,67.862
0.64418,67.471
0.62561,66.884
0.60411,66.493
0.58358,66.102
0.56305,65.711
0.53959,65.124
0.51613,64.733
0.49267,64.342
0.47019,63.755
0.44966,63.168
0.43109,62.777
0.41447,62.19
0.40078,61.799
0.38807,61.213
0.3783,60.821
0.3695,60.235
0.36364,59.844
0.35875,59.257
0.35386,58.866
0.34995,58.475
0.34604,58.083
0.34311,57.888
0.34018,57.888
0.33822,58.279
0.33529,59.061
0.33333,61.017
0.3304,64.733
0.32845,70.209
0.32649,77.249
0.32454,84.876
0.32258,92.699
0.31965,100.13
0.31672,106.98
0.31378,112.84
0.30987,117.54
0.30694,120.86
0.30303,122.82
0.3001,123.6
0.29717,123.4
0.29326,122.43
0.2913,120.67
0.28935,118.71
0.28641,116.17
0.28348,113.23
0.27957,110.1
0.27664,106.58
0.27273,102.87
0.26979,98.761
0.26588,94.459
0.26295,90.352
0.26002,86.636
0.25611,83.312
0.25318,80.378
0.25024,78.031
0.24829,76.076
0.24731,74.707
0.24731,73.533
0.25122,72.751
0.26002,72.164
0.27664,71.969
0.30205,71.773
0.33529,71.578
0.38807,71.578
0.44086,71.578
0.47898,71.578
0.51515,71.578
0.54936,71.578
0.58553,71.578
0.61975,71.578
0.64907,71.382
0.67155,71.186
0.68915,70.991
0.6999,70.6
0.70577,70.404
0.70674,70.013
0.70381,69.622
0.69599,69.035
0.68426,68.644
0.67058,68.253
0.65494,67.666
0.63636,67.471
0.61388,67.08
0.59042,66.688
0.56598,66.297
0.54057,65.906
0.51613,65.319
0.49169,64.928
0.47019,64.537
0.44966,63.95
0.43402,63.559
0.42229,62.973
0.41447,62.582
0.40762,61.995
0.39785,61.604
0.38905,61.213
0.38319,60.626
0.3783,60.235
0.37341,59.844
0.3695,59.648
0.36559,59.257
0.36266,59.257
0.3607,59.452
0.35777,60.235
0.35582,62.19
0.35386,65.711
0.35191,70.991
0.348,78.031
0.34506,85.854
0.34213,93.677
0.3392,101.11
0.33627,108.15
0.33431,114.21
0.33138,119.1
0.32747,122.62
0.32454,124.77
0.32258,125.55
0.32063,125.55
0.31867,124.58
0.31574,123.21
0.31281,121.06
0.30987,118.9
0.30596,116.36
0.30108,113.43
0.29814,110.3
0.29619,106.58
0.29326,102.87
0.29032,98.761
0.28739,94.655
0.28543,90.548
0.2825,87.223
0.27957,84.094
0.27761,81.552
0.27468,79.596
0.27273,77.836
0.27273,76.662
0.27761,75.88
0.28739,75.293
0.31476,74.902
0.35777,74.902
0.39101,74.707
0.41349,74.707
0.45846,74.707
0.50635,74.902
0.5435,74.902
0.58456,74.902
0.63245,74.902
0.67253,74.707
0.69892,74.511
0.72043,74.316
0.73705,73.924
0.74878,73.533
0.75464,73.142
0.7566,72.751
0.75171,72.164
0.74389,71.773
0.73607,71.186
0.72434,70.795
0.70381,70.404
0.68328,69.818
0.66667,69.426
0.64516,69.035
0.61584,68.644
0.58749,68.057
0.56794,67.471
0.54643,67.08
0.52297,66.493
0.50342,65.906
0.48974,65.515
0.47507,64.928
0.46139,64.537
0.4477,63.95
0.43695,63.559
0.43011,62.973
0.42326,62.582
0.4174,61.995
0.41349,61.604
0.40958,61.213
0.40665,60.821
0.40371,60.626
0.40176,60.821
0.3998,61.408
0.39687,63.559
0.39394,67.275
0.39198,73.142
0.38905,80.769
0.38514,88.983
0.38025,97.588
0.37732,105.61
0.37439,112.84
0.37146,119.1
0.36755,123.99
0.36559,127.31
0.36266,129.27
0.35973,130.05
0.35484,129.66
0.35191,128.68
0.34995,127.12
0.34702,124.97
0.34311,122.62
0.34018,120.08
0.33627,117.14
0.33138,114.02
0.32747,110.5
0.32454,106.58
0.32258,102.67
0.31867,98.37
0.31574,94.263
0.31281,90.352
0.3089,87.027
0.30401,84.289
0.3001,81.747
0.29814,79.791
0.29814,78.227
0.30205,77.249
0.31281,76.467
0.32747,75.88
0.348,75.489
0.39101,75.489
0.45064,75.293
0.49267,75.293
0.52688,75.293
0.57869,75.293
0.62659,75.098
0.65787,75.098
0.68915,74.902
0.71848,74.707
0.73998,74.316
0.75269,73.924
0.75953,73.533
0.76149,73.142
0.76051,72.555
0.75758,71.969
0.74682,71.382
0.73021,70.795
0.71652,70.404
0.70479,69.818
0.68817,69.231
0.6608,68.84
0.62757,68.253
0.6002,67.862
0.57576,67.471
0.55132,66.884
0.52688,66.493
0.50929,65.906
0.49071,65.319
0.46725,64.733
0.44868,64.342
0.43402,63.755
0.42131,63.168
0.41056,62.582
0.40371,62.19
0.39785,61.604
0.39101,61.213
0.38612,60.626
0.38123,60.235
0.37732,59.844
0.37341,59.648
0.3695,59.648
0.36559,60.039
0.36168,61.408
0.35777,64.146
0.35386,68.84
0.34995,75.489
0.34506,83.312
0.34213,91.917
0.3392,100.13
0.33529,107.76
0.3304,114.8
0.32649,120.27
0.32258,124.38
0.31769,127.12
0.31378,128.68
0.30987,128.88
0.30596,128.29
0.30205,126.92
0.29814,125.16
0.29521,123.01
0.29228,120.47
0.28935,117.73
0.28641,114.8
0.2825,111.28
0.27859,107.56
0.27566,103.65
0.27175,99.348
0.26784,95.046
0.26393,90.939
0.261,87.223
0.25709,84.094
0.25318,81.356
0.2522,79.4
0.25415,77.64
0.25904,76.467
0.27077,75.489
0.29032,74.902
0.31867,74.511
0.35582,74.12
0.3998,74.12
0.44868,73.924
0.49951,73.924
0.54936,73.924
0.59531,73.729
0.6305,73.729
0.65787,73.729
0.68328,73.533
0.70381,73.338
0.71848,73.142
0.72825,72.751
0.73314,72.36
0.73314,71.969
0.72825,71.578
0.72043,70.991
0.7087,70.6
0.69404,70.013
0.67644,69.426
0.65787,69.035
0.63832,68.449
0.61584,67.862
0.5914,67.471
0.565,66.884
0.53959,66.493
0.51417,65.906
0.48974,65.515
0.46823,64.928
0.44868,64.537
0.43109,63.95
0.41642,63.364
0.40567,62.777
0.39687,62.19
0.38807,61.799
0.38025,61.408
0.37439,60.821
0.36852,60.43
0.36364,59.844
0.35973,59.452
0.35679,59.257
0.35288,59.061
0.34995,59.257
0.34702,59.648
0.34409,61.017
0.34213,63.755
0.34018,68.253
0.33724,74.511
0.33333,82.138
0.3304,90.352
0.32649,98.175
0.3216,105.61
0.31769,112.06
0.31281,117.54
0.3089,121.45
0.30596,124.19
0.30205,125.55
0.29912,125.75
0.29717,125.16
0.29423,123.99
0.2913,122.23
0.28739,120.08
0.28348,117.54
0.28055,114.6
0.27664,111.47
0.27273,107.76
0.26979,104.04
0.26588,99.739
0.26295,95.437
0.26002,91.33
0.25709,87.419
0.25513,84.289
0.25318,81.356
0.25024,79.009
0.24829,77.249
0.25024,75.88
0.25513,74.707
0.26784,74.12
0.28739,73.533
0.31574,73.338
0.35191,73.142
0.39492,72.947
0.435,72.947
0.4741,72.947
0.51711,72.947
0.56012,72.947
0.59922,72.947
0.63245,72.751
0.65982,72.555
0.68133,72.36
0.69599,72.164
0.70479,71.969
0.7087,71.578
0.7087,70.991
0.70381,70.6
0.69599,70.209
0.68524,69.622
0.67155,69.231
0.65494,68.644
0.63441,68.253
0.6129,67.666
0.58847,67.275
0.56403,66.884
0.53861,66.297
0.51417,65.906
0.49071,65.319
0.46921,64.733
0.45064,64.342
0.43597,63.755
0.42131,63.168
0.4086,62.777
0.39687,62.19
0.3871,61.799
0.37928,61.213
0.37243,60.821
0.36657,60.235
0.36266,59.844
0.35875,59.452
0.35484,59.061
0.35191,58.866
0.34897,58.67
0.348,58.866
0.34604,59.648
0.34311,61.408
0.34115,64.733
0.33822,69.818
0.33529,76.662
0.33236,84.485
0.32942,92.503
0.32551,100.33
0.32258,107.17
0.31965,113.43
0.31672,118.32
0.31476,122.03
0.31183,124.19
0.3089,125.16
0.30499,125.16
0.30205,124.38
0.29814,122.82
0.29521,120.86
0.2913,118.51
0.28837,115.97
0.28446,113.04
0.28055,109.52
0.27664,105.8
0.27468,101.89
0.27273,97.588
0.26979,93.286
0.26686,89.179
0.26393,85.463
0.26002,82.334
0.25709,79.791
0.25415,77.64
0.25415,76.076
0.25709,74.707
0.26491,73.924
0.28055,73.338
0.29912,72.947
0.32454,72.555
0.35875,72.555
0.40078,72.36
0.44673,72.36
0.49462,72.36
0.54154,72.36
0.58456,72.36
0.6217,72.36
0.65298,72.164
0.67742,72.164
0.69599,71.969
0.7087,71.578
0.71457,71.382
0.71554,70.795
0.71359,70.404
0.7087,70.013
0.6999,69.426
0.68719,69.035
0.67155,68.644
0.65298,68.057
0.63148,67.666
0.60802,67.275
0.58358,66.688
0.55816,66.297
0.53568,65.906
0.51417,65.319
0.49267,64.928
0.47214,64.342
0.45259,63.95
0.435,63.364
0.41935,62.973
0.40567,62.386
0.39492,61.995
0.38514,61.408
0.37732,61.017
0.37146,60.626
0.36657,60.039
0.36364,59.648
0.35973,59.257
0.35679,59.061
0.35386,58.866
0.35093,59.061
0.348,59.648
0.34506,60.821
0.34311,63.364
0.34018,67.862
0.33724,74.12
0.33333,81.747
0.3304,89.961
0.32747,97.979
0.32551,105.61
0.32258,112.26
0.31965,117.93
0.31672,122.23
0.31281,125.16
0.30987,126.73
0.30596,127.31
0.30303,126.92
0.29912,125.55
0.29619,123.99
0.29228,121.84
0.28935,119.49
0.28739,116.75
0.28446,113.82
0.28152,110.3
0.27859,106.58
0.27566,102.48
0.27273,97.979
0.26882,93.677
0.26588,89.765
0.26295,86.245
0.26002,83.116
0.25709,80.769
0.25611,78.814
0.25709,77.445
0.26197,76.271
0.27175,75.489
0.28935,75.098
0.31476,74.707
0.34897,74.707
0.39003,74.511
0.43695,74.511
0.48583,74.707
0.53372,74.707
0.57967,74.707
0.61975,74.707
0.65005,74.707
0.67253,74.707
0.69306,74.511
0.7087,74.316
0.72043,73.924
0.7263,73.533
0.72825,73.142
0.72532,72.751
0.71945,72.164
0.7087,71.773
0.69599,71.186
0.6784,70.6
0.65885,70.209
0.6393,69.818
0.61975,69.231
0.59629,68.84
0.57283,68.449
0.54839,67.862
0.52395,67.471
0.50147,66.884
0.47996,66.297
0.46139,65.906
0.44575,65.319
0.43109,64.928
0.42033,64.342
0.41153,63.95
0.40469,63.364
0.39883,62.973
0.39394,62.582
0.38905,61.995
0.38514,61.604
0.38221,61.213
0.38025,61.017
0.37732,61.017
0.37537,61.408
0.37341,62.386
0.37048,64.733
0.36852,69.035
0.36657,75.489
0.36559,83.312
0.36266,91.721
0.3607,100.13
0.35777,107.95
0.35484,115.19
0.35093,121.25
0.348,125.75
0.34506,128.88
0.34311,130.64
0.34018,131.03
0.33724,130.44
0.33529,129.27
0.33333,127.51
0.33138,125.55
0.32845,123.21
0.32551,120.47
0.3216,117.54
0.31867,114.41
0.31574,110.89
0.31183,106.98
0.3089,102.87
0.30596,98.566
0.30303,94.459
0.29912,90.548
0.29814,87.223
0.29814,84.289
0.29717,81.943
0.29717,80.183
0.30108,78.814
0.30987,77.836
0.32747,77.054
0.35288,76.662
0.3871,76.271
0.42815,76.076
0.47507,76.076
0.52493,75.88
0.56696,75.88
0.60411,75.88
0.64125,75.685
0.67644,75.489
0.70479,75.293
0.72825,74.902
0.74487,74.511
0.7566,74.12
0.76246,73.533
0.76442,73.142
0.76149,72.555
0.75464,72.164
0.74487,71.578
0.73216,70.991
0.71848,70.404
0.70088,70.013
0.68133,69.426
0.65885,69.035
0.63441,68.449
0.60997,67.862
0.58456,67.471
0.55914,67.08
0.53568,66.493
0.5132,65.906
0.49267,65.319
0.47703,64.928
0.46334,64.342
0.44966,63.755
0.43793,63.168
0.42717,62.582
0.41838,61.995
0.41056,61.604
0.40371,61.017
0.39785,60.626
0.39198,60.235
0.3871,59.844
0.38221,59.648
0.3783,59.648
0.37439,60.039
0.37146,61.604
0.36755,64.537
0.36266,69.818
0.35777,76.662
0.35288,85.072
0.348,93.677
0.34311,102.09
0.33822,110.1
0.33431,116.95
0.32942,122.43
0.32551,126.53
0.3216,129.07
0.31867,130.44
0.31574,130.44
0.31183,129.66
0.30792,128.29
0.30401,126.34
0.3001,123.99
0.29619,121.45
0.2913,118.71
0.28739,115.58
0.28348,112.06
0.27957,108.34
0.27566,104.43
0.27273,100.13
0.27077,95.828
0.26686,91.525
0.26295,87.81
0.25904,84.485
0.25611,81.747
0.25318,79.596
0.25318,78.031
0.25904,76.662
0.27077,75.685
0.2913,75.098
0.3216,74.511
0.35386,74.316
0.38905,74.12
0.43304,74.12
0.48192,74.12
0.53177,74.12
0.57869,73.924
0.61975,73.924
0.65494,73.729
0.68328,73.729
0.70479,73.533
0.72043,73.142
0.72923,72.947
0.73314,72.36
0.73216,71.969
0.72825,71.382
0.72043,70.795
0.71065,70.404
0.69697,69.818
0.68035,69.231
0.6608,68.84
0.6393,68.253
0.61584,67.666
0.59042,67.275
0.565,66.688
0.53959,66.102
0.51711,65.711
0.49658,65.319
0.47605,64.733
0.4565,64.146
0.43891,63.559
0.42229,62.973
0.4086,62.582
0.39687,61.995
0.3871,61.408
0.37928,61.017
0.37243,60.43
0.36755,60.039
0.36364,59.648
0.3607,59.061
0.35679,58.866
0.35386,58.475
0.35093,58.475
0.348,58.866
0.34409,60.039
0.34115,62.386
0.33724,66.688
0.33431,72.947
0.3304,80.378
0.32649,88.592
0.32258,96.61
0.31965,104.24
0.31769,110.89
0.31378,116.75
0.31085,121.06
0.30694,123.99
0.30303,125.55
0.29912,126.14
0.29521,125.55
0.29228,124.38
0.28837,122.43
0.28446,120.27
0.28055,117.73
0.27761,114.8
0.27566,111.67
0.27273,107.95
0.26979,104.24
0.26686,99.935
0.26295,95.632
0.25904,91.525
0.25611,87.614
0.2522,84.094
0.24927,81.16
0.24536,78.814
0.2434,76.662
0.24438,75.293
0.24829,74.12
0.25611,73.338
0.27077,72.751
0.29423,72.36
0.32649,72.164
0.36559,71.969
0.41153,71.969
0.46139,71.969
0.51124,71.969
0.55816,71.969
0.6002,71.969
0.63636,71.773
0.66276,71.773
0.68231,71.578
0.69795,71.382
0.7087,70.991
0.71554,70.6
0.7175,70.209
0.71554,69.818
0.7087,69.231
0.69795,68.84
0.68426,68.253
0.66764,67.666
0.64712,67.275
0.62463,66.688
0.60313,66.297
0.58162,65.906
0.55718,65.515
0.53275,64.928
0.50831,64.537
0.48485,63.95
0.46237,63.559
0.44379,62.973
0.4262,62.386
0.41153,61.799
0.39883,61.408
0.38807,60.821
0.38025,60.43
0.37341,59.844
0.36852,59.452
0.36266,58.866
0.35875,58.475
0.35484,58.083
0.35093,57.692
0.348,57.497
0.34604,57.692
0.34311,57.888
0.34018,58.866
0.33822,60.821
0.33529,64.537
0.33333,70.209
0.33138,77.445
0.32845,85.463
0.32551,93.286
0.3216,100.72
0.31769,107.56
0.31476,113.43
0.31085,117.93
0.30792,121.25
0.30401,123.01
0.30108,123.79
0.29717,123.4
0.29521,122.23
0.29326,120.47
0.29032,118.32
0.28739,115.78
0.28446,112.84
0.28055,109.52
0.27761,106
0.2737,102.09
0.26979,97.979
0.26686,93.677
0.26393,89.374
0.261,85.658
0.25709,82.334
0.25513,79.4
0.25318,77.054
0.25122,75.098
0.25024,73.729
0.25318,72.751
0.26002,72.164
0.27468,71.578
0.29717,71.186
0.32845,70.991
0.36852,70.991
0.41349,70.795
0.46237,70.795
0.50538,70.991
0.54448,70.991
0.58553,70.991
0.62268,70.795
0.65591,70.795
0.68231,70.6
0.70186,70.404
0.71065,70.013
0.71163,69.818
0.71065,69.231
0.70772,68.84
0.6999,68.449
0.69013,67.862
0.67742,67.471
0.66276,66.884
0.64516,66.493
0.62561,66.102
0.60313,65.711
0.57869,65.124
0.55425,64.733
0.52981,64.342
0.50538,63.755
0.48387,63.364
0.46334,62.777
0.44477,62.386
0.43011,61.799
0.41838,61.213
0.40762,60.821
0.39785,60.235
0.38905,59.844
0.38221,59.257
0.37634,58.866
0.37048,58.279
0.36657,57.888
0.36266,57.497
0.35973,57.106
0.35777,56.91
0.35484,56.91
0.35288,57.301
0.35191,58.279
0.34995,60.626
0.34702,64.537
0.34409,70.404
0.34115,77.64
0.33822,85.658
0.33529,93.481
0.33236,100.72
0.32845,107.37
0.32551,113.04
0.3216,117.54
0.31965,120.67
0.31769,122.43
0.31476,123.01
0.31183,122.62
0.3089,121.64
0.30596,119.88
0.30205,117.73
0.29912,115.19
0.29521,112.26
0.29228,109.13
0.28837,105.61
0.28543,101.69
0.28152,97.588
0.27957,93.286
0.27761,89.179
0.27468,85.463
0.27175,81.943
0.26882,79.205
0.26588,76.858
0.26295,75.098
0.26295,73.533
0.26491,72.555
0.2737,71.773
0.28837,71.186
0.31183,70.991
0.33822,70.6
0.36852,70.6
0.40762,70.6
0.45259,70.6
0.49951,70.6
0.54545,70.6
0.58749,70.6
0.62463,70.6
0.65591,70.404
0.68035,70.209
0.69892,70.013
0.71065,69.818
0.71652,69.426
0.7175,69.035
0.71554,68.644
0.70968,68.057
0.70088,67.666
0.68817,67.275
0.67253,66.688
0.65396,66.297
0.63245,65.906
0.60997,65.319
0.58553,64.928
0.56012,64.537
0.53568,64.146
0.51417,63.559
0.49462,62.973
0.47605,62.582
0.45748,61.995
0.44086,61.408
0.4262,61.017
0.41349,60.43
0.40274,60.039
0.39394,59.648
0.3871,59.061
0.38025,58.67
0.37537,58.279
0.37146,57.692
0.36852,57.301
0.36559,56.91
0.36364,56.715
0.3607,56.91
0.35777,57.301
0.35582,58.475
0.35288,61.017
0.35093,65.515
0.348,71.773
0.34506,79.4
0.34115,87.419
0.33822,95.437
0.33529,102.87
0.33333,109.52
0.3304,115.19
0.32747,119.49
0.32454,122.43
0.3216,123.99
0.31867,124.38
0.31476,123.99
0.31183,122.62
0.3089,120.86
0.30499,118.71
0.30205,116.17
0.29912,113.23
0.29717,110.1
0.29423,106.58
0.2913,102.87
0.28837,98.761
0.28543,94.655
0.2825,90.352
0.27859,86.441
0.27566,82.725
0.27175,79.791
0.26882,77.445
0.26686,75.293
0.26686,73.924
0.26979,72.751
0.27664,71.969
0.2913,71.382
0.31281,70.991
0.34409,70.795
0.38221,70.795
0.42717,70.6
0.47507,70.6
0.52297,70.795
0.56989,70.795
0.61095,70.795
0.64712,70.795
0.67351,70.6
0.69306,70.6
0.7087,70.209
0.72043,70.013
0.72727,69.622
0.73021,69.231
0.72825,68.84
0.72239,68.449
0.71359,67.862
0.6999,67.471
0.68426,66.884
0.66471,66.493
0.64321,66.102
0.62268,65.711
0.60117,65.319
0.57771,64.733
0.55327,64.537
0.52884,63.95
0.50538,63.559
0.48387,62.973
0.46334,62.582
0.44575,61.995
0.43011,61.604
0.4174,61.213
0.40665,60.626
0.39785,60.235
0.39198,59.648
0.38612,59.257
0.38025,58.866
0.37537,58.475
0.37146,58.083
0.36852,57.888
0.36559,57.692
0.36266,57.888
0.35973,58.279
0.35679,59.844
0.35484,62.973
0.35191,67.862
0.34897,74.707
0.34702,82.529
0.34409,90.743
0.34115,98.566
0.33822,105.8
0.33529,112.26
0.33236,117.34
0.32845,121.25
0.32551,123.79
0.32258,124.97
0.31965,125.16
0.31574,124.38
0.31378,123.01
0.31183,121.25
0.3089,119.1
0.30596,116.56
0.30303,113.82
0.3001,110.69
0.29717,107.37
0.29326,103.65
0.29032,99.739
0.28739,95.632
0.28446,91.721
0.28152,88.005
0.27859,84.681
0.27664,81.747
0.27566,79.4
0.2737,77.445
0.27468,76.076
0.27859,74.902
0.28837,74.12
0.30499,73.533
0.3304,73.142
0.36364,72.947
0.40469,72.947
0.45064,72.947
0.49853,72.947
0.53959,72.947
0.57576,72.947
0.6129,72.947
0.64614,72.947
0.67546,72.751
0.69795,72.555
0.71554,72.36
0.72727,71.969
0.73314,71.578
0.73509,71.186
0.73216,70.795
0.7263,70.209
0.71652,69.622
0.70479,69.231
0.6911,68.644
0.67449,68.253
0.65494,67.862
0.63343,67.471
0.60997,66.884
0.58651,66.493
0.56305,65.906
0.53959,65.515
0.51808,64.928
0.49756,64.537
0.47996,63.95
0.4653,63.559
0.45259,62.973
0.43988,62.582
0.42815,61.995
0.41935,61.408
0.41153,61.017
0.40567,60.626
0.3998,60.235
0.39589,59.844
0.39198,59.452
0.38905,59.061
0.38612,59.061
0.38319,59.257
0.38123,60.039
0.37928,62.19
0.37634,65.906
0.37439,71.773
0.37146,79.205
0.36852,87.419
0.36461,95.632
0.36168,103.26
0.35777,110.3
0.35484,116.36
0.35093,121.25
0.348,124.58
0.34506,126.34
0.34311,127.12
0.34018,126.92
0.33627,125.75
0.33333,124.19
0.32942,122.23
0.32649,119.88
0.32258,117.34
0.31965,114.6
0.31574,111.28
0.31281,107.76
0.3089,104.04
0.30596,99.935
0.30303,95.828
0.30108,91.721
0.29814,87.81
0.29521,84.485
0.2913,81.552
0.28837,79.4
0.28641,77.445
0.28837,76.076
0.29423,74.902
0.30694,74.12
0.32747,73.729
0.35679,73.338
0.38905,73.142
0.42326,73.142
0.4653,73.142
0.51222,73.142
0.55816,73.142
0.60215,72.947
0.64125,72.751
0.67351,72.751
0.6999,72.36
0.71945,72.164
0.73314,71.773
0.74096,71.382
0.74291,70.795
0.74096,70.209
0.73607,69.622
0.72825,69.035
0.7175,68.644
0.70283,68.057
0.68622,67.666
0.66667,67.08
0.64418,66.688
0.62072,66.102
0.59531,65.711
0.56989,65.319
0.54448,64.733
0.52297,64.342
0.50342,63.755
0.48289,63.168
0.46432,62.777
0.44673,62.19
0.43206,61.799
0.41838,61.213
0.40762,60.626
0.39785,60.235
0.39003,59.648
0.38416,59.257
0.3783,58.67
0.37439,58.279
0.37048,57.888
0.36657,57.692
0.36364,57.497
0.35973,57.497
0.35582,58.083
0.35191,59.257
0.348,62.19
0.34409,67.08
0.34018,73.924
0.33627,81.943
0.33138,90.157
0.32747,98.175
0.32356,105.61
0.32063,111.86
0.31769,117.14
0.31378,121.06
0.30987,123.4
0.30596,124.38
0.30303,124.38
0.29912,123.4
0.29521,121.84
0.2913,119.88
0.28739,117.54
0.28348,114.8
0.28055,111.86
0.27859,108.74
0.27468,105.02
0.27175,101.11
0.26784,97.197
0.26491,93.09
0.261,88.983
0.25709,85.267
0.25415,81.943
0.25024,79.205
0.24633,77.054
0.24438,75.293
0.24438,73.924
0.24829,72.947
0.25611,72.164
0.27077,71.773
0.29423,71.382
0.32649,71.186
0.36657,70.991
0.41251,70.991
0.46139,70.991
0.51026,70.991
0.55621,70.991
0.59824,70.991
0.63343,70.795
0.65885,70.795
0.67742,70.6
0.69208,70.209
0.70186,69.818
0.70772,69.426
0.7087,69.035
0.70577,68.449
0.69892,67.862
0.68817,67.471
0.67449,66.884
0.65787,66.493
0.63832,65.906
0.61584,65.515
0.59531,65.124
0.57478,64.537
0.55132,64.342
0.52688,63.755
0.50342,63.168
0.48094,62.777
0.45943,62.19
0.44086,61.799
0.42424,61.213
0.40958,60.626
0.39687,60.039
0.38612,59.648
0.3783,59.061
0.37243,58.67
0.36755,58.083
0.36266,57.692
0.35777,57.106
0.35386,56.91
0.35093,56.519
0.348,56.323
0.34506,56.323
0.34213,56.519
0.3392,57.301
0.33627,59.257
0.33333,62.582
0.33138,67.862
0.32845,74.902
0.32551,82.529
0.32258,90.157
0.31965,97.393
0.31574,104.04
0.31281,109.71
0.3089,114.21
0.30499,117.54
0.30205,119.49
0.29814,120.08
0.29521,119.88
0.29228,118.71
0.29032,116.95
0.28739,114.8
0.28446,112.26
0.28055,109.32
0.27664,106
0.27273,102.48
0.26979,98.566
0.26588,94.655
0.26197,90.352
0.25904,86.441
0.25513,82.725
0.2522,79.596
0.25024,77.054
0.24829,74.902
0.24536,73.142
0.24438,71.773
0.24438,70.795
0.24927,70.209
0.26002,69.622
0.27761,69.426
0.30499,69.231
0.34018,69.231
0.38221,69.231
0.42815,69.231
0.47019,69.231
0.50831,69.231
0.54936,69.231
0.58847,69.231
0.6217,69.035
0.65005,68.84
0.67155,68.644
0.68622,68.253
0.69599,68.057
0.6999,67.471
0.69892,67.08
0.69404,66.688
0.68426,66.102
0.67253,65.711
0.65885,65.319
0.64125,64.733
0.62072,64.342
0.59824,63.95
0.57478,63.559
0.54936,63.168
0.52493,62.777
0.50049,62.19
0.47801,61.799
0.45748,61.408
0.43793,60.821
0.42326,60.43
0.41153,59.844
0.3998,59.257
0.38905,58.866
0.38025,58.279
0.37341,57.888
0.36657,57.497
0.36168,56.91
0.35679,56.519
0.35288,56.128
0.34995,55.737
0.348,55.541
0.34506,55.541
0.34409,55.737
0.34213,56.323
0.34018,57.888
0.33822,60.821
0.33529,65.711
0.33236,71.969
0.32942,79.4
0.32845,86.832
0.32747,94.068
0.32551,100.52
0.32258,106.39
0.31965,111.08
0.31769,114.6
0.31574,116.75
0.31281,117.73
0.30987,117.73
0.30694,116.75
0.30401,115.19
0.3001,113.23
0.29717,110.69
0.29326,107.95
0.29032,104.82
0.28641,101.3
0.28348,97.588
0.28055,93.481
0.27761,89.374
0.27664,85.463
0.2737,81.943
0.27077,78.814
0.26784,76.271
0.26491,74.12
0.261,72.36
0.25904,71.186
0.25904,70.209
0.26295,69.426
0.27273,69.035
0.28935,68.644
0.30987,68.449
0.33529,68.449
0.37048,68.449
0.41251,68.449
0.45846,68.449
0.5044,68.449
0.54936,68.449
0.58944,68.449
0.62463,68.253
0.65298,68.057
0.67546,67.862
0.69208,67.666
0.70088,67.471
0.70479,67.08
0.70479,66.688
0.70186,66.102
0.69404,65.711
0.68328,65.319
0.6696,64.733
0.65103,64.342
0.63148,63.95
0.60899,63.559
0.58456,62.973
0.56012,62.582
0.53666,62.19
0.51515,61.799
0.49658,61.408
0.47703,61.017
0.45846,60.43
0.44184,59.844
0.42717,59.452
0.41447,58.866
0.40274,58.475
0.39394,58.083
0.38612,57.497
0.37928,57.106
0.37439,56.715
0.37048,56.323
0.36755,55.737
0.36461,55.541
0.36168,55.346
0.35973,55.15
0.35679,55.346
0.35484,55.932
0.35191,57.497
0.34995,60.43
0.34702,65.124
0.34409,71.578
0.34115,79.009
0.33822,86.636
0.33529,93.872
0.33333,100.72
0.3304,106.78
0.32747,111.67
0.32454,115.19
0.3216,117.54
0.31769,118.71
0.31476,118.71
0.31183,117.93
0.3089,116.36
0.30499,114.6
0.30205,112.06
0.29912,109.52
0.29717,106.39
0.29423,103.06
0.2913,99.348
0.28837,95.437
0.28446,91.33
0.28152,87.419
0.27761,83.703
0.27468,80.574
0.27077,77.836
0.26784,75.489
0.26393,73.533
0.26197,72.164
0.26197,71.186
0.26491,70.404
0.27273,69.818
0.28641,69.426
0.30792,69.231
0.33822,69.231
0.37634,69.231
0.42033,69.231
0.46725,69.426
0.51515,69.426
0.56109,69.622
0.60215,69.622
0.63441,69.622
0.65885,69.426
0.68035,69.426
0.69795,69.231
0.70968,69.035
0.7175,68.644
0.71945,68.253
0.71652,67.862
0.71065,67.471
0.6999,66.884
0.68622,66.493
0.66862,66.102
0.64809,65.515
0.62854,65.124
0.60899,64.733
0.58651,64.342
0.56207,63.95
0.53763,63.559
0.51515,62.973
0.49267,62.582
0.47214,61.995
0.45455,61.604
0.43891,61.213
0.42522,60.626
0.41349,60.235
0.40469,59.844
0.39785,59.257
0.39198,58.866
0.3871,58.475
0.38221,58.279
0.3783,57.888
0.37537,57.497
0.37341,57.301
0.37048,57.106
0.36852,57.497
0.36657,58.475
0.36461,60.626
0.36266,64.537
0.3607,70.209
0.35875,77.445
0.35679,85.267
0.35386,93.09
0.35191,100.33
0.34897,106.78
0.34604,112.45
0.34311,116.75
0.34018,119.88
0.33724,121.64
0.33431,122.23
0.33236,121.64
0.3304,120.47
0.32845,118.9
0.32649,116.75
0.32356,114.41
0.3216,111.86
0.31867,108.74
0.31574,105.61
0.31281,102.09
0.30987,98.37
0.30694,94.459
0.30499,90.352
0.30205,86.832
0.29912,83.507
0.29814,80.574
0.29619,78.227
0.29423,76.467
0.29326,75.098
0.29423,74.12
0.29912,73.338
0.31085,72.751
0.32942,72.555
0.35582,72.36
0.39101,72.36
0.43206,72.36
0.47801,72.36
0.51906,72.555
0.55718,72.555
0.59629,72.555
0.63441,72.36
0.66764,72.36
0.69501,72.164
0.71652,71.773
0.73216,71.382
0.74194,70.991
0.74682,70.404
0.7478,69.818
0.74389,69.426
0.73607,68.84
0.72532,68.253
0.71261,67.666
0.69697,67.08
0.6784,66.493
0.65787,65.906
0.63539,65.515
0.61193,65.124
0.58847,64.537
0.565,64.146
0.54252,63.559
0.52199,63.168
0.50342,62.777
0.48778,62.19
0.47507,61.604
0.46334,61.213
0.45259,60.626
0.44282,60.235
0.43597,59.648
0.42913,59.257
0.42424,58.67
0.41935,58.279
0.41544,57.888
0.41251,57.497
0.40958,57.301
0.40567,57.301
0.40371,57.692
0.40176,59.257
0.39883,62.19
0.39589,67.08
0.39198,73.924
0.38807,81.943
0.38416,89.961
0.38025,97.979
0.37634,105.22
0.37243,111.67
0.36852,116.75
0.36461,120.67
0.3607,123.01
0.35777,124.19
0.35386,124.19
0.35093,123.21
0.34702,121.64
0.34213,119.69
0.33822,117.54
0.33431,114.99
0.3304,112.26
0.32551,109.13
0.3216,105.8
0.31672,102.09
0.31378,97.979
0.31085,94.068
0.30596,90.157
0.29912,86.245
0.29326,82.921
0.28837,80.183
0.28348,77.836
0.27859,75.88
0.27664,74.511
0.27859,73.338
0.28543,72.555
0.3001,72.164
0.32258,71.773
0.34897,71.578
0.37928,71.578
0.41838,71.382
0.46334,71.578
0.51124,71.578
0.55718,71.382
0.59922,71.382
0.63539,71.186
0.66569,71.186
0.68915,70.795
0.70577,70.6
0.7175,70.209
0.72239,69.818
0.72239,69.231
0.71945,68.84
0.71359,68.253
0.70479,67.666
0.69306,67.275
0.67742,66.688
0.65982,66.297
0.6393,65.906
0.61681,65.319
0.59238,64.928
0.56794,64.537
0.5435,63.95
0.52199,63.364
0.50244,62.973
0.48192,62.582
0.46334,61.995
0.44575,61.408
0.43011,60.821
0.41642,60.43
0.40469,59.844
0.39589,59.257
0.3871,58.866
0.38123,58.279
0.37537,57.888
0.37146,57.497
0.36852,57.106
0.36559,56.91
0.36266,56.715
0.35973,56.715
0.35679,57.106
0.35386,58.279
0.35093,60.626
0.34702,64.733
0.34409,70.991
0.34018,78.227
0.33724,86.05
0.33333,93.872
0.3304,100.91
0.32747,107.37
0.32454,112.65
0.32063,116.56
0.31769,119.3
0.31378,120.67
0.31085,120.86
0.30694,120.27
0.30303,118.71
0.3001,116.75
0.29619,114.41
0.29228,111.67
0.28935,108.74
0.28739,105.41
0.28446,101.89
0.28055,97.979
0.27761,94.068
0.2737,89.961
0.27077,86.05
0.26686,82.529
0.26295,79.4
0.25904,76.858
0.25611,74.902
0.25318,73.142
0.2522,71.969
0.25318,71.186
0.25806,70.404
0.26882,70.013
0.28739,69.622
0.31378,69.426
0.348,69.426
0.38905,69.426
0.435,69.426
0.48192,69.426
0.52884,69.426
0.57185,69.426
0.60899,69.231
0.63734,69.231
0.65689,69.035
0.67449,68.84
0.68817,68.449
0.69599,68.057
0.6999,67.666
0.69892,67.275
0.69404,66.884
0.68524,66.297
0.67253,65.906
0.65591,65.515
0.63734,65.124
0.61584,64.537
0.59629,64.146
0.57576,63.755
0.55327,63.168
0.52981,62.777
0.50635,62.386
0.48387,61.799
0.46237,61.408
0.44379,60.821
0.42717,60.235
0.41251,59.844
0.3998,59.257
0.38905,58.866
0.38123,58.279
0.37537,57.888
0.3695,57.497
0.36461,56.91
0.35973,56.519
0.35582,56.128
0.35288,55.932
0.34995,55.737
0.348,55.737
0.34506,56.128
0.34311,57.106
0.34018,59.257
0.33724,62.973
0.33529,68.449
0.33333,75.293
0.33138,82.725
0.32845,90.157
0.32551,97.001
0.3216,103.06
0.31867,108.34
0.31574,112.45
0.31281,115.19
0.3089,116.75
0.30596,117.34
0.30205,116.95
0.3001,115.58
0.29814,113.82
0.29521,111.47
0.29228,108.93
0.28935,106
0.28641,102.67
0.2825,98.957
0.27859,95.046
0.27566,91.134
0.27175,87.027
0.26882,83.312
0.26491,79.987
0.26197,77.249
0.25904,74.902
0.25709,73.142
0.25513,71.773
0.25318,70.6
0.25415,69.818
0.25806,69.231
0.26784,68.84
0.28446,68.449
0.30987,68.253
0.34311,68.253
0.38221,68.253
0.42717,68.253
0.46725,68.253
0.5044,68.253
0.54448,68.253
0.5826,68.253
0.61584,68.057
0.64418,68.057
0.66569,67.666
0.68133,67.471
0.6911,67.08
0.69501,66.688
0.69501,66.297
0.69013,65.906
0.68133,65.515
0.6696,65.124
0.65591,64.537
0.63832,64.146
0.61877,63.755
0.59629,63.364
0.57283,62.973
0.54839,62.582
0.52493,61.995
0.50244,61.604
0.47996,61.017
0.46041,60.626
0.44282,60.039
0.42815,59.648
0.41642,59.257
0.40567,58.67
0.39589,58.083
0.3871,57.692
0.37928,57.301
0.37341,56.91
0.36755,56.323
0.36364,55.932
0.35973,55.541
0.35679,55.346
0.35386,55.346
0.35093,55.346
0.34897,55.932
0.348,57.106
0.34604,59.648
0.34409,63.755
0.34213,69.818
0.3392,76.858
0.33627,84.289
0.33333,91.525
0.3304,98.175
0.32747,104.24
0.32356,109.13
0.32063,113.04
0.31867,115.38
0.31672,116.75
0.31378,116.95
0.31183,116.36
0.3089,114.8
0.30596,113.04
0.30205,110.69
0.29912,108.15
0.29619,105.02
0.29228,101.69
0.28837,97.979
0.28543,94.263
0.2825,90.157
0.28055,86.245
0.27761,82.725
0.27468,79.4
0.27175,76.662
0.26882,74.511
0.26491,72.751
0.26197,71.186
0.261,70.209
0.26197,69.426
0.26784,69.035
0.28055,68.644
0.3001,68.449
0.32356,68.449
0.35093,68.449
0.38807,68.449
0.43109,68.644
0.47703,68.644
0.52297,68.84
0.56696,68.84
0.60508,68.84
0.64321,68.84
0.67644,68.644
0.6999,68.449
0.71652,68.057
0.72434,67.862
0.7263,67.471
0.72532,67.08
0.72043,66.688
0.71163,66.297
0.69892,65.906
0.68231,65.515
0.66373,65.124
0.64125,64.733
0.61779,64.342
0.59238,63.95
0.56696,63.559
0.54154,63.168
0.52004,62.777
0.50049,62.386
0.48094,61.995
0.46334,61.408
0.44673,61.017
0.43206,60.43
0.41838,60.039
0.40762,59.648
0.39883,59.061
0.39101,58.67
0.38514,58.279
0.38025,57.888
0.37634,57.497
0.37439,57.106
0.37146,56.91
0.3695,56.91
0.36657,57.301
0.36461,58.083
0.36266,60.235
0.35973,63.95
0.35777,69.426
0.35484,76.662
0.35191,84.289
0.34995,91.917
0.34702,98.957
0.34506,105.61
0.34311,111.08
0.34018,115.58
0.33822,118.71
0.33529,120.47
0.33236,121.06
0.32942,120.86
0.32649,119.69
0.32454,118.12
0.3216,115.97
0.31867,113.62
0.31574,110.89
0.31378,107.95
0.31183,104.82
0.30987,101.11
0.30694,97.393
0.30401,93.481
0.30205,89.57
0.29912,86.05
0.29619,82.725
0.29326,79.987
0.29032,77.836
0.28739,76.076
0.28641,74.902
0.28739,73.729
0.2913,73.142
0.3001,72.555
0.31574,72.36
0.3392,72.164
0.37146,72.164
0.41153,72.164
0.45748,72.164
0.50635,72.164
0.55523,72.164
0.60215,72.164
0.64516,72.164
0.68133,72.164
0.70772,71.969
0.7263,71.773
0.74291,71.382
0.75464,70.991
0.76149,70.6
0.76344,70.209
0.76149,69.622
0.75464,69.231
0.74487,68.84
0.73118,68.253
0.71359,67.862
0.69404,67.471
0.67253,67.08
0.65103,66.688
0.6305,66.102
0.60704,65.711
0.58358,65.319
0.56109,64.733
0.53861,64.146
0.51906,63.559
0.50049,62.973
0.48485,62.386
0.47116,61.799
0.45943,61.213
0.44966,60.626
0.44282,60.039
0.43695,59.452
0.43109,59.061
0.42717,58.475
0.42326,58.279
0.41935,57.888
0.41642,57.888
0.41349,58.083
0.41056,58.866
0.40762,60.821
0.40469,64.537
0.40078,70.209
0.39785,77.445
0.39492,85.463
0.39198,93.481
0.38905,100.91
0.38612,107.76
0.38221,113.43
0.37928,117.93
0.37537,121.06
0.37146,122.82
0.36755,123.6
0.36364,123.21
0.3607,122.23
0.35679,120.47
0.35386,118.51
0.35093,116.17
0.34702,113.62
0.34409,110.89
0.34018,107.76
0.33529,104.24
0.33138,100.52
0.32649,96.61
0.32258,92.503
0.31867,88.788
0.31378,85.072
0.3089,82.138
0.30499,79.596
0.30108,77.445
0.29912,75.88
0.29814,74.511
0.3001,73.533
0.30694,72.947
0.3216,72.555
0.34409,72.164
0.37537,71.969
0.41447,71.969
0.45943,71.773
0.50733,71.773
0.55523,71.773
0.59433,71.773
0.62757,71.773
0.65982,71.578
0.68817,71.382
0.71065,71.186
0.72727,70.795
0.739,70.404
0.74487,70.013
0.74585,69.426
0.74291,69.035
0.73607,68.449
0.72532,67.862
0.71163,67.471
0.69599,66.884
0.67937,66.493
0.65982,65.906
0.63636,65.515
0.6129,65.124
0.58749,64.537
0.56207,64.146
0.53763,63.755
0.51417,63.168
0.49169,62.777
0.47214,62.19
0.45552,61.604
0.44184,61.017
0.43011,60.43
0.41935,60.039
0.41056,59.452
0.40176,59.061
0.39492,58.67
0.38905,58.279
0.38416,57.692
0.37928,57.301
0.37537,57.106
0.37146,57.106
0.36852,57.301
0.36559,58.083
0.36364,60.039
0.3607,63.559
0.35679,69.231
0.35386,76.467
0.34995,84.289
0.34604,92.308
0.34213,99.739
0.33822,106.58
0.33333,112.26
0.32942,116.75
0.32551,119.88
0.3216,121.84
0.31867,122.43
0.31574,122.23
0.31281,121.06
0.30987,119.3
0.30694,117.14
0.30303,114.8
0.29912,112.06
0.29521,108.93
0.2913,105.61
0.28739,102.09
0.28348,97.979
0.28055,94.068
0.27761,89.961
0.27566,86.245
0.27273,82.921
0.26979,79.987
0.26588,77.64
0.26295,75.685
0.26002,74.12
0.25904,72.947
0.26197,72.164
0.27077,71.578
0.28739,71.186
0.31281,70.795
0.34702,70.6
0.38123,70.6
0.41838,70.6
0.46334,70.6
0.51222,70.6
0.55914,70.6
0.60215,70.6
0.64027,70.404
0.67155,70.209
0.69599,70.013
0.71359,69.622
0.72532,69.426
0.73118,69.035
0.73216,68.644
0.72825,68.057
0.72141,67.666
0.71163,67.08
0.69795,66.688
0.68133,66.297
0.66276,65.711
0.64027,65.319
0.61681,64.733
0.59238,64.342
0.56696,63.95
0.54154,63.364
0.51711,62.973
0.49658,62.386
0.47801,61.995
0.45748,61.408
0.43695,60.821
0.42033,60.43
0.40567,59.844
0.39394,59.452
0.38514,58.866
0.37732,58.475
0.37048,58.083
0.36559,57.497
0.36168,57.106
0.35777,56.91
0.35582,56.715
0.35288,56.715
0.34995,56.91
0.348,57.692
0.34506,59.452
0.34213,62.777
0.33822,67.666
0.33529,74.316
0.33236,81.552
0.32942,88.983
0.32551,95.828
0.32258,102.28
0.31965,107.76
0.31672,112.26
0.31378,115.38
0.31085,117.34
0.30694,117.93
0.30401,117.73
0.3001,116.75
0.29717,114.99
0.29326,113.04
0.28935,110.5
0.28641,107.56
0.2825,104.43
0.27957,100.91
0.27761,97.197
0.27468,93.286
0.27175,89.179
0.26882,85.267
0.26491,81.943
0.26197,79.009
0.25806,76.467
0.25513,74.511
0.2522,72.947
0.25024,71.773
0.24927,70.795
0.25318,70.209
0.26002,69.622
0.27175,69.231
0.2913,69.035
0.31867,69.035
0.35484,69.035
0.39687,69.035
0.44282,69.035
0.48876,69.035
0.5347,69.035
0.57576,69.035
0.61193,68.84
0.64223,68.84
0.66276,68.644
0.67742,68.253
0.68817,68.057
0.69404,67.471
0.69599,67.08
0.69404,66.688
0.68719,66.297
0.67742,65.906
0.66276,65.515
0.64614,65.124
0.62561,64.733
0.60411,64.342
0.58065,63.755
0.55816,63.364
0.53763,62.973
0.51613,62.582
0.49365,61.995
0.47312,61.408
0.45357,61.017
0.43597,60.626
0.42033,60.039
0.40665,59.648
0.39589,59.061
0.38612,58.475
0.3783,58.083
0.37243,57.692
0.36852,57.106
0.36461,56.715
0.3607,56.323
0.35777,56.128
0.35484,56.128
0.35191,56.323
0.34995,56.91
0.34702,58.279
0.34506,61.017
0.34213,65.515
0.3392,71.773
0.33724,79.009
0.33529,86.441
0.33333,93.677
0.3304,100.52
0.32845,106.39
0.32551,111.28
0.3216,114.99
0.31867,117.54
0.31574,118.71
0.31281,118.9
0.3089,118.32
0.30596,116.95
0.30205,114.99
0.3001,112.65
0.29814,109.91
0.29521,106.98
0.2913,103.46
0.28837,99.739
0.28543,95.828
0.28152,91.721
0.27761,87.81
0.27468,84.094
0.27077,80.769
0.26784,78.031
0.26393,75.88
0.261,73.924
0.25904,72.555
0.25806,71.382
0.26002,70.6
0.26491,70.013
0.27566,69.818
0.29326,69.622
0.32063,69.426
0.35582,69.231
0.39687,69.231
0.44379,69.231
0.49169,69.231
0.53959,69.426
0.57869,69.426
0.60997,69.231
0.64125,69.231
0.66862,69.035
0.69013,68.84
0.70674,68.449
0.71652,68.057
0.72141,67.666
0.72043,67.471
0.71554,67.08
0.70577,66.493
0.69306,66.102
0.67644,65.711
0.65885,65.319
0.64027,64.928
0.61877,64.537
0.59433,64.146
0.56989,63.559
0.54448,63.168
0.52004,62.777
0.49658,62.19
0.47605,61.604
0.4565,61.213
0.43891,60.626
0.42424,60.235
0.41251,59.648
0.40371,59.257
0.39492,58.866
0.38807,58.279
0.38123,57.888
0.37537,57.497
0.37146,57.106
0.36755,56.715
0.36364,56.715
0.3607,56.715
0.35875,57.106
0.35582,58.279
0.35386,60.626
0.35191,64.928
0.34995,70.795
0.34702,78.031
0.34409,85.854
0.34115,93.286
0.33822,100.13
0.33529,106.39
0.33138,111.67
0.32845,115.78
0.32551,118.51
0.3216,120.08
0.31867,120.67
0.31574,120.08
0.31378,118.9
0.31085,117.34
0.30792,115.19
0.30401,112.84
0.30108,110.3
0.29717,107.17
0.29326,103.65
0.28935,99.935
0.28543,96.024
0.2825,91.917
0.27859,88.005
0.27664,84.289
0.27468,81.16
0.27175,78.422
0.26882,76.271
0.26588,74.511
0.26295,73.338
0.26295,72.164
0.26686,71.578
0.27761,70.991
0.29521,70.6
0.32063,70.6
0.35582,70.404
0.39687,70.404
0.43695,70.404
0.47605,70.404
0.52102,70.404
0.56598,70.404
0.60704,70.404
0.64418,70.209
0.67449,70.013
0.69892,69.818
0.71554,69.622
0.72727,69.231
0.73314,68.84
0.73509,68.449
0.73118,68.057
0.72434,67.471
0.71457,67.08
0.70088,66.688
0.68426,66.297
0.66471,65.906
0.64321,65.319
0.61877,64.928
0.59335,64.537
0.56794,63.95
0.54252,63.559
0.51808,62.973
0.4956,62.582
0.47605,61.995
0.46041,61.408
0.44477,61.017
0.43109,60.43
0.41838,60.039
0.40762,59.648
0.39883,59.061
0.39101,58.475
0.38416,58.083
0.37928,57.692
0.37439,57.301
0.37146,57.301
0.36852,57.301
0.36657,57.692
0.36364,58.866
0.36168,61.604
0.35875,65.906
0.35582,72.36
0.35288,79.987
0.34995,88.005
0.34702,95.632
0.34409,102.87
0.34213,109.32
0.3392,114.8
0.33627,119.1
0.33431,121.84
0.33138,123.4
0.32845,123.99
0.32551,123.4
0.32258,122.23
0.31867,120.67
0.31476,118.71
0.31183,116.36
0.30792,113.82
0.30401,110.89
0.30108,107.76
0.29717,104.24
0.29423,100.33
0.2913,96.415
0.28837,92.308
0.28543,88.396
0.28152,84.876
0.27859,81.943
0.27468,79.4
0.27077,77.445
0.26882,75.88
0.26882,74.707
0.2737,73.729
0.28446,73.142
0.30401,72.751
0.32747,72.555
0.35582,72.36
0.39394,72.36
0.44086,72.36
0.49071,72.36
0.54154,72.36
0.58944,72.36
0.63343,72.36
0.67155,72.36
0.70186,72.164
0.7263,72.164
0.74389,71.969
0.75367,71.578
0.75758,71.186
0.75953,70.795
0.75758,70.404
0.75073,70.013
0.74194,69.622
0.72825,69.035
0.71163,68.644
0.69208,68.253
0.67058,67.666
0.64614,67.275
0.62072,66.884
0.59433,66.297
0.57087,65.906
0.54839,65.319
0.5259,64.928
0.5044,64.342
0.48289,63.755
0.46432,63.364
0.44868,62.777
0.435,62.386
0.42229,61.799
0.41251,61.408
0.40469,60.821
0.39785,60.43
0.39198,60.039
0.38807,59.844
0.38514,59.648
0.38123,59.648
0.3783,60.235
0.37537,61.604
0.37243,64.537
0.3695,69.426
0.36755,76.271
0.36461,84.094
0.36168,92.308
0.35875,100.13
0.35582,107.37
0.35386,113.82
0.35093,119.1
0.34897,123.21
0.34604,125.75
0.34213,127.12
0.3392,127.31
0.33627,126.73
0.33333,125.55
0.3304,123.79
0.32747,121.84
0.32356,119.69
0.32063,117.14
0.31867,114.41
0.31574,111.28
0.31378,107.76
0.31085,104.04
0.30792,100.13
0.30499,96.024
0.30205,92.112
0.29814,88.592
0.29521,85.463
0.29228,82.725
0.28935,80.769
0.28739,79.009
0.28935,77.836
0.29521,76.858
0.30499,76.271
0.32258,75.88
0.34897,75.685
0.38416,75.489
0.42717,75.489
0.47507,75.489
0.5259,75.489
0.57478,75.489
0.6217,75.489
0.66276,75.489
0.69795,75.293
0.72336,75.098
0.73998,74.902
0.75464,74.511
0.7654,73.924
0.77126,73.533
0.77322,72.947
0.77126,72.36
0.7654,71.773
0.7566,70.991
0.74389,70.404
0.72825,69.818
0.70968,69.231
0.69013,68.84
0.67058,68.253
0.64809,67.666
0.62366,67.275
0.59824,66.688
0.5738,66.102
0.55034,65.711
0.52786,65.124
0.50831,64.537
0.48974,64.146
0.47507,63.559
0.46139,62.973
0.45064,62.582
0.44184,61.995
0.435,61.408
0.42913,61.017
0.42326,60.626
0.41838,60.235
0.41447,60.039
0.41056,60.039
0.40665,60.626
0.40274,62.19
0.3998,65.319
0.39589,70.6
0.39198,77.64
0.38905,85.854
0.38612,94.459
0.38221,102.67
0.3783,110.1
0.37439,116.75
0.37048,122.03
0.36559,125.75
0.3607,128.1
0.35679,129.27
0.35191,129.27
0.34702,128.49
0.34311,126.92
0.33822,125.16
0.33529,123.01
0.33236,120.67
0.32845,117.93
0.32454,114.99
0.31965,111.86
0.31476,108.34
0.31085,104.43
0.30596,100.33
0.30205,96.024
0.29717,91.917
0.29228,88.396
0.28739,85.072
0.28348,82.529
0.28055,80.378
0.27761,78.618
0.27761,77.249
0.28152,76.467
0.29228,75.685
0.31085,75.293
0.3392,75.098
0.37634,74.902
0.41935,74.707
0.46823,74.707
0.51808,74.707
0.56696,74.707
0.60606,74.511
0.63832,74.511
0.6696,74.316
0.69599,74.12
0.7175,73.729
0.73216,73.338
0.74194,72.947
0.74682,72.555
0.74682,71.969
0.74291,71.578
0.73509,70.991
0.72434,70.404
0.71065,70.013
0.69599,69.426
0.6784,69.035
0.65689,68.449
0.63343,68.057
0.60899,67.471
0.5826,66.884
0.55718,66.493
0.53177,65.906
0.50733,65.319
0.48485,64.733
0.4653,64.342
0.44673,63.559
0.43304,62.973
0.42131,62.582
0.41056,61.995
0.40078,61.408
0.39296,61.017
0.38612,60.626
0.37928,60.039
0.37439,59.844
0.37048,59.648
0.36657,59.452
0.36266,59.844
0.35973,60.821
0.35679,62.777
0.35484,66.688
0.35191,72.36
0.348,79.791
0.34506,87.81
0.34115,96.024
0.33724,103.65
0.33333,110.69
0.32942,116.56
0.32551,121.06
0.3216,124.19
0.31769,125.95
0.31378,126.73
0.31183,126.34
0.3089,125.36
0.30596,123.6
0.30303,121.64
0.29912,119.3
0.29619,116.56
0.29228,113.62
0.28837,110.3
0.28348,106.58
0.27957,102.48
0.27566,98.37
0.27175,94.068
0.26882,89.961
0.26686,86.245
0.26393,83.116
0.25806,80.574
0.25122,78.422
0.24633,76.662
0.24438,75.489
0.24633,74.511
0.25318,73.924
0.26784,73.533
0.29032,73.338
0.3216,73.142
0.36168,73.142
0.3998,73.142
0.43793,72.947
0.48289,72.947
0.52786,72.947
0.56989,72.947
0.60802,72.751
0.6393,72.555
0.66373,72.36
0.68231,72.164
0.69501,71.773
0.70283,71.382
0.70479,70.991
0.70283,70.6
0.69697,70.013
0.68817,69.426
0.67644,69.035
0.66178,68.449
0.64321,68.057
0.62268,67.471
0.6002,67.08
0.57674,66.688
0.55132,66.102
0.5259,65.711
0.50147,65.319
0.47801,64.733
0.45846,64.146
0.44086,63.559
0.42522,63.168
0.40958,62.582
0.39589,61.995
0.38514,61.408
0.37537,61.017
0.36755,60.43
0.3607,60.039
0.35484,59.648
0.34995,59.257
0.34604,58.866
0.34409,58.866
0.34115,58.866
0.3392,59.452
0.33627,60.821
0.33431,63.364
0.33138,67.862
0.32845,74.12
0.32551,81.356
0.32258,88.983
0.31867,96.61
0.31574,103.65
0.31183,110.1
0.3089,115.19
0.30596,119.3
0.30401,121.84
0.30108,123.21
0.29814,123.6
0.29521,122.82
0.29228,121.45
0.28837,119.69
0.28543,117.34
0.28152,114.8
0.27859,111.67
0.27468,108.54
0.27077,104.82
0.26882,100.91
0.26588,96.61
0.26295,92.308
0.26002,88.396
0.25709,84.681
0.25318,81.747
0.25024,79.205
0.24633,77.054
0.2434,75.293
0.24145,74.12
0.24242,73.338
0.24731,72.751
0.25709,72.164
0.27175,71.969
0.29228,71.969
0.3216,71.773
0.35875,71.773
0.40274,71.773
0.44966,71.773
0.49658,71.773
0.54154,71.773
0.58162,71.578
0.61681,71.578
0.64516,71.382
0.66764,70.991
0.68133,70.795
0.68817,70.404
0.69306,70.013
0.69404,69.622
0.69013,69.231
0.68328,68.644
0.67253,68.253
0.65787,67.862
0.64125,67.471
0.62072,66.884
0.59824,66.493
0.57478,66.102
0.5523,65.711
0.53079,65.124
0.50831,64.537
0.48485,64.146
0.46334,63.559
0.44282,62.973
0.42522,62.582
0.40958,61.995
0.39589,61.604
0.38416,61.017
0.37439,60.43
0.36657,60.039
0.35973,59.452
0.35484,59.061
0.35191,58.67
0.348,58.279
0.34506,58.279
0.34213,58.279
0.3392,58.67
0.33627,59.648
0.33431,61.995
0.33138,66.102
0.32942,71.969
0.32649,79.205
0.32356,86.832
0.32063,94.459
0.31867,101.69
0.31672,108.34
0.31378,113.82
0.31085,118.12
0.30792,121.06
0.30499,122.62
0.30108,123.21
0.29814,122.82
0.29521,121.64
0.29228,119.88
0.28837,117.73
0.28543,115.19
0.2825,112.45
0.28055,109.13
0.27761,105.61
0.27468,101.69
0.27175,97.588
0.26784,93.481
0.26491,89.374
0.261,85.658
0.25806,82.529
0.25415,79.791
0.25024,77.64
0.24731,75.88
0.24536,74.511
0.24536,73.533
0.24829,72.751
0.25513,72.164
0.26882,71.773
0.29032,71.578
0.31965,71.382
0.35777,71.382
0.40078,71.382
0.44868,71.382
0.49658,71.382
0.54252,71.382
0.58456,71.382
0.61681,71.186
0.64125,70.991
0.66373,70.795
0.68133,70.6
0.69404,70.209
0.70186,69.818
0.70381,69.426
0.70186,69.035
0.69599,68.449
0.68524,68.057
0.67155,67.471
0.65494,67.08
0.63734,66.688
0.61877,66.297
0.59629,65.711
0.57283,65.319
0.54741,64.928
0.52199,64.342
0.49853,63.95
0.47507,63.364
0.45455,62.973
0.435,62.386
0.41838,61.799
0.40371,61.408
0.39101,60.821
0.38221,60.43
0.37439,59.844
0.36755,59.452
0.36168,58.866
0.35582,58.475
0.35191,58.279
0.348,58.083
0.34409,58.083
0.34115,58.279
0.3392,59.257
0.33627,61.408
0.33333,65.124
0.33138,70.795
0.32942,78.031
0.32747,85.854
0.32454,93.677
0.3216,101.11
0.31867,107.95
0.31476,113.82
0.31183,118.51
0.30792,121.84
0.30499,123.79
0.30108,124.58
0.29814,124.38
0.29423,123.4
0.29228,121.84
0.29032,119.69
0.28739,117.34
0.28446,114.8
0.28055,111.86
0.27761,108.34
0.2737,104.63
0.27077,100.72
0.26686,96.61
0.26393,92.308
0.26002,88.396
0.25709,84.876
0.25415,81.747
0.2522,79.205
0.24927,77.249
0.24731,75.685
0.24536,74.511
0.24731,73.533
0.25318,72.751
0.26588,72.36
0.28641,72.164
0.31672,71.969
0.35484,71.773
0.39883,71.773
0.4477,71.773
0.49071,71.773
0.52884,71.773
0.56989,71.773
0.60802,71.578
0.64125,71.578
0.66862,71.382
0.69013,70.991
0.70479,70.6
0.71457,70.209
0.72434,69.818
0.73314,69.426
0.73314,69.035
0.72727,68.449
0.71652,67.862
0.70186,67.471
0.68426,67.08
0.66276,66.493
0.6393,66.102
0.61388,65.711
0.58749,65.124
0.56109,64.733
0.53568,64.146
0.51124,63.755
0.48778,63.168
0.46628,62.777
0.44966,62.19
0.43597,61.604
0.42229,61.017
0.41056,60.626
0.3998,60.039
0.39101,59.648
0.38416,59.061
0.37732,58.67
0.37243,58.279
0.36755,58.083
0.36364,58.083
0.3607,58.279
0.35777,59.061
0.35582,61.213
0.35386,64.733
0.35093,70.404
0.34897,77.64
0.34604,85.854
0.34213,93.677
0.3392,101.3
0.33529,108.34
0.33236,114.41
0.32845,119.49
0.32551,123.01
0.3216,125.16
0.31965,126.14
0.31672,126.14
0.31378,125.16
0.31085,123.6
0.30694,121.64
0.30401,119.49
0.3001,116.75
0.29619,114.02
0.29228,110.69
0.28935,107.17
0.28543,103.46
0.28152,99.348
0.27859,95.241
0.27664,91.134
0.27468,87.419
0.27077,84.094
0.26686,81.356
0.26295,79.009
0.26002,77.249
0.25806,75.88
0.25904,74.902
0.26588,74.12
0.27957,73.729
0.30205,73.338
0.33333,73.338
0.36657,73.338
0.40371,73.338
0.44966,73.338
0.49951,73.338
0.55034,73.338
0.59824,73.338
0.64125,73.338
0.67742,73.142
0.70674,72.947
0.72923,72.751
0.74487,72.555
0.75464,72.164
0.75855,71.773
0.7566,71.186
0.75269,70.795
0.74487,70.209
0.73412,69.818
0.71945,69.231
0.70088,68.84
0.68035,68.449
0.65787,67.862
0.63245,67.471
0.60606,66.884
0.57967,66.493
0.55621,65.906
0.5347,65.515
0.51222,64.928
0.49071,64.537
0.47116,63.95
0.45259,63.364
0.43793,62.973
0.42424,62.386
0.41349,61.995
0.40371,61.408
0.39687,61.017
0.39003,60.626
0.38514,60.235
0.38123,59.844
0.37928,59.844
0.37634,60.039
0.37439,60.821
0.37146,62.582
0.3695,66.297
0.36657,71.969
0.36461,79.4
0.36168,87.614
0.35875,96.024
0.35582,103.85
0.35288,111.08
0.35093,117.54
0.34897,122.62
0.34604,126.14
0.34311,128.49
0.34018,129.27
0.33724,129.27
0.33431,128.29
0.33138,126.73
0.32845,124.77
0.32551,122.43
0.32258,120.08
0.31965,117.34
0.31672,114.21
0.31378,110.89
0.31183,107.17
0.30987,103.46
0.30694,99.348
0.30401,95.241
0.30108,91.33
0.29814,87.81
0.29423,84.876
0.2913,82.334
0.28837,80.378
0.28739,78.814
0.28935,77.836
0.29423,76.858
0.30499,76.467
0.32356,76.076
0.35093,75.88
0.3871,75.685
0.43109,75.489
0.47996,75.489
0.53177,75.293
0.58162,75.098
0.62854,75.098
0.67058,74.902
0.70479,74.511
0.73314,74.12
0.75171,73.729
0.76344,73.338
0.77224,72.751
0.77615,72.164
0.77713,71.773
0.77419,71.186
0.76637,70.6
0.7566,70.209
0.74291,69.622
0.7263,69.231
0.70674,68.84
0.68426,68.253
0.66276,67.862
0.64125,67.275
0.61779,66.688
0.59238,66.102
0.56794,65.515
0.5435,64.928
0.52102,64.537
0.50147,63.755
0.48289,63.168
0.46725,62.582
0.45357,61.995
0.44184,61.604
0.43304,61.017
0.42522,60.626
0.41935,60.039
0.41447,59.844
0.40958,59.452
0.40469,59.061
0.40078,59.061
0.39589,59.648
0.39198,61.017
0.38807,63.95
0.38416,68.84
0.38025,75.685
0.37634,83.507
0.37243,91.917
0.3695,99.935
0.36559,107.56
0.3607,114.21
0.35679,119.69
0.35191,123.79
0.34702,126.34
0.34213,127.51
0.33724,127.71
0.33236,127.12
0.32845,125.55
0.32356,123.79
0.31867,121.64
0.31476,119.1
0.31085,116.36
0.30694,113.23
0.30205,109.91
0.29814,106.19
0.29326,102.28
0.28837,98.175
0.28348,93.872
0.27957,89.961
0.27468,86.245
0.26979,83.116
0.26588,80.574
0.26197,78.618
0.26002,76.858
0.25904,75.685
0.26197,74.707
