0.30596,136.31
0.30401,138.27
0.30108,139.05
0.29717,138.66
0.29423,137.68
0.29032,135.92
0.28739,133.96
0.28348,131.62
0.28055,129.27
0.27664,126.53
0.2737,123.4
0.26979,120.08
0.26686,116.56
0.26491,112.65
0.26393,108.34
0.261,103.85
0.25806,99.348
0.25415,95.046
0.2522,91.134
0.25024,87.81
0.2522,85.267
0.25904,83.116
0.27273,81.552
0.29423,80.378
0.32356,79.596
0.35484,79.205
0.38905,78.814
0.43109,78.814
0.47605,78.618
0.52102,78.618
0.56305,78.618
0.60215,78.422
0.63441,78.422
0.66178,78.422
0.68231,78.227
0.69795,78.031
0.7087,77.64
0.71554,77.249
0.71652,76.858
0.71457,76.271
0.71065,75.685
0.70381,75.098
0.69404,74.511
0.68133,73.924
0.66667,73.338
0.64907,72.555
0.62854,71.969
0.60802,71.382
0.58553,70.795
0.56207,70.404
0.54154,69.818
0.52297,69.231
0.50244,68.84
0.48387,68.253
0.46628,67.666
0.44966,67.08
0.435,66.688
0.42326,66.102
0.41251,65.515
0.40274,64.928
0.39492,64.537
0.38807,63.95
0.38221,63.364
0.37732,62.973
0.37341,62.386
0.3695,61.995
0.36559,61.604
0.36168,61.408
0.35777,61.408
0.35386,62.19
0.34995,63.755
0.34604,67.08
0.34213,72.947
0.33822,81.16
0.33333,90.743
0.3304,100.72
0.32747,109.91
0.32454,118.12
0.32063,125.16
0.31672,130.64
0.31281,134.35
0.3089,136.7
0.30499,137.87
0.30205,137.87
0.29814,137.09
0.29423,135.72
0.29032,133.96
0.28837,131.62
0.28641,129.27
0.28348,126.73
0.28055,123.79
0.27761,120.47
0.2737,116.95
0.26979,113.04
0.26686,108.93
0.26393,104.43
0.26002,99.935
0.25709,95.632
0.25415,91.917
0.25318,88.396
0.25415,85.658
0.25904,83.507
0.26882,81.747
0.28543,80.574
0.31085,79.791
0.34311,79.205
0.38221,79.009
0.4262,78.814
0.47312,78.618
0.51808,78.618
0.56207,78.618
0.6002,78.618
0.6305,78.618
0.65298,78.618
0.67351,78.422
0.6911,78.227
0.70381,78.031
0.71261,77.64
0.71652,77.249
0.7175,76.858
0.71457,76.271
0.70772,75.88
0.69892,75.293
0.68622,74.707
0.67155,74.12
0.65591,73.533
0.6393,72.947
0.61975,72.555
0.59824,71.969
0.57576,71.578
0.55327,70.991
0.53079,70.6
0.50929,70.013
0.48876,69.622
0.47019,69.035
0.45455,68.644
0.43988,68.057
0.42815,67.666
0.41935,67.08
0.41056,66.688
0.40274,66.102
0.39492,65.711
0.38905,65.124
0.38319,64.537
0.3783,64.146
0.37341,63.755
0.3695,63.364
0.36559,63.168
0.36168,63.364
0.35777,63.95
0.35582,65.711
0.35288,69.231
0.34995,75.098
0.34702,83.507
0.34311,93.481
0.3392,103.46
0.33529,112.84
0.33138,121.25
0.32845,128.29
0.32454,133.77
0.3216,137.68
0.31769,139.83
0.31574,141
0.31378,140.81
0.31183,140.03
0.3089,138.46
0.30596,136.7
0.30303,134.75
0.3001,132.4
0.29717,130.05
0.29423,127.31
0.2913,124.19
0.28935,121.06
0.28641,117.34
0.28446,113.23
0.2825,108.93
0.28055,104.63
0.27859,100.13
0.27664,96.024
0.27468,92.503
0.27664,89.374
0.28152,87.027
0.29326,85.072
0.31281,83.703
0.34018,82.725
0.37439,82.138
0.41544,81.747
0.45455,81.552
0.49169,81.552
0.53372,81.552
0.57576,81.747
0.61388,81.747
0.64809,81.552
0.67644,81.356
0.6999,81.16
0.7175,80.965
0.72923,80.378
0.73803,79.791
0.74194,79.205
0.74194,78.422
0.73803,77.836
0.73216,77.054
0.72434,76.271
0.71359,75.685
0.6999,75.098
0.68426,74.511
0.66667,73.924
0.64614,73.533
0.62561,72.947
0.60313,72.36
0.57967,71.969
0.55718,71.382
0.53861,70.795
0.52102,70.209
0.50342,69.622
0.48778,69.035
0.4741,68.644
0.46139,67.862
0.44966,67.275
0.43988,66.688
0.43011,66.102
0.42229,65.515
0.41642,64.928
0.41153,64.342
0.40665,63.755
0.40274,63.364
0.3998,62.973
0.39589,62.777
0.39101,62.777
0.3871,63.364
0.38221,65.124
0.37732,68.644
0.37341,74.902
0.36852,83.507
0.36364,93.677
0.35875,104.04
0.35386,113.62
0.34995,122.23
0.34702,129.27
0.34311,134.75
0.3392,138.46
0.33529,140.61
0.33138,141.59
0.32747,141.4
0.32356,140.42
0.31965,138.85
0.31574,136.9
0.31085,134.75
0.30694,132.59
0.30303,130.05
0.3001,127.12
0.29814,124.19
0.29423,120.86
0.2913,117.34
0.28739,113.23
0.28348,109.13
0.27957,104.63
0.27566,100.13
0.27175,95.828
0.26979,92.112
0.26979,88.983
0.27566,86.245
0.28543,84.289
0.3001,82.725
0.32356,81.747
0.35582,80.965
0.39492,80.378
0.43891,80.183
0.48583,79.987
0.53177,79.791
0.57478,79.791
0.6129,79.791
0.64614,79.596
0.67253,79.4
0.69404,79.205
0.70772,78.814
0.71554,78.618
0.72141,78.227
0.72434,77.836
0.72336,77.249
0.72043,76.662
0.71065,76.076
0.70088,75.293
0.6911,74.707
0.6784,73.924
0.66276,73.338
0.64418,72.751
0.62659,72.164
0.60802,71.578
0.58651,70.991
0.565,70.6
0.54252,70.013
0.52004,69.426
0.49951,69.035
0.47996,68.449
0.46139,67.862
0.44575,67.275
0.43206,66.688
0.42033,66.102
0.40958,65.515
0.40176,64.928
0.39589,64.537
0.38905,63.95
0.38319,63.559
0.3783,62.973
0.37341,62.582
0.36852,62.19
0.36461,61.799
0.35973,61.799
0.35582,61.995
0.35191,62.973
0.34702,65.124
0.34409,69.622
0.34115,76.662
0.33724,85.854
0.33333,96.024
0.32845,106
0.32454,115.19
0.32063,123.21
0.31574,129.66
0.31183,134.55
0.30792,137.68
0.30499,139.44
0.30108,140.03
0.29814,139.44
0.29619,138.27
0.29326,136.51
0.29032,134.55
0.28641,132.2
0.2825,129.66
0.27957,126.92
0.27566,123.99
0.27273,120.67
0.26979,116.95
0.26686,113.04
0.26393,108.74
0.26002,104.43
0.25806,99.739
0.25611,95.437
0.25513,91.721
0.25415,88.396
0.25513,85.658
0.261,83.312
0.2825,81.747
0.30792,80.378
0.3304,79.596
0.36461,79.009
0.40665,78.814
0.45748,78.618
0.51222,78.422
0.55132,78.422
0.58749,78.227
0.62366,78.227
0.64809,78.227
0.67058,78.031
0.69208,77.836
0.70772,77.64
0.71652,77.249
0.72141,76.858
0.72043,76.467
0.71652,76.076
0.71261,75.489
0.70381,74.902
0.69013,74.12
0.67449,73.533
0.65689,72.947
0.63734,72.36
0.61584,71.773
0.59922,71.186
0.57869,70.6
0.55132,70.209
0.5259,69.622
0.50342,69.035
0.48485,68.644
0.46823,68.057
0.45259,67.471
0.43891,66.884
0.42522,66.297
0.41349,65.711
0.40371,65.124
0.39492,64.537
0.38807,64.146
0.38123,63.559
0.37537,63.168
0.37048,62.582
0.36559,62.19
0.36266,61.604
0.35973,61.408
0.35582,61.017
0.35288,61.017
0.34897,61.408
0.34506,62.777
0.34115,65.515
0.33724,70.6
0.33333,78.227
0.32845,87.419
0.32454,97.197
0.32063,106.58
0.31769,114.99
0.31574,122.43
0.31281,128.1
0.3089,132.2
0.30596,134.75
0.30205,136.31
0.29814,136.31
0.29521,135.72
0.2913,134.16
0.28837,132.2
0.28446,130.05
0.28152,127.51
0.27761,124.97
0.27566,122.03
0.2737,118.9
0.27175,115.19
0.26882,111.28
0.26588,107.17
0.26295,102.67
0.25904,98.175
0.25611,93.872
0.25318,89.961
0.25318,86.636
0.25709,83.898
0.26588,81.747
0.27859,79.987
0.29717,78.814
0.32551,78.031
0.3607,77.445
0.40274,77.249
0.44868,77.054
0.4956,76.858
0.54057,76.858
0.58162,76.858
0.61779,76.662
0.64907,76.662
0.67351,76.662
0.69208,76.467
0.70381,76.271
0.71065,75.88
0.71457,75.685
0.71652,75.293
0.71359,74.707
0.7087,74.316
0.6999,73.729
0.68817,73.142
0.67449,72.36
0.65689,71.773
0.63832,71.186
0.61681,70.6
0.59629,70.013
0.57674,69.622
0.55523,69.035
0.53275,68.644
0.51124,68.057
0.49071,67.471
0.47214,67.08
0.45455,66.493
0.43988,65.906
0.4262,65.515
0.41447,64.928
0.40469,64.537
0.39687,63.95
0.39003,63.559
0.38514,62.973
0.38025,62.582
0.37537,61.995
0.37048,61.408
0.36657,61.017
0.36266,60.626
0.35777,60.235
0.35386,60.235
0.35191,60.43
0.34897,61.213
0.34604,62.973
0.34311,66.493
0.34018,72.751
0.33724,81.16
0.33333,90.939
0.32845,100.91
0.32454,109.91
0.32063,117.93
0.31672,124.58
0.31281,129.86
0.3089,133.38
0.30499,135.53
0.30205,136.31
0.29814,136.11
0.29619,134.94
0.29423,133.18
0.2913,131.23
0.28837,128.88
0.28543,126.34
0.28152,123.6
0.27859,120.67
0.27566,117.34
0.27175,113.62
0.26882,109.52
0.26491,105.22
0.26197,100.72
0.25904,96.415
0.25806,92.308
0.25611,88.788
0.25709,85.854
0.26197,83.312
0.27175,81.356
0.29032,79.987
0.31769,79.009
0.35288,78.422
0.39589,78.227
0.44379,78.031
0.49462,78.031
0.5435,78.227
0.58456,78.227
0.61877,78.227
0.652,78.422
0.68231,78.422
0.70674,78.422
0.7263,78.227
0.73998,78.227
0.74878,77.836
0.75269,77.445
0.75269,77.054
0.74878,76.662
0.74096,76.076
0.73118,75.489
0.71945,74.902
0.70381,74.12
0.68622,73.533
0.66569,72.947
0.64321,72.36
0.61877,71.969
0.59531,71.382
0.57087,70.795
0.54741,70.404
0.52493,69.818
0.5044,69.426
0.48583,68.84
0.47116,68.253
0.45846,67.862
0.44673,67.275
0.43597,66.884
0.42717,66.297
0.41935,65.906
0.41251,65.319
0.40762,64.928
0.40274,64.537
0.39785,63.95
0.39394,63.559
0.39003,63.168
0.3871,62.777
0.38514,62.777
0.38221,62.973
0.3783,63.755
0.37537,65.906
0.37146,70.209
0.36755,77.054
0.36364,85.854
0.35973,95.632
0.35582,105.22
0.35191,114.02
0.348,121.84
0.34604,128.29
0.34311,132.99
0.34115,136.11
0.33822,137.68
0.33529,138.07
0.33236,137.48
0.32845,136.31
0.32551,134.55
0.32258,132.59
0.31965,130.25
0.31672,128.1
0.31378,125.55
0.31183,122.62
0.30987,119.49
0.30792,115.97
0.30596,112.26
0.30401,108.34
0.30108,104.04
0.29814,99.544
0.29521,95.437
0.29423,91.721
0.29717,88.592
0.30401,85.854
0.31769,83.703
0.34018,82.138
0.36461,80.965
0.39394,80.183
0.43304,79.791
0.47801,79.4
0.52493,79.4
0.57283,79.205
0.61681,79.205
0.65591,79.205
0.69013,79.205
0.7175,79.009
0.739,78.814
0.75464,78.618
0.7654,78.227
0.77028,77.836
0.77126,77.249
0.76931,76.662
0.7654,76.076
0.75855,75.489
0.7478,74.902
0.73509,74.316
0.71945,73.533
0.70088,72.947
0.68035,72.36
0.65885,71.773
0.63441,71.186
0.6129,70.6
0.59238,70.209
0.56989,69.622
0.54839,69.035
0.52688,68.644
0.50733,68.057
0.48876,67.471
0.47312,66.884
0.45943,66.493
0.4477,65.906
0.43695,65.319
0.42815,64.733
0.42033,64.146
0.41447,63.755
0.40958,63.168
0.40469,62.777
0.3998,62.19
0.39492,61.799
0.39003,61.408
0.38514,61.017
0.38025,61.017
0.37537,61.213
0.37048,62.386
0.36559,65.124
0.35973,70.209
0.35582,78.031
0.35288,87.81
0.348,98.175
0.34409,108.34
0.3392,117.34
0.33529,124.97
0.3304,131.23
0.32649,135.53
0.3216,138.27
0.31769,139.64
0.31378,139.83
0.3089,139.05
0.30499,137.68
0.30205,135.72
0.3001,133.57
0.29619,131.42
0.29326,128.88
0.28935,126.14
0.28543,123.01
0.2825,119.88
0.27859,116.36
0.27566,112.45
0.27175,108.34
0.26784,104.04
0.26393,99.544
0.26197,95.046
0.261,91.33
0.26295,88.005
0.26979,85.267
0.28348,83.116
0.30596,81.552
0.33724,80.378
0.37732,79.596
0.42424,79.009
0.4741,78.618
0.52493,78.422
0.57478,78.422
0.61975,78.227
0.65396,78.227
0.68133,78.227
0.70674,78.031
0.72727,77.836
0.74291,77.64
0.75367,77.445
0.76051,77.054
0.76246,76.662
0.76051,76.271
0.75562,75.685
0.74682,75.098
0.73607,74.316
0.72336,73.729
0.7087,73.142
0.6911,72.36
0.67155,71.969
0.64907,71.186
0.62561,70.6
0.60117,70.209
0.57576,69.622
0.55132,69.035
0.52884,68.644
0.50635,68.057
0.4868,67.471
0.46823,67.08
0.45455,66.493
0.44282,65.906
0.43109,65.319
0.42131,64.733
0.41153,64.146
0.40371,63.559
0.39687,63.168
0.39003,62.582
0.38416,62.19
0.37928,61.604
0.37537,61.213
0.37048,60.821
0.36755,60.43
0.36461,60.43
0.3607,60.626
0.35679,61.604
0.35191,63.95
0.348,68.253
0.34311,75.098
0.33822,83.898
0.33431,93.677
0.32942,103.26
0.32454,112.06
0.32063,119.88
0.31672,126.14
0.31378,130.83
0.31183,133.77
0.30792,135.53
0.30303,135.92
0.29717,135.33
0.29228,133.96
0.28739,132.2
0.28348,130.05
0.27957,127.71
0.27664,125.16
0.27273,122.43
0.26979,119.3
0.26686,115.78
0.26491,112.06
0.26295,108.15
0.26002,103.85
0.25611,99.544
0.25318,95.046
0.25024,90.939
0.24829,87.419
0.25024,84.681
0.25611,82.334
0.26882,80.378
0.28935,79.009
0.31769,78.031
0.34897,77.445
0.38319,76.858
0.42522,76.662
0.47116,76.662
0.51711,76.467
0.56207,76.467
0.60117,76.467
0.63539,76.467
0.66373,76.271
0.68622,76.271
0.70186,76.076
0.71359,75.88
0.71848,75.489
0.71945,75.098
0.71848,74.707
0.71359,74.316
0.70674,73.729
0.69697,73.142
0.68426,72.555
0.66862,71.969
0.65005,71.382
0.6305,70.6
0.60802,70.209
0.58456,69.622
0.56109,69.035
0.54057,68.449
0.52102,68.057
0.50147,67.471
0.48192,67.08
0.46334,66.493
0.44673,65.906
0.43206,65.515
0.41935,64.928
0.4086,64.342
0.39883,63.755
0.39101,63.364
0.38416,62.777
0.3783,62.19
0.37439,61.799
0.37048,61.408
0.36657,60.821
0.36266,60.43
0.35875,60.039
0.35484,59.648
0.35093,59.648
0.34702,60.039
0.34311,61.408
0.3392,64.146
0.33529,69.035
0.33236,76.662
0.3304,85.854
0.32649,95.632
0.32258,104.82
0.31965,113.23
0.31574,120.67
0.31183,126.34
0.30792,130.44
0.30401,133.18
0.30108,134.35
0.29717,134.55
0.29423,133.57
0.29032,132.01
0.28739,130.05
0.28543,127.9
0.28348,125.55
0.28055,123.01
0.27761,120.08
0.2737,116.95
0.27077,113.43
0.26784,109.71
0.26393,105.61
0.261,101.11
0.25709,96.806
0.25415,92.503
0.2522,88.983
0.25122,85.658
0.25318,83.116
0.26002,80.965
0.27273,79.4
0.29228,78.227
0.3216,77.445
0.35777,77.054
0.40078,76.662
0.4477,76.662
0.49658,76.467
0.54252,76.662
0.58553,76.662
0.61975,76.662
0.64614,76.662
0.67058,76.662
0.6911,76.467
0.70674,76.467
0.7175,76.076
0.72434,75.88
0.7263,75.489
0.72434,74.902
0.71945,74.511
0.71065,73.924
0.6999,73.338
0.68622,72.751
0.67253,71.969
0.65494,71.382
0.63441,70.795
0.6129,70.209
0.58944,69.622
0.56598,69.231
0.54252,68.644
0.52004,68.253
0.49951,67.666
0.47996,67.275
0.46237,66.688
0.44673,66.102
0.435,65.711
0.42522,65.124
0.41544,64.537
0.40665,64.146
0.3998,63.559
0.39296,63.168
0.3871,62.777
0.38221,62.19
0.3783,61.799
0.37439,61.213
0.37048,60.821
0.36657,60.43
0.36364,60.235
0.36168,60.43
0.35777,61.213
0.35484,63.168
0.35093,67.275
0.34702,73.729
0.34311,82.334
0.3392,91.917
0.33529,101.5
0.33138,110.5
0.32747,118.12
0.32356,124.77
0.31965,129.66
0.31769,132.79
0.31476,134.55
0.31281,135.14
0.3089,134.75
0.30596,133.57
0.30303,131.62
0.3001,129.66
0.29619,127.31
0.29326,124.77
0.29032,122.03
0.28739,119.1
0.28446,115.78
0.2825,112.06
0.28152,108.15
0.27859,103.85
0.27566,99.544
0.27273,95.046
0.26979,91.134
0.26784,87.614
0.26882,84.876
0.2737,82.529
0.28446,80.769
0.30205,79.596
0.32942,78.618
0.36461,78.031
0.3998,77.836
0.43597,77.64
0.47996,77.64
0.52493,77.836
0.56989,77.836
0.61095,77.836
0.64614,77.836
0.67546,77.836
0.69892,77.64
0.71652,77.445
0.72923,76.858
0.73705,76.467
0.739,75.88
0.73705,75.098
0.73314,74.316
0.72727,73.533
0.7175,72.751
0.70479,71.969
0.68915,71.186
0.67155,70.6
0.652,69.818
0.6305,69.231
0.60802,68.644
0.58456,68.057
0.56109,67.666
0.54057,67.08
0.52297,66.493
0.5044,65.906
0.4868,65.319
0.47019,64.733
0.4565,64.146
0.44379,63.559
0.43304,62.973
0.42424,62.386
0.41642,61.799
0.40958,61.213
0.40469,60.626
0.3998,60.235
0.39589,59.648
0.39198,59.061
0.38807,58.475
0.38416,58.083
0.37928,57.692
0.37537,57.497
0.37048,57.497
0.36559,58.083
0.3607,59.844
0.35484,63.755
0.34897,70.209
0.34409,79.009
0.34018,89.179
0.33627,99.348
0.33236,108.74
0.32747,116.56
0.32258,123.21
0.31769,128.1
0.31378,131.23
0.3089,132.79
0.30499,132.99
0.3001,132.4
0.29521,130.83
0.2913,128.88
0.28739,126.92
0.28446,124.38
0.28152,121.84
0.27761,119.1
0.27273,115.97
0.26882,112.45
0.26491,108.74
0.261,104.43
0.25709,99.935
0.2522,95.241
0.24927,90.743
0.24633,86.636
0.24438,82.921
0.24438,79.987
0.24731,77.64
0.25513,75.88
0.27077,74.511
0.29521,73.729
0.32845,73.142
0.3695,72.947
0.41642,72.947
0.46628,72.947
0.51515,73.142
0.56207,73.338
0.60411,73.338
0.63636,73.533
0.6608,73.533
0.68231,73.533
0.6999,73.338
0.71359,73.142
0.72141,72.751
0.72532,72.164
0.72532,71.773
0.72141,71.186
0.71359,70.6
0.70283,70.013
0.68915,69.426
0.67449,68.84
0.65787,68.253
0.63734,67.666
0.61584,67.275
0.5914,66.884
0.56598,66.297
0.54154,65.906
0.51613,65.515
0.49267,65.124
0.47116,64.537
0.45161,64.146
0.43402,63.559
0.41838,62.973
0.40665,62.582
0.39785,61.995
0.38905,61.408
0.38221,61.017
0.37537,60.43
0.3695,59.844
0.36461,59.257
0.3607,58.67
0.35679,58.279
0.35288,57.692
0.34897,57.301
0.34506,57.106
0.34213,56.91
0.34018,57.106
0.33627,57.888
0.33333,59.844
0.32942,63.755
0.32551,70.209
0.3216,79.009
0.31769,89.179
0.31378,99.348
0.30987,108.54
0.30596,116.36
0.30303,122.82
0.29912,127.51
0.29717,130.44
0.29521,132.01
0.29326,132.2
0.29032,131.42
0.28739,129.86
0.28348,127.9
0.28055,125.75
0.27761,123.4
0.27468,120.86
0.27077,117.93
0.26784,114.8
0.26491,111.28
0.26197,107.37
0.261,103.26
0.25806,98.957
0.25513,94.263
0.25122,89.961
0.24829,86.05
0.24536,82.725
0.24536,79.987
0.25024,77.836
0.26002,76.467
0.27859,75.489
0.30694,74.902
0.34311,74.902
0.38025,74.902
0.41935,75.293
0.46628,75.685
0.51515,76.076
0.56403,76.467
0.60802,76.662
0.64712,77.054
0.67937,77.249
0.70479,77.249
0.72336,77.249
0.73705,77.054
0.74585,76.662
0.74878,76.467
0.74682,75.88
0.74389,75.293
0.73705,74.902
0.72727,74.12
0.71457,73.533
0.69795,72.947
0.67937,72.36
0.65885,71.773
0.63539,71.186
0.61095,70.6
0.58651,70.209
0.56109,69.426
0.53959,69.035
0.52102,68.449
0.50244,67.862
0.48387,67.275
0.46823,66.688
0.45455,66.102
0.44282,65.711
0.43402,65.124
0.4262,64.537
0.42033,64.146
0.41447,63.755
0.41056,63.168
0.40762,62.777
0.40567,62.19
0.40274,61.799
0.3998,61.213
0.39687,60.821
0.39394,60.43
0.39101,60.235
0.3871,60.43
0.38416,61.213
0.38025,63.364
0.37634,67.666
0.37146,74.707
0.36755,84.094
0.36461,94.068
0.36168,104.04
0.35777,113.23
0.35484,121.25
0.35093,127.9
0.34604,132.79
0.34213,135.92
0.33822,137.29
0.33431,137.68
0.32942,136.7
0.32551,135.14
0.3216,133.18
0.31867,131.03
0.31672,128.68
0.31378,126.34
0.31085,123.6
0.30694,120.86
0.30401,117.73
0.30108,114.21
0.29717,110.3
0.29423,106.19
0.29032,101.89
0.28641,97.588
0.2825,93.286
0.28055,89.374
0.28152,86.245
0.28543,83.507
0.29521,81.356
0.31183,79.791
0.33724,78.618
0.37243,77.836
0.41447,77.249
0.46139,77.054
0.51222,77.054
0.56207,77.054
0.60899,77.249
0.65103,77.445
0.68231,77.445
0.70674,77.445
0.72923,77.445
0.74682,77.249
0.75953,76.858
0.76833,76.662
0.77224,76.076
0.77224,75.685
0.76931,75.098
0.76246,74.511
0.75367,73.924
0.74096,73.338
0.72532,72.555
0.70968,72.164
0.69208,71.578
0.67155,70.991
0.64907,70.404
0.62561,70.013
0.6002,69.426
0.57576,69.035
0.5523,68.644
0.52981,68.057
0.50929,67.471
0.49071,67.08
0.4741,66.493
0.46041,66.102
0.44966,65.515
0.43988,64.928
0.43109,64.537
0.42229,63.95
0.41544,63.559
0.40958,62.973
0.40371,62.582
0.39883,61.995
0.39394,61.604
0.38905,61.213
0.38416,60.821
0.37928,60.43
0.37439,60.235
0.37146,60.43
0.36657,61.017
0.36168,62.777
0.35679,66.493
0.35191,72.947
0.34702,81.747
0.34213,91.721
0.33724,101.69
0.33236,111.08
0.32845,119.49
0.32356,126.53
0.32063,132.01
0.31769,135.72
0.31476,137.68
0.31085,138.46
0.30694,138.27
0.30303,136.9
0.29912,135.14
0.29521,132.99
0.2913,130.64
0.28739,127.9
0.28348,125.16
0.27957,122.23
0.27566,119.1
0.27273,115.58
0.27077,111.86
0.26784,107.95
0.26491,103.65
0.261,99.348
0.25709,95.046
0.25415,91.33
0.25318,87.81
0.25611,85.072
0.26491,82.725
0.28055,80.965
0.30499,79.596
0.33236,78.814
0.36364,78.227
0.40371,77.836
0.44868,77.64
0.49169,77.445
0.53177,77.445
0.56989,77.445
0.60411,77.445
0.63343,77.445
0.65787,77.445
0.67644,77.249
0.69013,77.054
0.69697,76.662
0.70088,76.467
0.70186,75.88
0.70088,75.489
0.69599,74.902
0.68915,74.316
0.68035,73.729
0.66862,72.947
0.65396,72.36
0.63734,71.578
0.61877,70.991
0.59922,70.404
0.57771,69.818
0.55914,69.231
0.54057,68.84
0.52199,68.253
0.50244,67.666
0.48387,67.275
0.46628,66.884
0.45064,66.297
0.43695,65.711
0.42522,65.124
0.41447,64.537
0.40469,64.146
0.39687,63.559
0.39003,62.973
0.38514,62.582
0.38025,61.995
0.37439,61.604
0.3695,61.213
0.36461,60.626
0.35973,60.235
0.35484,59.844
0.34995,59.844
0.34506,59.844
0.34018,60.43
0.33529,61.799
0.32942,65.124
0.32551,70.795
0.32258,78.814
0.31867,88.592
0.31378,98.566
0.3089,108.15
0.30401,116.75
0.3001,124.19
0.29521,130.25
0.2913,134.55
0.28641,137.29
0.2825,138.46
0.27761,138.66
0.27468,137.68
0.27175,135.92
0.26882,133.77
0.26491,131.23
0.261,128.49
0.25709,125.55
0.25318,122.43
0.24927,118.9
0.24536,115.19
0.24145,111.28
0.23754,106.98
0.23363,102.67
0.22972,98.175
0.22678,93.677
0.22581,89.765
0.22385,86.245
0.22483,83.507
0.22972,81.16
0.23949,79.205
0.25709,77.836
0.28055,76.858
0.31085,76.271
0.34604,75.88
0.38416,75.88
0.42229,75.88
0.45552,75.88
0.48387,75.88
0.51222,76.076
0.53959,76.271
0.56207,76.271
0.58162,76.271
0.59629,76.271
0.60802,76.271
0.61486,75.88
0.61975,75.685
0.62072,75.293
0.61779,74.707
0.6129,74.316
0.60606,73.729
0.59824,72.947
0.58651,72.36
0.57283,71.773
0.55718,71.186
0.54057,70.6
0.52199,70.013
0.50342,69.622
0.48485,69.035
0.46628,68.449
0.44868,68.057
0.43304,67.471
0.41935,66.884
0.40762,66.297
0.39687,65.906
0.38612,65.319
0.37634,64.733
0.36755,64.146
0.35973,63.559
0.35288,62.973
0.34702,62.582
0.34213,61.995
0.33724,61.604
0.33236,61.213
0.32747,60.626
0.32454,60.235
0.3216,59.844
0.31867,59.844
0.31476,59.844
0.30987,60.43
0.30596,62.19
0.30108,65.906
0.29717,71.969
0.29228,80.378
0.28837,90.157
0.28446,99.935
0.28055,109.52
0.27761,118.12
0.27468,125.55
0.27175,131.81
0.26784,136.11
0.26393,139.05
0.26002,140.22
0.25709,140.22
0.25318,138.85
0.24927,136.9
0.24536,134.35
0.24145,131.62
0.23851,128.49
0.2346,125.16
0.23265,121.64
0.23069,117.93
0.22776,113.82
0.22483,109.52
0.2219,104.82
0.21896,100.13
0.21505,95.437
0.21212,91.134
0.20919,87.223
0.20821,83.898
0.21017,81.16
0.21701,79.009
0.22678,77.445
0.24145,76.271
0.26197,75.489
0.28837,74.902
0.31867,74.707
0.35093,74.707
0.38319,74.902
0.41447,75.098
0.44282,75.293
0.46823,75.489
0.49071,75.88
0.50929,76.076
0.52395,76.076
0.5347,76.076
0.54154,76.076
0.54741,75.88
0.55132,75.685
0.55327,75.293
0.5523,74.707
0.54936,74.316
0.5435,73.729
0.53666,73.142
0.52688,72.555
0.51515,71.969
0.50147,71.382
0.48876,70.795
0.47605,70.209
0.46139,69.622
0.44673,69.035
0.43206,68.644
0.41838,68.057
0.40567,67.471
0.39296,67.08
0.38319,66.493
0.37341,65.906
0.36461,65.319
0.35777,64.733
0.35093,64.342
0.34604,63.755
0.34311,63.168
0.3392,62.777
0.33529,62.19
0.33138,61.604
0.32747,61.213
0.32356,60.821
0.32063,60.43
0.31672,60.039
0.31281,59.844
0.30987,60.039
0.30596,60.821
0.30303,62.582
0.3001,66.102
0.29717,72.164
0.29423,80.574
0.29032,90.352
0.28641,100.13
0.2825,109.52
0.27957,118.32
0.27566,126.34
0.27175,132.79
0.26882,137.68
0.26491,140.81
0.26295,142.18
0.261,142.18
0.25806,140.81
0.25513,138.85
0.25122,136.11
0.24829,133.18
0.24633,129.86
0.24536,126.14
0.24438,122.43
0.24145,118.32
0.2346,114.02
0.2219,109.52
0.20528,104.82
0.19355,99.935
0.19257,95.046
0.21505,90.743
0.27468,86.832
0.3783,83.507
0.51906,80.769
0.68133,78.618
0.82405,77.054
0.91202,75.88
0.95601,75.293
0.97849,74.902
0.98925,74.707
0.99511,74.707
0.99707,74.902
0.99902,75.293
1,75.489
1,75.88
1,76.271
1,76.467
1,76.662
1,76.662
1,76.662
1,76.662
0.91887,76.271
0.79472,75.88
0.72825,75.489
0.69013,74.902
0.66569,74.316
0.64809,73.729
0.63343,73.142
0.62072,72.555
0.60899,71.969
0.59629,71.186
0.58456,70.6
0.57283,70.013
0.56207,69.426
0.55132,68.84
0.54154,68.253
0.53275,67.666
0.52395,67.08
0.51515,66.493
0.50733,65.906
0.49951,65.124
0.49267,64.537
0.48583,63.95
0.47996,63.364
0.4741,62.973
0.46823,62.386
0.46334,61.604
0.45748,61.213
0.45357,60.626
0.44868,60.039
0.44379,59.648
0.43988,59.452
0.435,59.257
0.43109,59.648
0.4262,60.43
0.42229,62.777
0.4174,67.471
0.41349,74.707
0.40958,84.094
0.40469,94.263
0.40176,104.63
0.39785,114.41
0.39492,123.4
0.39101,131.23
0.3871,137.48
0.38416,141.79
0.38025,144.52
0.37732,145.31
0.37341,144.72
0.37048,142.96
0.36755,140.42
0.36461,137.48
0.36168,134.16
0.35875,130.64
0.35679,126.92
0.35386,123.01
0.35093,118.71
0.34897,114.21
0.34604,109.52
0.34311,104.43
0.34115,99.348
0.33822,94.263
0.33529,89.57
0.33333,85.463
0.33236,81.747
0.33236,78.618
0.33333,76.076
0.33724,74.12
0.34213,72.555
0.34897,71.382
0.35679,70.795
0.36657,70.404
0.37537,70.209
0.38416,70.209
0.39198,70.209
0.39785,70.6
0.40371,70.991
0.40762,71.382
0.41056,71.773
0.41251,72.164
0.41349,72.555
0.41447,72.751
0.41447,73.142
0.41349,73.533
0.41251,73.729
0.41153,73.924
0.40958,74.12
0.40665,74.316
0.40371,74.316
0.3998,74.511
0.39589,74.707
0.39198,74.707
0.3871,74.902
0.38221,74.707
0.37732,74.511
0.37146,74.316
0.36657,74.12
0.36266,73.729
0.35777,73.338
0.35386,72.751
0.35093,72.36
0.34702,71.773
0.34506,70.991
0.34311,70.404
0.34115,69.818
0.3392,69.035
0.33822,68.449
0.33627,67.666
0.33529,67.08
0.33431,66.297
0.33333,65.711
0.33236,65.124
0.33138,64.537
0.3304,64.342
0.32942,64.146
0.32942,64.733
0.32845,66.493
0.32845,70.209
0.32747,76.662
0.32747,85.267
0.32649,95.241
0.32551,105.41
0.32551,115.19
0.32454,124.58
0.32454,132.99
0.32356,139.83
0.32258,144.92
0.3216,147.85
0.3216,149.02
0.3216,148.63
0.32063,147.07
0.31965,144.52
0.31867,141.4
0.31769,137.87
0.31672,134.16
0.31574,130.25
0.31476,125.95
0.31378,121.64
0.31281,117.14
0.31085,112.26
0.31085,107.17
0.30987,102.28
0.3089,97.393
0.30792,93.09
0.30694,89.179
0.30596,85.854
0.30694,83.116
0.3089,80.965
0.31281,79.4
0.31769,78.227
0.32551,77.836
0.33431,77.445
0.34311,77.445
0.35093,77.64
0.35875,78.031
0.36559,78.227
0.37243,78.814
0.3783,79.205
0.38319,79.596
0.3871,79.791
0.39003,79.791
0.39198,79.791
0.39394,79.596
0.39394,79.4
0.39492,79.009
0.39394,78.422
0.39394,78.031
0.39198,77.445
0.39003,76.662
0.38807,76.076
0.38514,75.293
0.38221,74.707
0.3783,74.12
0.37439,73.533
0.37048,72.751
0.36657,72.164
0.36266,71.578
0.35973,70.991
0.35679,70.404
0.35484,69.818
0.35288,69.231
0.35093,68.84
0.34897,68.253
0.34702,67.666
0.34604,67.08
0.34506,66.493
0.34409,65.906
0.34311,65.515
0.34311,64.928
0.34213,64.537
0.34213,63.95
0.34115,63.364
0.34115,62.973
0.34018,62.386
0.3392,61.995
0.3392,61.799
0.33822,61.799
0.33724,62.19
0.33627,63.559
0.33529,66.884
0.33431,72.751
0.33333,81.16
0.33236,91.721
0.33138,102.67
0.33138,113.43
0.3304,123.79
0.32942,133.18
0.32845,141.2
0.32747,147.26
0.32649,151.37
0.32551,153.32
0.32454,153.52
0.32356,152.35
0.32258,150
0.3216,147.26
0.32063,143.94
0.32063,140.42
0.31965,136.7
0.31867,132.99
0.31769,128.88
0.31769,124.77
0.31672,120.27
0.31574,115.78
0.31476,111.08
0.31378,106.19
0.31281,101.3
0.31183,96.61
0.31183,92.112
0.31281,88.396
0.31476,85.267
0.31769,82.529
0.32258,80.574
0.32942,79.205
0.33822,78.227
0.348,77.64
0.35777,77.249
0.36657,77.249
0.37537,77.445
0.38319,77.64
0.39003,78.031
0.39492,78.422
0.39785,78.618
0.40176,79.009
0.40371,79.205
0.40665,79.205
0.40762,79.205
0.4086,79.205
0.40958,78.814
0.40958,78.618
0.4086,78.227
0.40762,77.64
0.40567,76.858
0.40371,76.271
0.40176,75.685
0.39883,75.098
0.39492,74.316
0.39101,73.729
0.38025,73.142
0.36461,72.555
0.35386,71.969
0.34702,71.186
0.34018,70.6
0.33529,70.209
0.33138,69.622
0.32845,69.035
0.32551,68.449
0.32356,67.862
0.3216,67.275
0.31965,66.688
0.31867,65.906
0.31672,65.515
0.31574,64.928
0.31476,64.537
0.31281,63.95
0.31183,63.364
0.31085,62.973
0.30987,62.582
0.3089,62.19
0.30792,61.995
0.30694,62.19
0.30596,62.777
0.30499,64.537
0.30303,68.057
0.30205,74.12
0.3001,82.921
0.29912,93.286
0.29717,104.04
0.29619,114.6
0.29423,124.58
0.29326,133.57
0.2913,141.2
0.29032,146.68
0.28935,150.2
0.28837,151.76
0.28641,151.56
0.28543,150.2
0.28348,147.65
0.2825,144.52
0.28055,140.81
0.27957,137.09
0.27859,133.18
0.27664,128.88
0.27566,124.58
0.27566,120.08
0.27468,115.58
0.27273,110.69
0.27175,105.61
0.27077,100.72
0.26882,95.828
0.26784,91.525
0.26784,87.419
0.26784,84.289
0.27077,81.356
0.27566,79.205
0.28348,77.64
0.29228,76.467
0.30205,75.685
0.31281,75.293
0.32551,75.293
0.33822,75.489
0.34995,75.685
0.35973,76.076
0.36852,76.271
0.37634,76.662
0.38221,76.858
0.3871,77.249
0.39101,77.445
0.39394,77.445
0.39492,77.249
0.39589,77.054
0.39589,76.467
0.39589,75.88
0.39394,75.098
0.39198,74.12
0.39003,73.142
0.38612,71.773
0.38221,70.6
0.37732,69.035
0.37243,67.666
0.36657,66.102
0.36168,64.733
0.35679,63.364
0.35191,61.995
0.34702,60.626
0.34213,59.452
0.33822,58.279
0.33431,57.497
0.3304,56.715
0.32747,55.932
0.32551,55.541
0.32356,55.346
0.3216,55.15
0.31965,55.15
0.31867,55.346
0.31769,55.737
0.31672,56.323
0.31574,57.106
0.31378,58.279
0.31281,59.452
0.31183,61.017
0.30987,62.582
0.3089,64.537
0.30694,66.297
0.30499,68.84
0.30303,71.969
0.30108,76.662
0.29912,83.507
0.29717,92.112
0.29423,101.5
0.29228,110.89
0.28935,119.69
0.28641,127.9
0.28348,134.75
0.28055,140.03
0.27761,143.35
0.27468,144.72
0.27175,144.52
0.26882,142.96
0.26784,140.42
0.26588,137.09
0.26393,133.38
0.26197,129.47
0.26002,125.36
0.25904,121.06
0.25806,116.36
0.25806,111.86
0.25806,106.98
0.25806,101.89
0.25904,97.001
0.26002,92.503
0.261,88.396
0.26295,84.876
0.26491,82.138
0.26686,79.987
0.27077,78.227
0.27566,77.054
0.2825,76.467
0.29032,76.076
0.3001,76.076
0.31183,76.467
0.32356,76.858
0.33529,77.249
0.34506,77.836
0.35386,78.227
0.36266,78.814
0.37048,79.009
0.37732,79.4
0.38221,79.4
0.3871,79.4
0.39003,79.205
0.39198,78.814
0.39394,78.422
0.39394,78.031
0.39296,77.445
0.39198,76.858
0.39003,76.271
0.3871,75.685
0.38319,75.098
0.37928,74.511
0.37439,73.729
0.3695,73.338
0.36461,72.555
0.35973,72.164
0.35484,71.382
0.34995,70.795
0.34604,70.404
0.34213,69.818
0.3392,69.231
0.33724,68.644
0.33529,68.057
0.33333,67.471
0.33236,66.884
0.3304,66.297
0.32942,65.906
0.32845,65.319
0.32747,64.733
0.32649,64.342
0.32551,63.755
0.32454,63.168
0.32356,62.777
0.32258,62.19
0.3216,61.799
0.32063,61.604
0.31965,61.604
0.31769,62.19
0.31672,64.146
0.31476,67.862
0.31378,74.316
0.31281,83.312
0.31085,93.872
0.30987,104.43
0.30792,114.8
0.30694,124.77
0.30596,133.77
0.30499,141.2
0.30401,146.48
0.30205,149.8
0.30108,150.98
0.3001,150.59
0.29814,149.02
0.29717,146.68
0.29619,143.74
0.29423,140.61
0.29326,137.09
0.29228,133.38
0.2913,129.66
0.29032,125.55
0.28935,121.45
0.28837,117.14
0.28739,112.84
0.28641,108.15
0.28446,103.46
0.28348,98.761
0.2825,94.263
0.28152,90.157
0.2825,86.636
0.28543,83.703
0.29032,81.356
0.29619,79.791
0.30499,78.618
0.31672,77.836
0.3304,77.445
0.34409,77.445
0.35875,77.445
0.37341,77.836
0.38612,78.227
0.39883,78.422
0.4086,78.814
0.41838,79.205
0.42522,79.4
0.43011,79.4
0.435,79.4
0.43891,79.4
0.44282,79.009
0.44477,78.814
0.44673,78.227
0.44673,77.836
0.44575,77.249
0.44477,76.662
0.44184,75.88
0.43793,75.098
0.43304,74.511
0.42815,73.924
0.42326,73.338
0.4174,72.555
0.41056,72.164
0.40469,71.578
0.39785,70.795
0.39198,70.404
0.38612,69.818
0.38123,69.231
0.37732,68.644
0.37243,68.057
0.41056,67.471
0.46921,66.884
0.4956,66.297
0.50635,65.711
0.50831,65.124
0.50733,64.537
0.5044,64.146
0.50049,63.559
0.4956,62.973
0.49071,62.582
0.48583,61.995
0.48094,61.799
0.47507,61.604
0.47019,61.995
0.4653,63.168
0.46139,65.906
0.4565,71.382
0.45064,79.596
0.44575,89.765
0.43988,100.91
0.43402,111.86
0.42815,122.43
0.42326,132.01
0.4174,140.03
0.41251,146.09
0.40762,150
0.40371,151.76
0.3998,151.76
0.39589,150.59
0.39101,148.24
0.38612,145.31
0.38221,142.18
0.37732,138.66
0.37243,134.94
0.36755,131.23
0.36364,127.31
0.35875,123.21
0.35484,119.1
0.34995,114.8
0.34702,110.3
0.34409,105.61
0.34018,101.11
0.33627,96.415
0.33333,92.112
0.33138,88.396
0.33431,85.267
0.34409,82.725
0.3607,80.769
0.38416,79.205
0.41642,78.227
0.45357,77.445
0.48974,77.249
0.52395,77.054
0.56305,77.249
0.60215,77.445
0.6393,77.836
0.67253,78.031
0.70283,78.227
0.72825,78.422
0.74976,78.618
0.76637,78.618
0.78006,78.618
0.79081,78.422
0.79668,78.227
0.79961,78.031
0.79765,77.445
0.7957,77.054
0.78983,76.467
0.78201,75.88
0.77224,75.293
0.75855,74.511
0.74389,73.924
0.7263,73.338
0.70772,72.751
0.68817,72.164
0.66764,71.578
0.65005,70.795
0.63343,70.404
0.61584,69.622
0.59922,69.035
0.58358,68.449
0.56891,67.862
0.55621,67.275
0.54448,66.688
0.53372,66.102
0.52395,65.515
0.51613,64.928
0.50733,64.342
0.50049,63.755
0.49365,63.168
0.48778,62.777
0.48192,62.386
0.47605,61.799
0.47019,61.408
0.46432,61.408
0.45846,61.408
0.45259,62.19
0.44673,64.146
0.44086,67.862
0.435,74.316
0.42815,83.116
0.42326,93.481
0.41838,104.04
0.41251,114.21
0.40665,123.99
0.40078,132.4
0.39589,139.24
0.39003,143.94
0.38416,146.87
0.3783,147.85
0.37243,147.26
0.36755,145.5
0.36168,142.76
0.35679,139.64
0.35191,136.31
0.34897,132.79
0.34409,128.88
0.3392,124.97
0.33431,120.86
0.32942,116.56
0.32454,112.06
0.32063,107.37
0.31574,102.48
0.31085,97.784
0.30596,93.09
0.30205,88.983
0.3001,85.267
0.30108,82.334
0.30596,79.791
0.31672,78.031
0.33431,76.662
0.3607,75.685
0.39296,75.293
0.43206,75.098
0.4741,75.098
0.51808,75.098
0.56012,75.489
0.6002,75.88
0.63245,76.271
0.65787,76.662
0.68328,76.858
0.70674,77.054
0.72532,77.249
0.74096,77.249
0.75269,77.249
0.76051,77.054
0.76442,76.858
0.7654,76.662
0.76246,76.076
0.7566,75.489
0.74682,75.098
0.73607,74.511
0.72239,73.924
0.70674,73.533
0.68817,72.947
0.66764,72.36
0.64712,71.969
0.62561,71.382
0.60411,70.795
0.58456,70.404
0.565,69.818
0.54741,69.231
0.53079,68.644
0.51808,68.057
0.50635,67.471
0.4956,66.884
0.48583,66.297
0.47605,65.906
0.46725,65.319
0.45943,64.733
0.45259,64.146
0.44575,63.559
0.43988,62.973
0.43402,62.386
0.42815,61.799
0.42326,61.408
0.41838,61.017
0.41447,60.821
0.40958,61.017
0.40469,61.995
0.3998,64.537
0.39492,69.231
0.38905,76.467
0.38416,85.463
0.3783,95.437
0.37341,105.41
0.36755,114.6
0.36266,122.82
0.35875,129.27
0.35582,133.57
0.35093,135.92
0.34702,136.11
0.34213,134.75
0.33627,132.2
0.33138,128.68
0.32649,124.97
0.3216,121.06
0.31769,116.95
0.31281,112.84
0.30792,108.74
0.30401,104.24
0.30108,99.739
0.29814,95.046
0.29521,90.352
0.29032,85.658
0.28641,81.552
0.28152,78.031
0.27664,75.098
0.2737,73.338
0.27175,72.164
0.27468,71.773
0.2825,71.969
0.29717,72.555
0.31574,73.533
0.3392,74.902
0.37048,76.271
0.4086,77.64
0.44868,79.009
0.48974,79.987
0.52884,80.965
0.56305,81.552
0.59335,81.943
0.61877,82.138
0.63832,81.943
0.65298,81.552
0.66373,81.16
0.66862,80.574
0.6696,79.791
0.6696,78.814
0.66569,78.031
0.65982,77.054
0.65005,76.076
0.63832,74.902
0.62366,73.924
0.60802,73.142
0.58944,72.36
0.57087,71.578
0.55132,70.795
0.5347,70.013
0.52004,69.426
0.50538,68.84
0.49169,68.253
0.47996,67.862
0.47019,67.275
0.46334,66.884
0.45846,66.493
0.45455,66.102
0.45259,65.906
0.45064,65.515
0.44868,65.124
0.4477,64.733
0.44575,64.342
0.44477,63.95
0.44282,63.559
0.43988,62.973
0.43597,62.582
0.42522,62.19
0.40958,61.995
0.3998,61.995
0.39198,62.386
0.38514,64.146
0.37928,67.666
0.37341,73.729
0.36852,82.138
0.36364,91.917
0.35875,102.28
0.35288,112.26
0.348,121.64
0.34213,130.05
0.33724,136.7
0.33236,141.4
0.32747,144.13
0.32258,145.31
0.31769,144.92
0.31378,143.16
0.30987,140.81
0.30694,137.87
0.30499,134.75
0.30205,131.42
0.29912,127.9
0.29521,124.38
0.29228,120.47
0.28935,116.56
0.28641,112.26
0.28348,107.95
0.28055,103.26
0.27664,98.566
0.2737,94.068
0.27175,90.157
0.27077,86.441
0.27077,83.507
0.27468,81.16
0.28348,79.4
0.29912,78.227
0.3216,77.249
0.35191,76.858
0.3871,76.662
0.42717,76.858
0.46921,77.054
0.51026,77.445
0.55034,77.836
0.5826,78.031
0.60899,78.422
0.63539,78.618
0.65885,78.618
0.67937,78.618
0.69599,78.422
0.7087,78.227
0.7175,77.64
0.72336,77.249
0.72532,76.662
0.72434,76.076
0.71945,75.293
0.71261,74.707
0.70283,73.924
0.6911,73.338
0.67644,72.751
0.65982,72.164
0.64125,71.578
0.62268,70.991
0.60313,70.404
0.58358,70.013
0.565,69.426
0.54643,68.84
0.52981,68.253
0.51417,67.666
0.50147,67.275
0.49071,66.688
0.48094,66.102
0.47116,65.515
0.46237,64.928
0.45357,64.537
0.44673,63.95
0.43988,63.364
0.43402,62.973
0.42815,62.386
0.42326,61.995
0.4174,61.408
0.41349,61.213
0.4086,60.821
0.40371,60.821
0.39883,61.408
0.39296,62.973
0.3871,66.884
0.38123,73.533
0.37634,82.725
0.37048,93.872
0.36559,105.22
0.35973,116.17
0.35484,126.34
0.34995,135.14
0.34604,141.98
0.34213,146.48
0.33822,149.22
0.33431,150
0.32942,149.22
0.32551,147.26
0.32063,144.72
0.31672,141.59
0.31281,138.46
0.3089,134.94
0.30499,131.62
0.30108,127.9
0.29912,124.19
0.29619,120.27
0.29326,116.36
0.29032,112.06
0.28641,107.76
0.2825,103.06
0.27859,98.566
0.27468,94.068
0.27273,89.961
0.27273,86.441
0.27761,83.703
0.28837,81.356
0.30303,79.791
0.32356,78.422
0.35386,77.64
0.39101,77.249
0.43402,77.054
0.47898,77.054
0.52493,77.249
0.56891,77.445
0.60997,77.836
0.64614,78.031
0.67742,78.227
0.70283,78.227
0.72434,78.227
0.73803,78.227
0.74682,78.031
0.75464,77.64
0.75953,77.249
0.76051,76.858
0.75953,76.271
0.75464,75.685
0.74682,75.098
0.73607,74.511
0.72239,73.729
0.70674,73.142
0.68817,72.555
0.6696,71.969
0.65103,71.382
0.6305,70.6
0.60899,70.209
0.58651,69.426
0.565,69.035
0.54545,68.449
0.52688,67.862
0.50929,67.275
0.49365,66.688
0.47996,65.906
0.46725,65.515
0.4565,64.733
0.4477,64.342
0.43988,63.755
0.43206,63.168
0.42522,62.582
0.41838,61.995
0.41251,61.604
0.40567,61.213
0.3998,60.821
0.39394,60.626
0.38807,60.626
0.38221,61.408
0.37732,63.168
0.37243,67.08
0.36755,73.338
0.36266,82.138
0.35679,92.308
0.35191,102.67
0.34604,113.04
0.34018,122.23
0.33529,130.25
0.3304,136.7
0.32454,140.81
0.31965,143.16
0.31476,143.94
0.30987,143.16
0.30596,141.4
0.30303,138.85
0.29912,135.92
0.29423,132.79
0.29032,129.27
0.28641,125.75
0.28152,122.03
0.27761,117.93
0.2737,114.02
0.26979,109.71
0.26588,105.22
0.261,100.72
0.25806,96.024
0.25513,91.525
0.2522,87.419
0.25024,84.094
0.24927,81.16
0.25318,79.009
0.26197,77.249
0.27859,76.076
0.30303,75.293
0.33431,75.098
0.37243,74.902
0.41447,74.902
0.45943,75.098
0.49756,75.293
0.53177,75.685
0.56794,75.88
0.60215,76.271
0.63245,76.271
0.65787,76.467
0.6784,76.467
0.69501,76.467
0.70674,76.271
0.71457,75.88
0.71848,75.685
0.71848,75.098
0.71457,74.511
0.70772,73.924
0.69892,73.338
0.68719,72.751
0.67253,71.969
0.65494,71.382
0.63636,70.795
0.61584,70.209
0.59335,69.622
0.57185,69.035
0.55034,68.449
0.52884,67.862
0.50929,67.471
0.49267,66.884
0.47898,66.102
0.46432,65.711
0.45161,65.124
0.43988,64.537
0.42913,63.95
0.42033,63.364
0.41153,62.777
0.40469,62.386
0.39785,61.799
0.39198,61.408
0.38612,60.821
0.38221,60.43
0.3783,60.039
0.37341,59.844
0.3695,59.844
0.36461,60.43
0.3607,62.19
0.35582,65.515
0.35093,71.578
0.34604,79.987
0.34115,90.157
0.33627,100.52
0.33138,110.69
0.32649,120.08
0.32258,128.29
0.31965,134.55
0.31476,139.05
0.31085,141.4
0.30694,142.37
0.30205,141.59
0.29814,139.83
0.29423,137.48
0.28935,134.55
0.28543,131.23
0.28152,127.71
0.27761,124.19
0.27468,120.47
0.27273,116.36
0.26979,112.26
0.26588,107.95
0.26295,103.46
0.25904,98.761
0.25513,94.068
0.25122,89.765
0.24829,85.854
0.24536,82.725
0.24536,79.987
0.24927,78.031
0.25904,76.467
0.27273,75.293
0.2913,74.902
0.31867,74.511
0.35386,74.511
0.39394,74.707
0.43695,74.902
0.48192,75.098
0.52493,75.489
0.565,75.685
0.60117,75.88
0.63245,76.076
0.65787,76.271
0.67644,76.271
0.68915,76.076
0.6999,75.88
0.70772,75.489
0.71163,75.098
0.71261,74.707
0.70968,74.12
0.70381,73.533
0.69404,72.947
0.68231,72.164
0.66667,71.578
0.64907,70.991
0.62952,70.404
0.61095,69.818
0.59335,69.231
0.57283,68.644
0.5523,68.057
0.53177,67.471
0.51222,66.884
0.49365,66.297
0.47703,65.906
0.46237,65.319
0.44966,64.733
0.43793,64.146
0.42815,63.559
0.42033,62.973
0.41447,62.582
0.40762,61.995
0.40176,61.408
0.39589,61.017
0.39101,60.43
0.38612,60.039
0.38123,59.844
0.37634,59.648
0.37243,59.844
0.36755,60.43
0.36266,62.19
0.35777,65.906
0.35386,72.164
0.35093,80.574
0.34604,90.548
0.34213,100.91
0.33724,110.69
0.33236,119.69
0.32747,127.51
0.32258,133.57
0.31769,137.68
0.31378,139.83
0.3089,140.42
0.30401,139.64
0.30108,137.87
0.29814,135.53
0.29423,132.59
0.2913,129.47
0.28739,125.95
0.28348,122.43
0.27957,118.71
0.27566,114.8
0.27175,110.69
0.26784,106.19
0.26491,101.69
0.261,97.001
0.25806,92.503
0.25611,88.396
0.25318,84.681
0.25024,81.552
0.25024,79.205
0.25318,77.249
0.261,75.685
0.27664,74.902
0.29912,74.316
0.32942,74.12
0.36657,74.12
0.40762,74.316
0.45259,74.511
0.49071,74.902
0.5259,75.098
0.56305,75.489
0.59726,75.685
0.62854,75.88
0.65591,75.88
0.67742,75.88
0.69404,75.685
0.70674,75.489
0.71457,75.098
0.7175,74.707
0.7175,74.316
0.71359,73.533
0.70674,72.947
0.69697,72.36
0.68524,71.773
0.6696,71.186
0.652,70.6
0.63245,69.818
0.61193,69.231
0.58944,68.84
0.56794,68.253
0.54643,67.666
0.5259,67.08
0.50733,66.493
0.49071,65.906
0.47703,65.319
0.46334,64.733
0.45161,64.342
0.43988,63.755
0.43011,63.168
0.42131,62.777
0.41349,62.19
0.40665,61.604
0.40078,61.213
0.39589,60.626
0.39101,60.235
0.38612,59.844
0.38319,59.648
0.37928,59.452
0.37439,59.844
0.37048,60.626
0.36559,62.973
0.36168,67.275
0.35679,74.316
0.35191,83.507
0.34702,93.677
0.34213,104.04
0.33724,113.82
0.33236,122.62
0.32845,130.05
0.32551,135.72
0.3216,139.24
0.31769,141
0.31281,141.2
0.3089,140.22
0.30401,138.27
0.3001,135.53
0.29521,132.59
0.2913,129.47
0.28739,125.95
0.28348,122.43
0.28055,118.9
0.27761,114.99
0.27468,110.89
0.27175,106.78
0.26784,102.28
0.26491,97.784
0.261,93.286
0.25709,89.179
0.25415,85.658
0.2522,82.529
0.2522,80.183
0.25806,78.227
0.26979,76.858
0.28446,75.88
0.30499,75.489
0.33529,75.293
0.37243,75.293
0.41447,75.489
0.45943,75.88
0.50538,76.271
0.54936,76.467
0.58944,76.662
0.62561,77.054
0.65689,77.054
0.68231,77.249
0.6999,77.054
0.71163,77.054
0.72239,76.662
0.72923,76.467
0.73314,75.88
0.73314,75.293
0.72923,74.707
0.72239,74.12
0.71163,73.533
0.69795,72.947
0.68231,72.164
0.66373,71.578
0.64418,70.991
0.62463,70.404
0.60606,69.818
0.58553,69.231
0.56403,68.84
0.5435,68.253
0.52395,67.666
0.50635,67.08
0.48974,66.493
0.47507,65.906
0.46237,65.515
0.45064,64.928
0.44086,64.342
0.43304,63.755
0.42717,63.364
0.42131,62.973
0.41544,62.386
0.41056,61.995
0.40567,61.408
0.40078,61.213
0.39589,61.017
0.39198,61.017
0.3871,61.604
0.38319,63.168
0.3783,66.688
0.37439,72.947
0.37048,81.356
0.36657,91.525
0.36266,102.09
0.35875,112.06
0.35386,121.25
0.34897,129.27
0.34506,135.33
0.34018,139.64
0.33627,141.98
0.33138,142.57
0.32747,141.98
0.32356,140.42
0.31965,137.87
0.31769,135.14
0.31378,132.2
0.30987,128.88
0.30694,125.55
0.30303,122.03
0.30108,118.32
0.3001,114.41
0.29814,110.3
0.29521,106
0.2913,101.5
0.28837,97.001
0.28446,92.699
0.2825,88.788
0.28055,85.463
0.28055,82.529
0.28348,80.378
0.2913,78.618
0.30499,77.445
0.32747,76.662
0.35679,76.467
0.39394,76.271
0.43695,76.467
0.48289,76.662
0.52981,77.054
0.56891,77.445
0.60313,77.64
0.63734,77.836
0.6696,78.031
0.69795,78.031
0.72141,77.836
0.739,77.64
0.75269,77.249
0.76149,76.858
0.7654,76.271
0.76637,75.685
0.76246,75.098
0.75562,74.316
0.74585,73.533
0.73412,72.947
0.71945,72.36
0.70283,71.773
0.68328,70.991
0.66276,70.404
0.64027,69.818
0.61779,69.231
0.59531,68.644
0.57283,68.057
0.5523,67.471
0.53275,66.884
0.51613,66.297
0.50244,65.711
0.48876,65.124
0.47605,64.537
0.4653,64.146
0.45552,63.559
0.4477,62.973
0.43988,62.582
0.43304,61.995
0.4262,61.604
0.42033,61.213
0.41544,60.626
0.41056,60.43
0.40665,60.43
0.40176,60.626
0.39687,61.799
0.39198,64.537
0.38612,69.622
0.38123,77.445
0.37537,87.223
0.3695,97.979
0.36461,108.54
0.35875,118.32
0.35288,126.92
0.34702,133.77
0.34311,138.66
0.3392,141.4
0.33431,142.57
0.32942,142.18
0.32454,140.81
0.31965,138.46
0.31476,135.92
0.30987,132.79
0.30499,129.66
0.30108,126.34
0.29619,122.82
0.29228,119.3
0.28837,115.38
0.28543,111.28
0.2825,106.98
0.27859,102.48
0.27468,97.979
0.26979,93.481
0.26588,89.374
0.26197,85.854
0.26002,82.725
0.26002,80.378
0.26588,78.618
0.27761,77.249
0.29814,76.271
0.3216,75.88
0.34897,75.685
0.38612,75.685
0.42913,75.88
0.47605,76.076
0.52199,76.271
0.56598,76.662
0.60704,76.858
0.64223,77.054
0.67155,77.054
0.69599,77.054
0.71457,76.858
0.7263,76.662
0.73216,76.271
0.73607,75.88
0.73803,75.489
0.73509,74.902
0.73021,74.316
0.72141,73.533
0.70968,72.947
0.69501,72.164
0.67742,71.578
0.65885,70.991
0.63734,70.404
0.61486,69.818
0.59433,69.035
0.5738,68.644
0.55327,68.057
0.53177,67.471
0.51124,66.884
0.49169,66.297
0.47507,65.711
0.45943,65.124
0.44575,64.537
0.43402,63.95
0.42326,63.364
0.41447,62.973
0.40762,62.386
0.40176,61.799
0.39589,61.408
0.39003,60.821
0.38514,60.43
0.38025,60.039
0.37537,59.844
0.37048,60.039
0.36559,60.626
0.3607,62.19
0.35679,65.515
0.35191,71.382
0.34702,79.791
0.34311,89.765
0.3392,100.13
0.33529,110.1
0.3304,119.3
0.32551,127.12
0.32063,133.18
0.31574,137.09
0.31085,139.24
0.30596,139.83
0.30205,139.24
0.29717,137.29
0.29228,134.94
0.28935,132.01
0.28641,128.88
0.28348,125.55
0.27957,122.03
0.27566,118.32
0.27175,114.6
0.26686,110.5
0.26295,106.19
0.25904,101.69
0.25513,97.197
0.25122,92.503
0.24731,88.396
0.24438,84.681
0.24242,81.552
0.24242,79.009
0.24438,77.249
0.25122,75.88
0.26393,74.902
0.28348,74.511
0.31183,74.316
0.34702,74.316
0.38905,74.707
0.43402,74.902
0.48094,75.293
0.5259,75.685
0.56305,75.88
0.59433,76.076
0.62561,76.271
0.65298,76.271
0.67546,76.271
0.69404,75.88
0.70674,75.685
0.71457,75.293
0.71848,74.707
0.71848,74.316
0.71457,73.533
0.70674,72.947
0.69599,72.36
0.68328,71.773
0.66862,70.991
0.652,70.404
0.63148,69.818
0.61095,69.231
0.58847,68.84
0.565,68.253
0.54252,67.666
0.52004,67.08
0.49951,66.493
0.48094,65.906
0.46334,65.319
0.44966,64.733
0.43891,64.146
0.42815,63.559
0.41838,63.168
0.40958,62.582
0.40176,62.19
0.39492,61.604
0.38905,61.213
0.38319,60.626
0.3783,60.235
0.37341,59.844
0.3695,59.844
0.36461,59.844
0.36168,60.43
0.35875,61.799
0.35484,64.928
0.35093,70.404
0.34604,78.422
0.34115,88.396
0.33627,98.566
0.33138,108.54
0.32747,117.73
0.32258,125.55
0.31769,131.62
0.31281,135.92
0.30987,138.27
0.30694,139.05
0.30303,138.46
0.29912,136.9
0.29521,134.55
0.29032,131.81
0.28641,128.68
0.2825,125.36
0.27859,122.03
0.27468,118.32
0.27077,114.6
0.26686,110.69
0.26295,106.39
0.26002,101.89
0.25806,97.393
0.25513,92.894
0.2522,88.788
0.24829,85.072
0.24536,81.943
0.24438,79.596
0.24536,77.64
0.2522,76.271
0.26393,75.293
0.28446,74.707
0.31281,74.511
0.34311,74.511
0.37634,74.902
0.41544,75.098
0.45748,75.293
0.50049,75.685
0.54154,75.88
0.57869,76.076
0.61193,76.271
0.6393,76.271
0.66178,76.076
0.67937,76.076
0.69208,75.685
0.6999,75.489
0.70283,75.098
0.70186,74.511
0.69892,73.924
0.69306,73.338
0.68426,72.555
0.67253,71.969
0.65787,71.382
0.64125,70.6
0.62268,70.013
0.60215,69.426
0.58162,68.84
0.56012,68.253
0.54057,67.666
0.52297,67.08
0.50538,66.493
0.48778,65.906
0.47116,65.515
0.4565,64.928
0.44379,64.342
0.43304,63.755
0.42229,63.168
0.41349,62.777
0.40665,62.19
0.3998,61.799
0.39492,61.408
0.39101,60.821
0.38612,60.43
0.38221,60.039
0.3783,59.844
0.37439,60.039
0.37048,60.43
0.36657,61.995
0.36168,65.124
0.35777,70.6
0.35386,78.422
0.34995,88.201
0.34506,98.566
0.34213,108.54
0.3392,117.93
0.33529,125.95
0.3304,132.4
0.32649,136.9
0.32258,139.24
0.31769,140.22
0.31378,139.83
0.30987,138.27
0.30596,136.11
0.30108,133.38
0.29717,130.44
0.29423,127.31
0.29228,123.99
0.28837,120.67
0.28543,116.95
0.28152,113.04
0.27859,108.93
0.27468,104.63
0.27175,100.13
0.26784,95.437
0.26491,91.134
0.261,87.223
0.25806,83.898
0.25709,81.16
0.25904,79.009
0.26393,77.445
0.2737,76.467
0.29032,75.685
0.31476,75.293
0.34604,75.293
0.38319,75.293
0.42522,75.489
0.46823,75.88
0.51222,76.076
0.55327,76.271
0.5914,76.467
0.62072,76.467
0.64321,76.467
0.66471,76.076
0.68231,75.685
0.69599,75.098
0.70577,74.12
0.71163,73.142
0.71359,71.773
0.71163,70.209
0.70674,68.449
0.69795,66.493
0.68719,64.537
0.67253,62.582
0.65787,60.821
0.64125,58.866
0.62268,57.301
0.60215,55.737
0.58065,54.172
0.55914,52.999
0.53861,51.825
0.51808,50.847
0.49951,50.456
0.48192,50.261
0.46628,50.261
0.45161,50.847
0.44086,51.63
0.43206,52.803
0.42424,54.172
0.41642,55.541
0.40958,57.301
0.40274,59.061
0.39687,61.017
0.39198,62.777
0.38612,64.537
0.38123,66.102
0.37537,67.666
0.3695,69.035
0.36266,70.6
0.35679,72.751
0.35191,76.467
0.34409,82.138
0.33529,89.57
0.32551,98.175
0.31574,106.98
0.30499,115.19
0.29326,122.43
0.28152,128.49
0.26979,132.59
0.25806,134.94
0.24633,135.92
0.23754,135.33
0.22972,133.77
0.22092,131.42
0.2131,128.68
0.20528,125.55
0.19941,122.23
0.19453,118.9
0.19159,115.19
0.19062,111.08
0.19257,106.98
0.1955,102.67
0.20039,97.979
0.20723,93.481
0.21408,89.374
0.2219,85.658
0.23069,82.725
0.23949,80.378
0.24829,78.422
0.25904,77.249
0.27077,76.467
0.28641,76.076
0.30596,75.88
0.33138,76.076
0.36168,76.467
0.39687,76.858
0.43011,77.249
0.46237,77.64
0.49951,78.031
0.53666,78.227
0.57283,78.227
0.60508,78.227
0.63245,78.227
0.65494,77.836
0.67253,77.445
0.68524,77.054
0.69404,76.662
0.69795,75.88
0.69795,75.293
0.69501,74.707
0.68817,73.924
0.67937,73.338
0.66764,72.751
0.65298,72.164
0.63636,71.578
0.61779,70.991
0.59824,70.6
0.57771,70.013
0.55816,69.622
0.53861,69.035
0.52004,68.449
0.50538,67.862
0.49169,67.471
0.47898,66.884
0.46725,66.493
0.4565,65.906
0.4477,65.515
0.43988,64.928
0.43304,64.537
0.42717,64.146
0.42229,63.755
0.4174,63.364
0.41251,62.973
0.4086,62.582
0.40567,62.19
0.40176,61.995
0.39883,61.995
0.39394,62.19
0.39003,63.364
0.38612,66.297
0.38123,71.382
0.37634,79.205
0.37243,88.983
0.36755,99.544
0.36364,109.71
0.35875,119.3
0.35582,127.51
0.35288,134.35
0.34897,139.24
0.34604,141.98
0.34213,143.35
0.33822,143.16
0.33431,141.98
0.3304,140.03
0.32747,137.68
0.32356,135.14
0.32063,132.2
0.31769,129.27
0.31476,126.14
0.31281,122.82
0.31183,119.49
0.30987,115.58
0.30694,111.67
0.30499,107.37
0.30303,103.06
0.3001,98.566
0.29717,94.263
0.29521,90.352
0.29326,86.832
0.29521,84.094
0.3001,81.943
0.3089,80.378
0.3216,79.205
0.34311,78.422
0.37146,78.227
0.40762,78.227
0.4477,78.227
0.49169,78.422
0.53568,78.618
0.57771,78.814
0.61779,79.205
0.652,79.205
0.68231,79.4
0.70381,79.205
0.71945,79.009
0.73412,78.814
0.74487,78.422
0.75171,77.836
0.75562,77.249
0.75562,76.662
0.75073,76.076
0.74194,75.293
0.73216,74.511
0.72043,73.924
0.70772,73.142
0.69208,72.555
0.67742,71.969
0.66178,71.382
0.64418,70.795
0.62561,70.209
0.60606,69.622
0.58749,69.035
0.56891,68.449
0.5523,67.862
0.53666,67.275
0.52297,66.688
0.51026,66.102
0.49951,65.515
0.49071,64.928
0.48289,64.537
0.47605,63.95
0.47019,63.559
0.46432,62.973
0.45943,62.582
0.45455,61.995
0.44966,61.604
0.44575,61.408
0.44086,61.604
0.43695,62.19
0.43206,63.95
0.42815,67.862
0.42424,74.511
0.42033,83.898
0.41642,94.85
0.41251,106
0.40762,116.56
0.40274,126.14
0.39883,133.96
0.39394,139.64
0.39003,143.35
0.38612,145.11
0.38123,145.5
0.37732,144.52
0.37439,142.76
0.37146,140.22
0.36852,137.48
0.36461,134.55
0.3607,131.42
0.35777,128.29
0.35386,124.97
0.34995,121.45
0.34702,117.93
0.34409,114.21
0.34018,110.3
0.33724,106
0.33431,101.5
0.33138,97.001
0.32942,92.894
0.32747,89.179
0.32649,85.854
0.32747,83.312
0.33333,81.16
0.34311,79.791
0.3607,78.618
0.38514,78.031
0.41544,77.836
0.45064,77.64
0.48974,77.64
0.52395,77.836
0.55621,78.031
0.58944,78.227
0.6217,78.227
0.65103,78.422
0.67546,78.422
0.69501,78.227
0.71065,78.031
0.72239,77.836
0.72923,77.249
0.73314,76.858
0.73314,76.467
0.73021,75.685
0.72532,75.098
0.71848,74.511
0.7087,73.729
0.69697,73.142
0.68426,72.555
0.66862,71.969
0.65103,71.186
0.63343,70.6
0.61388,70.013
0.59433,69.426
0.57478,68.84
0.55523,68.253
0.53959,67.666
0.52493,67.08
0.51026,66.493
0.49658,65.906
0.48485,65.319
0.47312,64.733
0.46334,64.146
0.45552,63.755
0.4477,63.168
0.44086,62.582
0.435,62.19
0.43011,61.604
0.42522,61.408
0.42131,61.017
0.41838,61.017
0.41447,61.213
0.41056,62.19
0.40665,64.537
0.40274,69.035
0.39785,76.271
0.39394,85.658
0.39003,96.219
0.38514,106.58
0.38123,116.36
0.37732,124.97
0.37439,132.01
0.37146,136.9
0.36755,139.83
0.36364,141.2
0.35973,141.2
0.35582,140.03
0.35191,138.07
0.348,135.53
0.34409,132.79
0.34115,129.66
0.33724,126.34
0.33333,123.01
0.3304,119.49
0.32747,115.97
0.32649,112.06
0.32356,107.95
0.32063,103.65
0.31769,99.153
0.31476,94.85
0.31183,90.548
0.3089,87.027
0.30694,83.898
0.30596,81.356
0.3089,79.4
0.31672,78.031
0.32747,77.054
0.34213,76.467
0.36461,76.271
0.39394,76.271
0.42815,76.467
0.4653,76.662
0.5044,76.858
0.54154,77.054
0.57674,77.249
0.60899,77.249
0.63636,77.249
0.65885,77.249
0.67644,77.054
0.68817,76.858
0.69599,76.467
0.70088,76.076
0.70381,75.489
0.70381,74.902
0.70088,74.316
0.69501,73.729
0.68622,72.947
0.67546,72.36
0.66276,71.578
0.64712,70.991
0.6305,70.404
0.61486,69.818
0.59824,69.231
0.58065,68.644
0.56207,68.057
0.5435,67.471
0.52688,67.08
0.51026,66.493
0.49462,65.906
0.48192,65.319
0.46921,64.733
0.45943,64.342
0.45064,63.755
0.44282,63.168
0.43695,62.777
0.43206,62.19
0.42717,61.604
0.42229,61.213
0.41838,60.821
0.41447,60.43
0.41056,60.235
0.40665,60.43
0.40371,61.213
0.3998,63.168
0.39589,67.08
0.39198,73.533
0.38905,82.334
0.38612,92.503
0.38319,103.06
0.37928,112.84
0.37537,121.64
0.37146,128.88
0.36755,134.35
0.36364,137.68
0.35973,139.44
0.35679,139.64
0.35288,138.66
0.34897,136.9
0.34604,134.35
0.34311,131.62
0.34115,128.68
0.33822,125.55
0.33529,122.23
0.33236,118.71
0.32942,114.99
0.32649,111.28
0.32356,107.17
0.32063,102.67
0.31769,98.175
0.31476,93.872
0.31183,89.57
0.30987,85.854
0.3089,82.921
0.30792,80.378
0.3089,78.422
0.31378,77.054
0.32356,76.271
0.3392,75.685
0.36168,75.489
0.39101,75.685
0.42424,75.88
0.46237,76.076
0.50049,76.271
0.53372,76.662
0.56305,76.662
0.59335,76.858
0.62072,76.858
0.64516,76.858
0.66569,76.858
0.68133,76.662
0.69306,76.271
0.6999,75.88
0.70381,75.293
0.70479,74.707
0.70186,74.12
0.69697,73.338
0.68915,72.751
0.67937,72.164
0.66764,71.382
0.65396,70.795
0.63734,70.209
0.61975,69.622
0.60117,69.035
0.5826,68.449
0.56305,67.862
0.54448,67.275
0.52688,66.688
0.51026,66.102
0.49756,65.711
0.47898,65.124
0.4565,64.537
0.43988,64.146
0.42717,63.559
0.4174,62.973
0.4086,62.582
0.40176,61.995
0.39589,61.604
0.39003,61.017
0.38514,60.626
0.38123,60.235
0.37732,60.235
0.37341,60.43
0.37048,61.213
0.36657,62.973
0.36266,66.688
0.35875,72.751
0.35484,81.552
0.34995,91.721
0.34604,102.09
0.34115,112.06
0.33627,120.86
0.33236,128.29
0.32747,133.77
0.32356,137.48
0.32063,139.24
0.31769,139.83
0.31378,139.05
0.30987,137.29
0.30499,134.75
0.30108,132.2
0.29717,129.07
0.29326,125.95
0.28935,122.82
0.28543,119.3
0.28152,115.78
0.27859,111.86
0.27566,107.95
0.2737,103.65
0.27077,99.153
0.26784,94.655
0.26491,90.352
0.261,86.636
0.25806,83.507
0.25709,80.965
0.25806,78.814
0.26393,77.445
0.27566,76.467
0.29423,75.88
0.31574,75.685
0.34213,75.88
0.37732,75.88
0.41838,76.271
0.46139,76.467
0.50538,76.858
0.54839,76.858
0.58749,77.054
0.6217,77.054
0.65005,77.054
0.67449,76.858
0.69306,76.662
0.70674,76.271
0.71359,75.88
0.71652,75.293
0.7175,74.707
0.71554,74.12
0.71065,73.533
0.70283,72.947
0.6911,72.164
0.67742,71.578
0.6608,70.991
0.64223,70.404
0.6217,69.818
0.6002,69.231
0.58065,68.644
0.56207,68.057
0.54154,67.471
0.52102,66.884
0.50147,66.297
0.48387,65.711
0.46725,65.124
0.45357,64.733
0.44086,64.146
0.43011,63.559
0.42033,63.168
0.41251,62.582
0.40567,62.19
0.3998,61.604
0.39589,61.213
0.39101,60.821
0.38612,60.43
0.38221,60.43
0.37732,60.626
0.37341,61.408
0.36852,63.364
0.36461,67.275
0.3607,73.729
0.35582,82.725
0.35191,93.09
0.348,103.65
0.34506,113.62
0.34115,122.43
0.33724,129.66
0.33236,134.94
0.32845,138.27
0.32356,140.03
0.31965,140.22
0.31476,139.44
0.31085,137.68
0.30596,135.33
0.30205,132.59
0.29814,129.66
0.29521,126.73
0.29228,123.6
0.28935,120.27
0.28543,116.75
0.2825,113.04
0.27859,108.93
0.27566,104.63
0.27273,100.13
0.26882,95.632
0.26491,91.33
0.26197,87.614
0.25904,84.289
0.25806,81.747
0.26002,79.791
0.26491,78.227
0.27566,77.249
0.29228,76.662
0.31769,76.467
0.34995,76.467
0.38807,76.467
0.43109,76.662
0.47605,76.858
0.52004,77.054
0.56207,77.249
0.6002,77.445
0.62952,77.64
0.652,77.64
0.67351,77.445
0.6911,77.249
0.70577,77.054
0.71457,76.662
0.72043,76.271
0.72239,75.88
0.72043,75.293
0.71554,74.707
0.70772,73.924
0.69599,73.338
0.68426,72.751
0.6696,72.164
0.65298,71.578
0.63343,70.991
0.6129,70.404
0.59042,69.818
0.56891,69.231
0.54643,68.84
0.5259,68.253
0.50635,67.666
0.48778,67.08
0.47116,66.493
0.45748,65.906
0.44575,65.319
0.43597,64.928
0.42717,64.537
0.41935,63.95
0.41153,63.364
0.40567,62.973
0.3998,62.582
0.39394,62.19
0.39003,61.799
0.38514,61.604
0.38123,61.799
0.37732,62.582
0.37341,64.537
0.37048,68.449
0.36755,75.098
0.36364,83.898
0.35973,94.263
0.35582,105.02
0.35093,114.99
0.34702,123.99
0.34213,131.42
0.33822,136.9
0.33431,140.42
0.32942,142.18
0.32551,142.37
0.32258,141.59
0.31965,139.83
0.31672,137.68
0.31281,135.14
0.3089,132.2
0.30596,129.27
0.30205,126.14
0.29814,123.01
0.29521,119.69
0.2913,115.97
0.28837,112.26
0.28543,108.15
0.2825,103.85
0.28152,99.348
0.27859,95.046
0.27566,91.33
0.27273,87.81
0.27175,85.072
0.27273,82.921
0.27859,81.16
0.28935,79.987
0.30792,79.4
0.33333,79.009
0.36755,79.009
0.40078,79.009
0.435,79.205
0.47507,79.4
0.51906,79.596
0.56109,79.791
0.60117,79.987
0.63636,79.987
0.66667,79.987
0.6911,79.791
0.71065,79.596
0.72532,79.205
0.73509,78.618
0.74096,78.227
0.74194,77.64
0.73998,77.054
0.73607,76.271
0.72923,75.489
0.71945,74.902
0.70674,74.316
0.69208,73.533
0.67546,72.947
0.65689,72.36
0.63636,71.578
0.61486,70.991
0.59335,70.404
0.5738,69.622
0.55621,69.035
0.53763,68.449
0.52004,67.666
0.5044,67.275
0.48974,66.688
0.47605,66.102
0.4653,65.515
0.45455,65.124
0.44673,64.537
0.43891,64.146
0.43206,63.755
0.4262,63.168
0.42131,62.777
0.4174,62.582
0.41349,62.386
0.4086,62.582
0.40469,63.364
0.3998,65.711
0.39589,70.209
0.39003,77.445
0.38514,87.223
0.37928,97.979
0.37439,108.93
0.37048,118.9
0.36657,127.71
0.36266,134.75
0.35875,139.64
0.35386,142.57
0.34897,143.94
0.34409,143.94
0.34018,142.76
0.33529,140.81
0.3304,138.46
0.32551,135.92
0.32063,132.99
0.31672,130.05
0.31183,127.12
0.3089,123.79
0.30596,120.47
0.30303,116.75
0.29912,113.04
0.29521,108.74
0.2913,104.43
0.28739,99.935
0.28348,95.632
0.28055,91.525
0.27664,88.005
0.27468,85.072
0.27664,82.725
0.28152,81.16
0.2913,79.791
0.30792,79.205
0.33236,78.814
0.36559,78.618
0.40371,78.618
0.44673,78.814
0.49169,79.009
0.53568,79.205
0.57771,79.205
0.61584,79.4
0.64809,79.4
0.67546,79.205
0.69501,79.009
0.7087,78.814
0.71945,78.422
0.72727,77.836
0.73216,77.249
0.73314,76.662
0.73118,76.076
0.7263,75.293
0.71848,74.707
0.70772,73.924
0.69306,73.338
0.67742,72.751
0.6608,72.164
0.64321,71.382
0.62268,70.795
0.60117,70.209
0.57869,69.622
0.55621,69.035
0.5347,68.449
0.51417,67.862
0.49462,67.275
0.47801,66.688
0.46237,66.102
0.44868,65.711
0.43695,65.124
0.42717,64.537
0.41935,64.146
0.41251,63.559
0.40469,63.168
0.39883,62.582
0.39296,62.19
0.3871,61.799
0.38221,61.799
0.37732,61.995
0.37243,62.777
0.36755,64.733
0.36266,68.84
0.35875,75.685
0.35484,84.876
0.35093,95.437
0.34604,106.19
0.34115,116.36
0.33627,125.16
0.33138,132.4
0.32649,137.68
0.3216,140.81
0.31672,142.37
0.31183,142.57
0.30694,141.59
0.30205,139.83
0.29912,137.48
0.29619,134.75
0.29326,131.81
0.28935,128.68
0.28543,125.55
0.28152,122.23
0.27761,118.51
0.2737,114.8
0.26979,110.69
0.26686,106.39
0.26295,101.89
0.25904,97.393
0.25709,93.09
0.25513,89.179
0.2522,85.854
0.25024,83.312
0.25122,81.16
0.25513,79.791
0.26491,78.814
0.2825,78.227
0.30792,78.031
0.34018,78.031
0.37928,78.031
0.42326,78.227
0.46823,78.422
0.50733,78.618
0.54154,78.814
0.57771,78.814
0.61095,78.618
0.64125,78.618
0.66569,78.422
0.68426,78.227
0.69892,77.836
0.7087,77.445
0.71359,76.858
0.71554,76.271
0.71359,75.489
0.7087,74.902
0.70088,74.12
0.69013,73.533
0.67742,72.947
0.66178,72.164
0.64321,71.578
0.62366,70.991
0.60313,70.404
0.58065,69.818
0.55816,69.231
0.53666,68.644
0.51515,68.057
0.4956,67.471
0.47898,67.08
0.46432,66.493
0.45064,65.906
0.43793,65.319
0.42717,64.733
0.4174,64.342
0.4086,63.755
0.40078,63.364
0.39394,62.777
0.38807,62.386
0.38221,61.995
0.37732,61.604
0.37341,61.604
0.37048,61.799
0.36657,62.582
0.36266,64.537
0.35777,68.644
0.35386,75.098
0.34897,84.094
0.34506,94.263
0.34018,104.82
0.33529,114.8
0.3304,123.4
0.32551,130.44
0.3216,135.72
0.31867,138.85
0.31574,140.42
0.31183,140.81
0.30694,139.83
0.30303,138.07
0.29912,135.72
0.29423,133.18
0.29032,130.25
0.28641,127.31
0.2825,123.99
0.27859,120.67
0.27468,117.14
0.27175,113.23
0.26979,109.13
0.26686,104.63
0.26393,100.13
0.261,95.632
0.25709,91.33
0.25415,87.614
0.25122,84.485
0.24927,81.943
0.25024,80.183
0.25513,78.814
0.26686,78.031
0.28152,77.445
0.30108,77.445
0.32942,77.445
0.36559,77.64
0.40665,77.836
0.45064,78.031
0.4956,78.227
0.53861,78.227
0.57869,78.422
0.6129,78.422
