1.1681,81.13
1.2043,80.055
1.2678,79.372
1.3607,78.981
1.479,78.932
1.6158,78.981
1.7429,79.176
1.8602,79.421
1.9814,79.811
2.0909,80.104
2.1808,80.349
2.2483,80.495
2.2942,80.446
2.3206,80.251
2.3304,79.909
2.3284,79.567
2.3167,78.981
2.2972,78.297
2.2727,77.564
2.2463,76.783
2.218,75.904
2.1818,75.122
2.1378,74.243
2.088,73.413
2.0323,72.631
1.9717,71.801
1.9081,71.117
1.8436,70.482
1.7801,69.945
1.7185,69.407
1.6618,68.919
1.6168,68.479
1.5816,67.991
1.5464,67.6
1.5161,67.161
1.4927,66.819
1.4751,66.428
1.4614,65.988
1.4516,65.549
1.4428,65.256
1.435,65.598
1.4282,67.747
1.4223,72.924
1.4154,81.374
1.4106,91.729
1.4057,102.18
1.3959,111.36
1.3842,119.03
1.3705,125.63
1.3548,131.2
1.3392,135.69
1.3236,138.62
1.3089,139.94
1.2942,139.6
1.2805,138.03
1.2669,135.64
1.2571,132.56
1.2502,129.09
1.2414,125.58
1.2317,121.87
1.2209,118.06
1.2111,114.25
1.2023,110.29
1.1935,106.28
1.1838,102.23
1.174,98.225
1.1632,94.318
1.1515,90.508
1.1437,87.138
1.1408,84.305
1.1408,82.107
1.1505,80.349
1.1779,79.176
1.2297,78.346
1.3089,77.906
1.4145,77.76
1.5406,77.76
1.6794,78.004
1.8192,78.297
1.9511,78.688
2.0674,79.03
2.1544,79.421
2.218,79.665
2.2698,79.86
2.3069,79.811
2.3294,79.567
2.3392,79.176
2.3392,78.59
1.5191,103.35
1.5103,111.8
1.5044,118.89
1.4995,124.94
1.4917,129.97
1.4819,133.93
1.4712,136.42
1.4594,137.3
1.4467,136.67
1.433,134.91
1.4194,132.37
1.4057,129.29
1.392,125.92
1.3793,122.31
1.3666,118.54
1.3587,114.73
1.3529,110.83
1.3441,106.82
1.3343,102.82
1.3236,98.812
1.3138,94.806
1.304,90.948
1.2942,87.284
1.2854,84.11
1.2815,81.472
1.2874,79.421
1.3099,77.858
1.3451,76.881
1.3978,76.246
1.48,76.001
1.5894,76.05
1.7195,76.294
1.8592,76.685
1.999,77.125
2.129,77.564
2.2414,78.004
2.3333,78.346
2.4018,78.59
2.4487,78.688
2.477,78.59
2.4897,78.444
3.3089,80.153
3.3656,80.007
1.9501,133
1.9257,129.83
1.9003,126.41
1.8798,122.84
1.8622,119.23
1.8426,115.61
1.824,111.85
1.8065,108.09
1.7908,104.38
1.7752,100.62
1.7576,96.809
1.7351,93.048
1.7067,89.482
1.6745,86.356
1.6432,83.816
1.6246,81.814
1.6227,80.349
1.6471,79.225
1.7116,78.541
1.827,78.102
1.9922,77.906
2.2014,78.004
2.4418,78.248
2.697,78.59
2.9462,79.03
3.175,79.421
3.3724,79.811
3.5327,80.055
3.6413,80.153
3.7107,80.153
3.7615,79.86
3.7898,79.421
3.7957,78.932
3.781,78.346
3.7478,77.662
3.6989,76.929
3.6373,76.099
3.563,75.318
3.4761,74.487
3.3793,73.657
3.2864,72.924
3.1926,72.24
3.088,71.557
2.9795,70.873
2.87,70.287
2.7625,69.798
2.6598,69.31
2.565,68.87
2.5601,66.477
2.479,66.037
2.4164,65.598
2.3617,65.256
2.3167,64.865
2.2825,64.425
2.2581,64.035
2.2356,63.839
2.217,64.718
2.2033,68.04
2.1877,74.927
2.1701,84.793
2.1505,95.783
2.129,105.85
2.1085,114.2
2.088,121.04
2.0635,126.75
1.8847,131.24
1.6295,134.22
1.4907,135.54
1.4096,135.25
1.3578,133.74
1.3216,131.49
1.2923,128.8
1.2669,125.82
1.2434,122.75
1.2258,119.47
1.2111,116.1
1.1935,112.68
1.175,109.17
1.1564,105.55
1.1388,101.89
1.1212,98.03
1.1036,94.22
1.085,90.557
1.0674,87.187
1.0518,84.256
1.0401,82.009
1.0411,80.3
1.0577,79.03
1.0968,78.199
1.173,77.662
1.2923,77.418
1.4555,77.418
1.6559,77.613
1.8827,77.858
2.1183,78.199
2.346,78.541
2.5523,78.932
2.7253,79.127
2.8612,79.176
2.9492,79.127
3.001,78.932
3.0362,78.59
3.0528,78.199
3.0508,77.662
3.0342,77.027
3.0029,76.441
2.958,75.66
2.9003,74.927
2.8309,74.194
2.7498,73.413
2.6588,72.729
2.5582,72.045
2.4614,71.41
2.3675,70.726
2.2639,70.091
2.1564,69.407
2.0518,68.87
1.9541,68.284
1.8661,67.747
1.7898,67.161
1.7243,66.672
1.6716,66.184
1.6295,65.744
1.5982,65.305
1.5767,64.816
1.5621,64.572
1.5503,65.305
1.5406,68.382
1.5308,74.878
1.522,84.696
1.5122,95.637
1.5005,105.75
1.4858,114.2
1.4692,121.13
1.4497,126.99
1.4291,131.68
1.4115,134.86
1.3949,136.37
1.3744,136.32
1.3539,135.01
1.3314,132.86
1.3099,130.17
1.2884,127.14
1.2669,124.02
1.2454,120.79
1.2229,117.47
1.1994,114.1
1.1769,110.68
1.1544,107.12
1.1359,103.5
1.1183,99.74
1.0968,95.979
1.0733,92.364
1.0469,88.994
1.0205,86.112
0.99804,83.816
0.98729,82.009
0.99707,80.593
1.0391,79.665
1.1222,79.03
1.2512,78.688
1.393,78.59
1.5533,78.737
1.7576,78.981
1.9814,79.323
2.2033,79.762
2.4066,80.104
2.5797,80.446
2.7175,80.495
2.8182,80.446
2.8847,80.153
2.9218,79.811
2.9345,79.225
2.9277,78.541
2.9052,77.809
2.871,76.978
2.827,76.197
2.7713,75.366
2.7058,74.536
2.6305,73.755
2.5455,72.924
2.4516,72.094
2.3509,71.361
2.217,70.677
2.0948,70.042
2.0068,69.407
1.9228,68.919
1.8436,68.479
1.7625,68.04
1.6862,67.698
1.6178,67.307
1.5601,66.965
1.5142,66.623
1.477,66.233
1.4477,65.793
1.4272,65.402
1.4115,65.5
1.3988,66.721
1.3861,70.629
1.3754,77.809
1.3646,87.626
1.35,98.177
1.3304,107.75
1.3069,115.76
1.2815,122.5
1.2532,128.12
1.2219,132.61
1.1887,135.54
1.1544,136.91
1.1202,136.76
1.087,135.49
1.0596,133.34
1.0371,130.8
1.0137,127.87
0.98925,124.75
0.96579,121.43
0.94428,118.01
0.92375,114.49
0.9042,110.92
0.88563,107.16
0.86804,103.35
0.84946,99.495
0.83089,95.637
0.81036,91.876
0.79374,88.359
0.78006,85.428
0.7654,82.986
0.75758,81.032
0.76833,79.665
0.80938,78.737
0.89052,78.248
1.0156,78.053
1.1838,78.102
1.3861,78.346
1.61,78.59
1.8387,78.981
2.0303,79.323
2.1896,79.616
2.3421,79.811
2.4712,79.86
2.5689,79.762
2.6354,79.469
2.6725,78.981
2.6852,78.346
2.6764,77.613
2.65,76.783
2.609,76.001
2.5562,75.171
2.4936,74.341
2.4291,73.559
2.3597,72.778
2.2786,72.094
2.1877,71.41
2.0899,70.873
1.9883,70.287
1.8847,69.798
1.782,69.359
1.6823,68.919
1.5885,68.479
1.5024,67.991
1.4262,67.503
1.3666,67.063
1.3196,66.623
1.2766,66.135
1.2414,65.549
1.2141,65.06
1.1926,64.718
1.1769,65.305
1.1652,67.991
1.1574,73.852
1.1496,82.742
1.1417,93.243
1.1329,103.31
1.1222,112.05
1.1134,119.37
1.1036,125.48
1.088,130.56
1.0665,134.22
1.0411,136.37
1.0117,136.86
0.98045,135.98
0.94819,134.08
0.91593,131.49
0.88563,128.41
0.85728,125.19
0.83187,121.72
0.81525,118.11
0.8045,114.44
0.79277,110.63
0.78104,106.82
0.77028,102.91
0.75953,99.007
0.74878,95.099
0.73412,91.29
0.71554,87.724
0.69501,84.5
0.67546,81.863
0.66276,79.762
0.66667,78.102
0.68915,76.978
0.73803,76.246
0.82502,75.855
0.95308,75.806
1.1202,75.904
1.3167,76.099
1.5288,76.441
1.739,76.734
1.9345,76.978
2.1026,77.223
2.2385,77.369
2.3412,77.369
2.4086,77.174
2.4457,76.881
2.4633,76.441
2.4653,75.855
2.4526,75.22
2.4262,74.634
2.3881,73.999
2.3392,73.315
2.2805,72.533
2.2121,71.85
2.1632,71.215
2.1261,70.629
2.0684,69.994
2.0088,69.505
1.9482,68.919
1.8798,68.382
1.8094,67.796
1.741,67.356
1.6774,66.868
1.6197,66.428
1.5709,65.94
1.5298,65.549
1.4966,65.256
1.4712,64.865
1.4516,64.425
1.4399,64.279
1.4321,65.109
1.4262,68.431
1.4213,75.171
1.4154,84.989
1.4086,95.979
1.4018,106.19
1.393,114.69
1.3822,121.82
1.3705,127.68
1.3578,132.37
1.3431,135.64
1.3304,137.2
1.3177,137.11
1.3011,135.74
1.2815,133.49
1.26,130.76
1.2385,127.68
1.219,124.41
1.1994,121.13
1.1818,117.67
1.1662,114.1
1.1535,110.49
1.1437,106.82
1.1369,103.06
1.1339,99.251
1.132,95.344
1.1261,91.485
1.1173,87.919
1.1046,84.793
1.0929,82.351
1.087,80.544
1.0938,79.372
1.1202,78.492
1.174,78.004
1.259,77.809
1.3744,77.906
1.4927,78.102
1.6158,78.444
1.7605,78.883
1.9101,79.372
2.0499,79.811
2.172,80.104
2.2708,80.251
2.3441,80.251
2.3959,80.104
2.4272,79.811
2.4409,79.372
2.4399,78.786
2.4252,78.102
2.4037,77.369
2.3744,76.636
2.3353,75.806
2.2874,75.073
2.2326,74.292
2.1711,73.608
2.1046,72.924
2.0332,72.24
1.9599,71.654
1.8856,71.068
1.8143,70.482
1.7468,69.847
1.6921,69.31
1.6461,68.675
1.6012,68.04
1.5611,67.503
1.5279,66.868
1.5015,66.281
1.4819,65.744
1.4673,65.353
1.4565,65.744
1.4477,68.235
1.4409,74.243
1.434,83.719
1.4272,94.806
1.4223,105.11
1.4184,113.76
1.4115,120.89
1.4027,127.04
1.393,132.12
1.3812,135.74
1.3685,137.74
1.3548,138.13
1.3402,137.2
1.3255,135.3
1.3109,132.81
1.2962,129.93
1.2854,126.8
1.2757,123.58
1.263,120.16
1.2493,116.69
1.2346,113.12
1.219,109.41
1.2033,105.6
1.1877,101.74
1.1711,97.786
1.1544,93.927
1.1369,90.215
1.1183,86.991
1.1017,84.354
1.0938,82.351
1.0968,80.935
1.1144,79.909
1.1818,79.225
1.2639,78.883
1.3402,78.883
1.4526,79.03
1.5865,79.372
1.7312,79.762
1.8719,80.104
1.999,80.544
2.1056,80.886
2.1818,80.984
2.2346,80.984
2.2757,80.788
2.3021,80.495
2.3148,80.007
2.3099,79.372
2.2981,78.59
2.2835,77.858
2.2581,77.125
2.2229,76.343
2.1799,75.66
2.13,74.878
2.0743,74.097
2.0215,73.364
1.9687,72.729
1.9081,72.094
1.8426,71.557
1.7771,70.97
1.7136,70.433
1.654,69.945
1.6002,69.505
1.5523,69.114
1.5112,68.675
1.477,68.235
1.4487,67.747
1.4291,67.307
1.4145,66.868
1.4008,66.819
1.3881,67.942
1.3773,71.508
1.3685,78.492
1.3617,88.164
1.3558,98.763
1.35,108.43
1.3431,116.64
1.3353,123.48
1.3284,129.49
1.3206,134.42
1.3148,137.94
1.3099,139.74
1.3011,139.99
1.2903,138.91
1.2776,137.01
1.263,134.37
1.2473,131.29
1.2307,127.97
1.2131,124.5
1.1955,120.89
1.1769,117.18
1.1603,113.37
1.1496,109.51
1.1378,105.5
1.1251,101.5
1.1105,97.493
1.0958,93.683
1.085,90.166
1.0714,87.187
1.0596,84.793
1.0538,82.937
1.0606,81.472
1.087,80.446
1.1388,79.86
1.219,79.616
1.3079,79.616
1.4076,79.762
1.5308,80.007
1.6637,80.251
1.7928,80.495
1.9091,80.739
2.0078,80.886
2.085,80.935
2.1408,80.886
2.1769,80.69
2.1984,80.251
2.2072,79.665
2.2063,79.03
2.1975,78.297
2.1818,77.564
2.1593,76.734
2.13,75.904
2.0938,75.073
2.0499,74.243
2,73.413
1.9277,72.729
1.8602,72.094
1.8104,71.508
1.738,70.873
1.6716,70.287
1.6325,69.749
1.5943,69.261
1.5435,68.724
1.4936,68.284
1.4585,67.844
1.437,67.405
1.4213,67.063
1.4086,66.623
1.3998,66.281
1.3891,66.477
1.3773,68.235
1.3695,72.68
1.3666,80.446
1.3587,90.557
1.346,101.11
1.3363,110.49
1.3255,118.35
1.3099,125.04
1.2962,130.76
1.2864,135.3
1.2757,138.42
1.261,139.94
1.2483,139.89
1.2366,138.47
1.2287,136.32
1.2219,133.64
1.2121,130.56
1.2014,127.19
1.1887,123.58
1.176,119.86
1.1632,116.1
1.1515,112.29
1.1408,108.43
1.131,104.43
1.1202,100.37
1.1105,96.369
1.1046,92.56
1.1007,89.043
1.0978,86.063
1.1017,83.621
1.1202,81.667
1.1672,80.251
1.2532,79.323
1.3783,78.932
1.5367,78.786
1.7185,78.786
1.911,78.786
2.1017,78.981
2.2581,79.176
2.3842,79.469
2.5015,79.762
2.5982,80.007
2.6696,80.055
2.7185,79.909
2.7498,79.665
2.7654,79.176
2.7674,78.541
2.7586,77.809
2.738,76.978
2.7067,76.05
2.6637,75.122
2.6168,74.194
2.563,73.217
2.4956,72.387
2.4164,71.508
2.3275,70.677
2.2326,69.994
2.1349,69.407
2.0411,68.87
1.9531,68.382
1.8749,67.844
1.8084,67.405
1.7527,67.063
1.7146,66.623
1.6882,66.233
1.6667,65.793
1.652,65.305
1.6413,64.865
1.6334,64.425
1.6276,64.377
1.6207,65.549
1.6129,69.407
1.6051,76.734
1.5973,86.943
1.5894,97.932
1.5797,107.95
1.5718,116.35
1.564,123.43
1.5533,129.39
1.5415,134.13
1.5288,137.3
1.5152,138.86
1.5005,138.81
1.4858,137.45
1.4702,135.2
1.4536,132.42
1.436,129.39
1.4184,126.12
1.4057,122.7
1.3949,119.23
1.3812,115.66
1.3685,112
1.3558,108.29
1.3421,104.58
1.3275,100.67
1.3118,96.614
1.2952,92.608
1.2786,89.043
1.2659,86.161
1.2659,83.865
1.2854,82.009
1.3226,80.495
1.3861,79.567
1.4907,78.883
1.6354,78.541
1.8113,78.541
2.0078,78.786
2.2111,79.03
2.4047,79.421
2.5767,79.811
2.7195,80.055
2.8309,80.104
2.911,80.007
2.958,80.055
2.9814,80.153
2.9932,80.104
2.9941,79.567
2.9853,78.786
2.9648,78.053
2.9335,77.32
2.8925,76.539
2.8407,75.806
2.7791,75.171
2.7087,74.634
2.6295,74.048
2.5435,73.364
2.4633,72.68
2.3861,72.094
2.3021,71.654
2.217,71.215
2.1369,70.629
2.0655,69.994
2.0059,69.359
1.957,68.821
1.9198,68.382
1.8935,67.991
1.8749,67.503
1.8631,66.916
1.8573,66.819
1.8524,67.942
1.8475,71.85
1.8426,79.469
1.8368,89.922
1.8299,101.06
1.8201,111.07
1.8074,119.23
1.7918,125.97
1.7742,131.63
1.7546,135.98
1.7331,138.91
1.7107,140.13
1.6931,139.79
1.6764,138.23
1.6569,135.93
1.6373,133.2
1.6188,130.12
1.6002,126.95
1.5826,123.58
1.564,120.06
1.5464,116.49
1.5308,112.78
1.5161,109.07
1.5015,105.16
1.4907,101.3
1.4809,97.249
1.4682,93.243
1.4536,89.531
1.4409,86.503
1.436,84.061
1.4457,82.302
1.4819,80.984
1.5533,80.055
1.6647,79.469
1.8162,79.225
2.001,79.323
2.2082,79.567
2.3959,79.811
2.566,80.153
2.7468,80.544
2.915,80.984
3.0587,81.277
3.176,81.423
3.2639,81.374
3.3265,81.179
3.3646,80.788
3.3822,80.3
3.3812,79.665
3.3656,78.981
3.3382,78.297
3.3001,77.564
3.2512,76.783
3.1926,76.05
3.1232,75.318
3.044,74.487
2.956,73.803
2.8602,73.168
2.7615,72.631
2.6618,72.045
2.565,71.41
2.4731,70.922
2.39,70.482
2.3226,70.042
2.2669,69.603
2.2141,69.163
2.1691,68.724
2.132,68.382
2.1007,67.991
2.0753,67.698
2.0538,68.089
2.0362,70.384
2.0205,75.806
2.0049,84.549
1.9892,95.099
1.9746,105.5
1.9589,114.49
1.9394,122.06
1.9179,128.31
1.8935,133.44
1.8671,137.3
1.8387,139.5
1.8094,139.94
1.7781,139.11
1.7468,137.35
1.7165,134.91
1.6882,131.88
1.6608,128.56
1.6393,125.29
1.6237,122.16
1.608,118.98
1.5934,115.57
1.5797,111.85
1.566,108.04
1.5513,104.23
1.5357,100.42
1.5191,96.614
1.4995,92.95
1.48,89.727
1.4653,87.04
1.4624,84.989
1.478,83.426
1.523,82.302
1.608,81.57
1.739,81.13
1.915,80.984
2.1281,80.984
2.3646,81.179
2.607,81.374
2.8397,81.57
3.0499,81.667
3.2268,81.716
3.3695,81.667
3.4643,81.57
3.523,81.179
3.566,80.69
3.5885,80.104
3.5924,79.372
3.5777,78.59
3.5474,77.858
3.5024,77.125
3.4428,76.343
3.3724,75.66
3.2913,74.976
3.2023,74.341
3.1153,73.755
3.0274,73.12
2.9286,72.533
2.826,72.045
2.7224,71.557
2.6217,71.068
2.5259,70.531
2.4379,70.091
2.3568,69.652
2.2854,69.31
2.2239,68.919
2.1711,68.479
2.131,68.04
2.0987,67.698
2.0704,67.551
2.045,68.284
2.0235,71.117
2.0039,77.174
1.9844,86.405
1.9638,97.2
1.9423,107.51
1.9179,116.25
1.8905,123.43
1.7889,129.44
1.651,134.22
1.5699,137.59
1.5191,139.45
1.478,139.55
1.4438,138.38
1.4135,136.37
1.3861,133.93
1.3617,131.2
1.3402,128.26
1.3196,125.04
1.3001,121.72
1.2805,118.3
1.262,114.73
1.2493,111.12
1.2385,107.51
1.2248,103.74
1.2092,99.935
1.1916,96.125
1.174,92.413
1.1564,89.043
1.1447,86.308
1.1466,84.11
1.172,82.547
1.2287,81.423
1.3245,80.739
1.4594,80.446
1.6031,80.349
1.7586,80.446
1.9501,80.593
2.1544,80.788
2.3519,80.935
2.5298,81.032
2.6794,81.13
2.7957,81.032
2.8798,80.788
2.9345,80.495
2.9638,80.007
2.9736,79.421
2.9658,78.786
2.9433,78.102
2.9101,77.32
2.8671,76.539
2.8143,75.757
2.7517,74.976
2.6804,74.292
2.6012,73.608
2.5142,72.973
2.4223,72.387
2.3275,71.801
2.2317,71.312
2.1378,70.824
2.0577,70.287
1.9873,69.847
1.9189,69.359
1.8573,68.919
1.8045,68.528
1.7615,68.089
1.7283,67.698
1.7038,67.161
1.6852,66.623
1.6706,66.379
1.6598,67.112
1.6491,69.994
1.6403,76.099
1.6315,85.282
1.6207,95.783
1.607,105.75
1.5904,114.2
1.5709,121.04
1.5484,126.8
1.523,131.44
1.4956,134.76
1.4663,136.47
1.437,136.81
1.4086,135.88
1.3812,134.08
1.3597,131.73
1.3421,129
1.3226,126.12
1.3021,123.04
1.2815,119.86
1.261,116.49
1.2414,113.07
1.2209,109.41
1.2014,105.7
1.1808,101.79
1.1603,97.786
1.1398,93.781
1.1241,89.971
1.1124,86.601
1.1036,83.865
1.1056,81.716
1.129,80.104
1.1848,79.03
1.2796,78.346
1.4164,78.102
1.5914,78.102
1.7947,78.297
2.0127,78.59
2.2307,78.932
2.433,79.225
2.5894,79.469
2.7097,79.665
2.8162,79.762
2.8993,79.665
2.958,79.469
2.9932,79.176
3.0068,78.737
3.0029,78.102
2.9844,77.467
2.9521,76.734
2.9091,76.001
2.8563,75.22
2.7986,74.487
2.7351,73.755
2.6588,73.071
2.5728,72.387
2.479,71.752
2.3793,71.117
2.2766,70.531
2.173,70.042
2.0723,69.554
1.9775,69.066
1.8925,68.479
1.8182,68.04
1.7556,67.551
1.7087,67.161
1.6735,66.819
1.6442,66.428
1.6217,65.94
1.6041,65.695
1.5904,66.428
1.5797,69.407
1.5699,75.904
1.5611,85.673
1.5513,96.858
1.5406,107.36
1.5269,116.1
1.5132,123.18
1.4995,128.85
1.4819,133.3
1.4614,136.23
1.4389,137.54
1.4154,137.35
1.392,136.08
1.3685,134.13
1.346,131.68
1.3245,129
1.305,126.07
1.2864,122.94
1.2678,119.67
1.2532,116.35
1.2414,112.88
1.2278,109.31
1.2121,105.6
1.1955,101.79
1.1789,97.932
1.1603,94.123
1.1408,90.557
1.1232,87.48
1.1124,85.038
1.1153,83.23
1.1427,81.912
1.1887,80.984
1.261,80.349
1.3783,79.909
1.5357,79.86
1.7234,79.909
1.9286,80.153
2.1349,80.446
2.3265,80.69
2.4927,80.984
2.6276,81.179
2.7283,81.277
2.7977,81.277
2.8397,81.179
2.8553,80.886
2.8543,80.349
2.8436,79.811
2.8221,79.176
2.7898,78.492
2.7488,77.76
2.697,76.978
2.6344,76.099
2.5611,75.22
2.478,74.341
2.3851,73.51
2.2874,72.729
2.1975,72.045
2.1114,71.41
2.0196,70.824
1.9277,70.238
1.8436,69.652
1.7683,69.163
1.7038,68.724
1.65,68.382
1.6061,68.04
1.5709,67.698
1.5435,67.307
1.522,66.965
1.5073,66.965
1.4966,68.382
1.4848,72.485
1.4721,80.251
1.4575,90.655
1.4399,101.69
1.4194,111.51
1.3959,119.57
1.3705,126.31
1.3441,131.88
1.3177,136.13
1.2923,138.81
1.2678,139.79
1.2483,139.35
1.2317,137.89
1.2121,135.69
1.1916,133.05
1.1711,130.17
1.1496,127.19
1.1271,123.92
1.1036,120.6
1.0802,117.18
1.0547,113.61
1.0303,110
1.0049,106.24
0.98631,102.43
0.9697,98.567
0.94819,94.806
0.92669,91.29
0.90811,88.261
0.89834,85.868
0.90518,84.061
0.93646,82.742
1.002,81.863
1.1065,81.228
1.2502,80.984
1.4252,80.935
1.6197,81.032
1.7957,81.228
1.9541,81.57
2.1173,81.814
2.2659,82.009
2.3891,82.156
2.4829,82.156
2.5494,82.058
2.5914,81.814
2.6129,81.374
2.6168,80.788
2.6061,80.104
2.5816,79.372
2.5494,78.492
2.5083,77.662
2.4565,76.783
2.393,76.001
2.3196,75.171
2.2454,74.292
2.1691,73.559
2.0841,72.778
1.9932,72.192
1.9022,71.557
1.8152,70.97
1.7331,70.482
1.6598,69.994
1.6031,69.554
1.5582,69.114
1.5171,68.724
1.4829,68.382
1.4565,67.991
1.436,67.551
1.4194,67.161
1.4066,66.819
1.3949,67.063
1.3842,68.87
1.3724,73.51
1.3587,81.57
1.348,91.973
1.3372,102.72
1.3236,112.24
1.3069,120.11
1.2884,126.7
1.2688,132.17
1.2473,136.47
1.2248,139.3
1.2033,140.48
1.1818,140.18
1.1603,138.77
1.1388,136.57
1.1183,133.93
1.1026,130.85
1.0899,127.68
1.0743,124.31
1.0577,120.74
1.0411,117.13
1.0264,113.37
1.0137,109.51
1.002,105.55
0.99022,101.55
0.97849,97.542
0.96579,93.732
0.95308,90.166
0.94624,87.187
0.94819,84.745
0.9609,82.84
0.99413,81.57
1.0557,80.69
1.1515,80.153
1.2815,80.007
1.4399,80.055
1.6168,80.251
1.7996,80.495
1.9756,80.739
2.1329,81.032
2.2639,81.277
2.3578,81.472
2.4213,81.57
2.4712,81.423
2.5034,81.179
2.52,80.69
2.522,80.055
2.5122,79.372
2.4917,78.541
2.4614,77.613
2.4223,76.685
2.3744,75.806
2.3177,74.927
2.261,74.194
2.2023,73.413
2.132,72.68
2.0547,71.947
1.9736,71.361
1.8905,70.824
1.8084,70.238
1.7312,69.798
1.6618,69.31
1.6002,68.919
1.5464,68.479
1.5034,68.04
1.4702,67.6
1.4487,67.112
1.435,66.623
1.4242,66.184
1.4154,65.988
1.4076,66.965
1.3988,70.384
1.39,77.027
1.3793,86.698
1.3675,97.493
1.3539,107.6
1.3382,116.1
1.3216,123.18
1.3079,129.05
1.2942,133.88
1.2766,137.35
1.2561,139.3
1.2346,139.55
1.2131,138.57
1.1916,136.62
1.1701,133.98
1.1486,131
1.1271,127.68
1.1065,124.26
1.088,120.6
1.0704,116.88
1.0587,112.93
1.0508,108.97
1.042,104.92
1.0323,100.81
1.0225,96.662
1.0117,92.608
1,88.847
0.99022,85.624
0.98631,82.937
0.99511,80.935
1.0235,79.372
1.0792,78.346
1.1496,77.76
1.2414,77.564
1.3695,77.564
1.523,77.809
1.6891,78.053
1.8563,78.444
2.0127,78.786
2.1486,79.176
2.2581,79.421
2.3402,79.567
2.3978,79.567
2.434,79.372
2.4526,79.03
2.4565,78.59
2.4487,78.053
2.433,77.418
2.4076,76.685
2.3734,75.904
2.3304,75.122
2.2796,74.243
2.2199,73.413
2.1535,72.68
2.0811,71.996
2.0029,71.41
1.9218,70.824
1.8495,70.238
1.784,69.652
1.7136,69.163
1.6452,68.675
1.5846,68.186
1.5318,67.698
1.4888,67.258
1.4565,66.868
1.4321,66.428
1.4135,66.037
1.4008,65.549
1.393,65.256
1.3871,65.842
1.3842,68.87
1.3822,75.415
1.3793,85.233
1.3744,96.418
1.3675,106.97
1.3607,115.81
1.3529,123.14
1.3441,129.05
1.3343,133.74
1.3236,137.11
1.3118,138.81
1.2972,138.86
1.2835,137.54
1.2708,135.44
1.2542,132.66
1.2346,129.68
1.2141,126.36
1.1935,122.99
1.173,119.57
1.1525,116.05
1.1329,112.49
1.1134,108.82
1.0958,104.92
1.0782,100.91
1.0665,97.004
1.0567,93.243
1.044,89.873
1.0313,86.845
1.0235,84.403
1.0264,82.595
1.0459,81.277
1.0919,80.3
1.1711,79.616
1.2835,79.225
1.4252,79.127
1.5885,79.176
1.7625,79.225
1.913,79.421
2.044,79.665
2.173,79.909
2.2864,80.104
2.3773,80.104
2.4438,79.909
2.4858,79.665
2.5073,79.372
2.5122,78.932
2.5034,78.346
2.4819,77.809
2.4497,77.174
2.4125,76.49
2.3705,75.757
2.3187,74.976
2.2581,74.243
2.1896,73.51
2.1144,72.778
2.0342,72.192
1.9501,71.605
1.8641,71.117
1.781,70.531
1.7019,70.042
1.6285,69.554
1.563,69.114
1.5122,68.675
1.4721,68.284
1.436,67.991
1.4047,67.698
1.3803,67.307
1.3617,66.868
1.348,66.916
1.3372,68.626
1.3304,73.217
1.3255,81.277
1.3216,91.876
1.3167,102.62
1.3138,112
1.3118,119.67
1.3079,125.92
1.3011,131.1
1.2933,135.05
1.2845,137.5
1.2757,138.42
1.2669,137.89
1.2581,136.23
1.2493,133.93
1.2405,131.2
1.2317,128.12
1.2229,124.85
1.217,121.43
1.2141,117.91
1.2092,114.3
1.2033,110.63
1.1965,106.82
1.1896,102.91
1.1808,99.056
1.1711,95.197
1.1593,91.534
1.1466,88.261
1.1369,85.477
1.1642,83.426
1.2199,81.863
1.2727,80.788
1.346,80.104
1.4516,79.665
1.5914,79.469
1.7615,79.469
1.9521,79.665
2.1476,79.909
2.3353,80.251
2.5034,80.544
2.6422,80.935
2.7488,81.179
2.8231,81.374
2.8651,81.374
2.8827,81.228
2.8866,80.886
2.8768,80.349
2.8543,79.762
2.8221,78.981
2.782,78.199
2.7351,77.32
2.6833,76.343
2.6246,75.415
2.5601,74.536
2.4888,73.657
2.4203,72.924
2.3519,72.24
2.2737,71.557
2.1896,70.922
2.1046,70.384
2.0235,69.847
1.9482,69.359
1.8807,68.919
1.8221,68.382
1.7722,67.844
1.7312,67.356
1.6999,66.916
1.6755,66.428
1.6588,65.94
1.6471,65.549
1.6354,65.793
1.6227,67.844
1.608,72.924
1.5924,81.374
1.5748,91.973
1.5552,102.62
1.5327,111.85
1.5103,119.47
1.4878,125.87
1.4643,131.29
1.4448,135.49
1.4272,138.18
1.4037,139.25
1.3773,138.86
1.35,137.3
1.3236,135.01
1.2972,132.17
1.2737,129
1.2522,125.68
1.2317,122.11
1.2121,118.5
1.1945,114.73
1.1789,110.92
1.1701,107.07
1.1662,103.06
1.1593,99.056
1.1505,95.099
1.1398,91.387
1.1281,88.066
1.1202,85.184
1.1202,82.937
1.1369,81.179
1.1808,79.909
1.262,79.225
1.3842,78.932
1.5191,78.883
1.6706,78.981
1.8592,79.323
2.0655,79.665
2.2698,80.055
2.4565,80.349
2.6158,80.544
2.7439,80.69
2.8397,80.69
2.9052,80.446
2.9443,80.055
2.9599,79.469
2.956,78.786
2.9374,78.053
2.9071,77.174
2.8651,76.294
2.8133,75.366
2.7517,74.438
2.6804,73.51
2.6012,72.68
2.5161,71.85
2.4262,71.166
2.3324,70.531
2.2366,69.945
2.1417,69.359
2.0606,68.87
1.9883,68.479
1.915,68.089
1.8456,67.747
1.7849,67.356
1.7341,66.916
1.694,66.526
1.6628,66.135
1.6393,65.695
1.6217,65.305
1.608,64.914
1.5973,65.109
1.5885,66.868
1.5826,71.41
1.5787,79.323
1.5728,89.482
1.566,99.984
1.5572,109.36
1.5464,117.18
1.5337,123.67
1.5191,129.24
1.5015,133.64
1.4829,136.62
1.4624,137.98
1.4409,137.74
1.4233,136.32
1.4076,133.98
1.3881,131.05
1.3666,127.87
1.346,124.41
1.3265,120.89
1.3089,117.18
1.2933,113.42
1.2805,109.66
1.2708,105.8
1.2639,101.89
1.2571,97.932
1.2542,93.976
1.2522,90.215
1.2473,86.698
1.2434,83.621
1.2444,81.032
1.26,78.981
1.2991,77.564
1.3695,76.539
1.477,75.904
1.6246,75.66
1.8065,75.611
2.0127,75.757
2.2307,76.001
2.4194,76.294
2.5826,76.636
2.7458,76.978
2.8905,77.174
3.0078,77.32
3.0968,77.223
3.1584,77.027
3.1935,76.734
3.2072,76.246
3.2023,75.66
3.1808,75.073
3.1447,74.438
3.1007,73.755
3.0489,73.071
2.9863,72.289
2.913,71.605
2.8309,70.922
2.7419,70.287
2.6491,69.652
2.5523,69.114
2.4545,68.528
2.3597,67.991
2.2698,67.503
2.1857,66.916
2.1105,66.428
2.0508,65.988
2.0029,65.549
1.958,65.109
1.9189,64.67
1.8886,64.23
1.8671,63.839
1.8543,63.448
1.8485,63.253
1.8475,63.839
1.8495,66.623
1.8514,72.778
1.8524,82.156
1.8534,93.195
1.8514,103.6
1.8456,112.44
1.8338,119.62
1.8182,125.58
1.7977,130.22
1.7722,133.69
1.7429,135.54
1.7116,135.88
1.6794,134.86
1.6481,132.81
1.6178,130.22
1.5914,127.24
1.5718,124.06
1.5582,120.69
1.5445,117.18
1.5327,113.66
1.522,110.05
1.5112,106.28
1.4995,102.47
1.4878,98.616
1.4741,94.66
1.4585,90.801
1.4389,87.236
1.4184,84.256
1.4057,81.716
1.4018,79.909
1.4125,78.59
1.4516,77.76
1.5288,77.223
1.652,77.027
1.8201,77.125
2.0293,77.32
2.2669,77.662
2.5142,78.053
2.7556,78.492
2.9775,78.786
3.1681,79.127
3.305,79.225
3.3988,79.225
3.4761,79.176
3.5288,78.932
3.5582,78.541
3.567,78.053
3.5562,77.467
3.5288,76.881
3.4868,76.197
3.4321,75.415
3.3646,74.634
3.2864,73.803
3.2063,73.071
3.1222,72.24
3.0254,71.557
2.9208,70.873
2.8123,70.238
2.7048,69.652
2.6012,69.163
2.5054,68.675
2.4194,68.186
2.346,67.747
2.2845,67.307
2.2346,66.916
2.1945,66.526
2.1662,66.037
2.1457,65.549
2.131,65.305
2.1202,65.988
2.1114,68.968
2.0283,75.464
1.9071,85.038
1.8416,95.881
1.8016,105.85
1.7732,114.2
1.7498,120.99
1.7283,126.56
1.7097,130.95
1.6931,133.93
1.6745,135.44
1.6549,135.49
1.6344,134.32
1.6149,132.32
1.5953,129.73
1.5758,126.8
1.5552,123.67
1.5347,120.45
1.5132,117.03
1.4917,113.61
1.4702,110.09
1.4516,106.48
1.436,102.72
1.4184,99.007
1.3988,95.197
1.3783,91.436
1.3578,87.968
1.3382,85.038
1.3236,82.693
1.3196,80.935
1.3343,79.616
1.3763,78.737
1.4536,78.199
1.5455,77.906
1.6579,77.858
1.8123,78.004
1.9932,78.248
2.1838,78.59
2.3695,78.981
2.5367,79.372
2.6784,79.665
2.7889,79.811
2.869,79.811
2.9198,79.567
2.9462,79.176
2.9521,78.59
2.9404,78.004
2.9169,77.369
2.8837,76.636
2.8397,75.904
2.7869,75.122
2.7253,74.341
2.6549,73.657
2.5767,72.924
2.4917,72.24
2.4008,71.605
2.3069,71.068
2.2121,70.433
2.129,69.798
2.0538,69.31
1.9765,68.821
1.9042,68.382
1.8397,67.942
1.784,67.551
1.738,67.161
1.7019,66.819
1.6745,66.428
1.653,65.988
1.6354,65.549
1.6197,65.695
1.6061,67.356
1.5953,71.801
1.5865,79.665
1.5758,89.824
1.564,100.23
1.5513,109.41
1.5376,116.98
1.521,123.18
1.5015,128.31
1.4809,132.37
1.4585,135.05
1.434,136.18
1.4086,135.93
1.3871,134.57
1.3685,132.51
1.348,129.93
1.3265,127.04
1.305,123.82
1.2835,120.45
1.262,116.93
1.2414,113.37
1.2219,109.66
1.2023,105.85
1.1838,101.89
1.1652,97.884
1.1457,93.927
1.13,90.313
1.1153,86.991
1.0958,84.256
1.0792,82.058
1.0733,80.446
1.089,79.176
1.1359,78.346
1.2209,77.906
1.3451,77.858
1.5044,78.053
1.6891,78.346
1.8866,78.688
2.0587,79.03
2.2072,79.323
2.3548,79.469
2.4839,79.567
2.5846,79.469
2.6569,79.323
2.7038,78.932
2.7283,78.444
2.7331,77.809
2.7224,77.027
2.6989,76.294
2.6647,75.464
2.6246,74.683
2.5777,73.852
2.521,73.071
2.4536,72.289
2.3773,71.605
2.2933,70.97
2.2043,70.384
2.1124,69.847
2.0196,69.31
1.9277,68.724
1.8407,68.235
1.7625,67.747
1.6931,67.307
1.6383,66.868
1.5963,66.428
1.5572,65.988
1.5249,65.549
1.4985,65.06
1.478,64.572
1.4624,64.377
1.4497,65.06
1.4389,67.844
1.4291,73.852
1.4194,82.791
1.4076,93.097
1.3978,103.06
1.3871,111.51
1.3724,118.45
1.3548,124.26
1.3343,129.09
1.3128,132.76
1.2893,134.86
1.2649,135.49
1.2414,134.76
1.218,133.05
1.1955,130.66
1.174,127.87
1.1535,124.8
1.1398,121.43
1.129,118.01
1.1153,114.49
1.1017,110.88
1.088,107.16
1.0762,103.45
1.0655,99.495
1.0538,95.539
1.0411,91.68
1.0274,88.066
1.0127,84.793
1.002,82.107
0.99902,80.007
1.0088,78.297
1.0381,76.978
1.0968,76.197
1.1916,75.611
1.3236,75.415
1.4878,75.415
1.6755,75.562
1.8729,75.806
2.0665,76.05
2.2434,76.343
2.3959,76.539
2.5181,76.734
2.6012,76.783
2.6549,76.685
2.6931,76.441
2.7136,76.001
2.7175,75.464
2.7067,74.878
2.6823,74.243
2.6452,73.51
2.5973,72.729
2.5386,72.045
2.4702,71.361
2.3939,70.726
2.3196,70.091
2.2454,69.554
2.1623,68.968
2.0753,68.431
1.9892,67.991
1.9052,67.503
1.827,66.965
1.7566,66.477
1.695,66.037
1.6413,65.598
1.5963,65.158
1.5601,64.718
1.5318,64.279
1.5112,63.839
1.4976,63.448
1.4868,63.497
1.477,65.06
1.4682,69.407
1.4604,77.418
1.4526,87.871
1.4438,98.812
1.434,108.43
1.4233,116.3
1.4106,122.7
1.3959,127.87
1.3832,131.78
1.3705,134.32
1.3529,135.3
1.3314,134.81
1.3079,133.25
1.2835,130.85
1.259,128.12
1.2366,124.99
1.216,121.67
1.1965,118.2
1.1789,114.69
1.1632,111.12
1.1496,107.51
1.1408,103.79
1.1349,100.03
1.1281,96.223
1.1202,92.413
1.1114,88.799
1.1007,85.575
1.0899,82.937
1.0831,80.886
1.088,79.323
1.1124,78.199
1.1672,77.369
1.2581,76.929
1.3646,76.783
1.4917,76.881
1.6608,77.027
1.8534,77.369
2.0538,77.662
2.2454,78.004
2.4164,78.346
2.5601,78.59
2.6735,78.737
2.7566,78.737
2.8113,78.541
2.8426,78.199
2.8592,77.76
2.8612,77.223
2.8456,76.685
2.8172,76.001
2.7761,75.318
2.7224,74.634
2.6579,73.852
2.5846,73.168
2.5034,72.436
2.4154,71.801
2.3236,71.166
2.2307,70.629
2.1388,70.042
2.0606,69.505
1.9922,68.968
1.9238,68.431
1.8612,67.942
1.8065,67.405
1.7605,66.916
1.7234,66.428
1.695,65.94
1.6745,65.402
1.6588,65.109
1.6461,65.695
1.6364,68.528
1.6276,74.78
1.6207,84.354
1.6149,95.295
1.607,105.41
1.5963,113.76
1.5846,120.55
1.5709,126.12
1.5562,130.56
1.5386,133.54
1.52,135.01
1.5005,134.91
1.479,133.74
1.4565,131.63
1.4389,129.05
1.4233,126.16
1.4047,123.14
1.3861,120.01
1.3675,116.74
1.35,113.51
1.3343,110.09
1.3206,106.63
1.3079,103.06
1.2952,99.349
1.2815,95.637
1.2669,91.925
1.2493,88.506
1.2346,85.428
1.2239,82.986
1.2151,81.179
1.219,79.811
1.2463,78.883
1.306,78.199
1.4037,77.809
1.5396,77.662
1.7077,77.76
1.8993,78.004
2.0978,78.248
2.2903,78.59
2.4448,78.932
2.566,79.176
2.6774,79.372
2.7664,79.372
2.8299,79.176
2.869,78.883
2.8856,78.346
2.8837,77.76
2.8661,77.027
2.8348,76.294
2.7928,75.562
2.739,74.78
2.6755,74.048
2.61,73.364
2.5415,72.68
2.4614,71.996
2.3734,71.361
2.2805,70.726
2.1877,70.189
2.0958,69.652
2.0088,69.114
1.9286,68.626
1.8573,68.186
1.7967,67.747
1.7458,67.356
1.7067,66.916
1.6774,66.477
1.651,66.037
1.6285,65.598
1.609,65.402
1.5934,66.233
1.5797,69.359
1.5679,75.757
1.5552,85.038
1.5425,95.539
1.5279,105.36
1.5122,113.61
1.4985,120.35
1.4858,125.92
1.4692,130.36
1.4497,133.54
1.4291,135.3
1.4076,135.54
1.3861,134.61
1.3636,132.81
1.3412,130.41
1.3196,127.53
1.2991,124.5
1.2796,121.18
1.262,117.81
1.2493,114.34
1.2395,110.83
1.2268,107.16
1.2131,103.45
1.1994,99.593
1.1857,95.734
1.172,91.973
1.1574,88.506
1.1427,85.428
1.131,82.937
1.1281,80.984
1.1427,79.567
1.175,78.541
1.2307,78.004
1.3265,77.809
1.4633,77.858
1.6354,78.004
1.8328,78.248
2.0401,78.444
2.2434,78.688
2.4291,78.883
2.5875,78.981
2.7155,78.981
2.8123,78.883
2.8788,78.541
2.915,78.053
2.9286,77.467
2.9296,76.783
2.9179,76.099
2.8925,75.366
2.8543,74.634
2.8045,73.852
2.7449,73.12
2.6755,72.436
2.5973,71.752
2.5103,71.117
2.4164,70.482
2.3294,69.945
2.2444,69.407
2.1515,68.919
2.0567,68.479
1.9658,68.04
1.8827,67.6
1.8094,67.161
1.7468,66.721
1.696,66.379
1.6569,65.94
1.6276,65.402
1.607,65.012
1.5924,65.06
1.5836,66.526
1.5787,70.726
1.5738,78.199
1.5679,88.115
1.5611,98.47
1.5523,107.8
1.5396,115.47
1.5239,121.72
1.5073,126.8
1.4878,130.76
1.4673,133.34
1.4457,134.52
1.4282,134.22
1.4125,132.95
1.3949,130.95
1.3754,128.41
1.3558,125.63
1.3353,122.55
1.3148,119.33
1.2952,115.91
1.2766,112.44
1.26,108.73
1.2434,105.01
1.2278,101.06
1.2131,97.102
1.2033,93.097
1.1945,89.385
1.1818,85.917
1.1672,82.937
1.1544,80.544
1.1505,78.786
1.1672,77.467
1.2151,76.539
1.3011,76.05
1.4291,75.806
1.5963,75.806
1.7947,76.001
1.9814,76.197
2.1574,76.49
2.348,76.734
2.5298,76.929
2.6882,77.027
2.8172,77.027
2.913,76.881
2.9795,76.539
3.0186,76.197
3.0352,75.66
3.0323,75.122
3.0147,74.536
2.9844,73.901
2.9453,73.315
2.8974,72.68
2.8397,71.996
2.7713,71.361
2.6931,70.824
2.6061,70.238
2.5132,69.652
2.4145,69.163
2.3128,68.626
2.2121,68.089
2.1144,67.6
2.0244,67.112
1.9501,66.526
1.8886,66.037
1.8309,65.598
1.782,65.158
1.7429,64.718
1.7126,64.279
1.6921,63.986
1.6784,64.572
1.6686,67.161
1.6618,73.168
1.6549,82.547
1.6471,93.488
1.6373,103.94
1.6285,112.68
1.6178,119.67
1.6031,125.19
1.5855,129.49
1.565,132.51
1.5415,133.98
1.5181,133.98
1.4946,132.81
1.4721,130.85
1.4526,128.36
1.434,125.63
1.4154,122.7
1.4008,119.57
1.3891,116.35
1.3763,113.12
1.3627,109.75
1.348,106.24
1.3333,102.67
1.2913,99.007
1.2346,95.246
1.1965,91.632
1.1672,88.164
1.1427,85.233
1.1251,82.84
1.1183,81.13
1.1261,79.86
1.1554,78.932
1.219,78.346
1.3255,78.102
1.4751,78.053
1.6637,78.199
1.8807,78.346
2.1114,78.688
2.3392,78.932
2.5474,79.176
2.7263,79.323
2.869,79.323
2.9648,79.225
3.0244,78.981
3.0674,78.59
3.0899,78.102
3.0938,77.564
3.0821,76.929
3.0567,76.246
3.0176,75.464
2.9658,74.731
2.9032,74.048
2.8299,73.364
2.7468,72.729
2.6549,72.094
2.566,71.508
2.478,70.922
2.3803,70.384
2.2796,69.847
2.1808,69.31
2.088,68.724
2.0029,68.235
1.9286,67.796
1.8661,67.356
1.8152,66.916
1.7742,66.428
1.7439,65.842
1.7224,65.598
1.7067,66.526
1.694,70.042
1.6823,77.125
1.6716,87.138
1.6618,97.932
1.65,107.7
1.6373,115.61
1.6217,122.06
1.6051,127.19
1.5865,131
1.566,133.34
1.5474,134.22
1.5288,133.78
1.5073,132.37
1.4829,130.32
1.4575,127.87
1.433,125.19
1.4086,122.26
1.3851,119.23
1.3627,116.1
1.3412,112.88
1.3216,109.61
1.3021,106.19
1.2835,102.62
1.2688,98.909
1.2551,95.197
1.2375,91.534
1.217,88.164
1.1935,85.379
1.173,83.182
1.1623,81.472
1.172,80.251
1.2121,79.372
1.2913,78.786
1.4164,78.541
1.5836,78.541
1.7527,78.737
1.9267,78.981
2.131,79.225
2.3402,79.469
2.5337,79.665
2.6989,79.762
2.8299,79.665
2.9257,79.469
2.9892,79.176
3.0254,78.737
3.0381,78.248
3.0323,77.564
3.0117,76.783
2.9785,76.05
2.9355,75.318
2.8827,74.536
2.8192,73.852
2.7449,73.168
2.6618,72.533
2.5689,71.947
2.4692,71.361
2.3636,70.824
2.2551,70.384
2.1457,69.847
2.0381,69.407
1.9472,68.968
1.869,68.479
1.7928,68.04
1.7243,67.698
1.6657,67.258
1.6178,66.819
1.5787,66.379
1.5474,65.988
1.523,66.281
1.5034,68.528
1.4868,73.852
1.4731,82.498
1.4604,92.95
1.4497,103.26
1.4399,112
1.4262,119.03
1.4096,124.8
1.391,129.39
1.3695,132.66
1.347,134.61
1.3216,135.05
1.2952,134.32
1.2669,132.81
1.2395,130.66
1.2131,128.26
1.1916,125.48
1.172,122.5
1.1505,119.37
1.1271,116.05
1.1036,112.68
1.0811,109.17
1.0596,105.55
1.0401,101.79
1.0225,98.03
1.0049,94.22
0.98534,90.606
0.96579,87.431
0.94819,84.745
0.93939,82.693
0.9433,81.032
0.96579,79.909
1.0205,79.225
1.1153,78.883
1.2532,78.737
1.433,78.737
1.6432,78.883
1.871,78.981
2.0978,79.225
2.3099,79.421
2.4946,79.567
2.6295,79.469
2.7253,79.372
2.8045,79.03
2.8592,78.59
2.8895,78.053
2.8993,77.369
2.8905,76.539
2.8651,75.757
2.826,74.927
2.7732,74.194
2.7087,73.51
2.6344,72.778
2.5503,72.192
2.4682,71.557
2.3861,71.068
2.2923,70.531
2.1926,70.042
2.0899,69.603
1.9883,69.163
1.8915,68.724
1.7996,68.284
1.7165,67.844
1.6422,67.405
1.5787,66.965
1.5249,66.526
1.4839,66.037
1.4526,65.549
1.4252,65.402
1.4027,66.526
1.3842,70.287
1.3695,77.32
1.3558,87.04
1.3441,97.591
1.3333,107.12
1.3216,115.08
1.3089,121.38
1.2933,126.51
1.2747,130.41
1.259,133.05
1.2424,134.17
1.2199,133.98
1.1935,132.86
1.1662,131.05
1.1378,128.8
1.1114,126.26
1.087,123.38
1.0635,120.3
1.043,117.13
1.0254,113.76
1.0108,110.29
1.002,106.68
0.99707,102.91
0.99022,99.056
0.98045,95.197
0.96872,91.387
0.95308,87.822
0.93548,84.745
0.91984,82.253
0.913,80.251
0.92571,78.737
0.96872,77.662
1.0518,77.027
1.1808,76.783
1.3236,76.734
1.4858,76.881
1.6911,77.027
1.9169,77.174
2.1408,77.32
2.347,77.418
2.523,77.467
2.6637,77.418
2.7693,77.223
2.8407,76.929
2.8837,76.49
2.9003,76.001
2.8964,75.366
2.8778,74.731
2.8485,74.048
2.8074,73.364
2.7546,72.68
2.6921,72.045
2.6197,71.41
2.5367,70.873
2.4457,70.287
2.348,69.749
2.2454,69.261
2.1417,68.821
2.0381,68.431
1.9482,67.991
1.868,67.551
1.7869,67.063
1.7116,66.623
1.6442,66.184
1.5865,65.744
1.5386,65.305
1.4985,64.816
1.4673,64.474
1.4428,64.718
1.4233,66.868
1.4076,72.045
1.4106,80.788
1.4223,91.534
1.4223,102.18
1.4164,111.22
1.4076,118.5
1.3959,124.26
1.3812,128.75
1.3646,131.78
1.347,133.49
1.3275,133.74
1.306,132.81
1.2845,131.05
1.263,128.85
1.2454,126.36
1.2307,123.62
1.2141,120.69
1.1975,117.57
1.1799,114.34
1.1632,111.07
1.1476,107.7
1.1329,104.14
1.1193,100.42
1.1056,96.662
1.0919,92.999
1.0772,89.531
1.0665,86.503
1.0587,84.11
1.0518,82.253
1.0547,80.935
1.0772,80.007
1.129,79.372
1.219,78.981
1.3509,78.786
1.52,78.786
1.7175,78.981
1.9296,79.176
2.1408,79.421
2.3138,79.665
2.4536,79.86
2.5836,79.86
2.6911,79.762
2.7722,79.469
2.826,79.127
2.8573,78.688
2.869,78.199
2.8641,77.564
2.8446,76.929
2.8123,76.246
2.7683,75.562
2.7116,74.878
2.651,74.194
2.5836,73.51
2.5034,72.875
2.4135,72.289
2.3177,71.801
2.2199,71.312
2.1212,70.824
2.0244,70.287
1.9335,69.798
1.8514,69.359
1.7791,68.919
1.7175,68.479
1.6706,67.991
1.6354,67.405
1.6051,66.916
1.5806,66.819
1.5611,68.186
1.5455,72.387
1.5318,80.153
1.5191,90.606
1.5073,101.35
1.4946,110.73
1.48,118.2
1.4653,124.11
1.4506,128.8
1.4379,132.17
1.4262,134.13
1.4106,134.66
1.3939,134.08
1.3744,132.56
1.3539,130.51
1.3324,128.12
1.3118,125.43
1.2913,122.55
1.2708,119.57
1.2512,116.44
1.2336,113.22
1.2209,109.95
1.2102,106.43
1.1965,102.82
1.1808,99.105
1.1642,95.344
1.1457,91.778
1.1232,88.603
1.1007,85.917
1.0811,83.865
1.0714,82.351
1.0802,81.228
1.1193,80.446
1.1975,80.007
1.2952,79.811
1.4164,79.762
1.5806,79.86
1.7722,80.007
1.9726,80.251
2.1662,80.446
2.3392,80.544
2.4829,80.544
2.5934,80.495
2.6706,80.251
2.7195,79.86
2.7449,79.323
2.7488,78.688
2.739,77.906
2.7195,77.174
2.6911,76.294
2.653,75.464
2.6041,74.731
2.5445,74.048
2.4751,73.364
2.3949,72.68
2.3069,72.045
2.2131,71.508
2.1153,70.97
2.0166,70.482
1.9296,70.042
1.8524,69.603
1.7722,69.163
1.696,68.724
1.6285,68.284
1.5699,67.942
1.52,67.503
1.48,66.965
1.4487,66.526
1.4242,66.477
1.4047,67.698
1.3891,71.508
1.3773,78.688
1.3666,88.603
1.3539,99.251
1.3392,108.82
1.3216,116.69
1.3021,123.04
1.2805,128.26
1.2581,132.22
1.2346,134.91
1.2092,136.18
1.1818,136.13
1.1525,135.01
1.1212,133.1
1.0958,130.85
1.0743,128.17
1.0489,125.24
1.0235,122.16
0.99902,118.98
0.97752,115.61
0.95894,112.1
0.94428,108.43
0.93157,104.67
0.92082,100.81
0.91007,97.004
0.89932,93.292
0.8915,89.873
0.88465,86.845
0.87586,84.403
0.87097,82.595
0.87879,81.277
0.91105,80.446
0.97654,79.909
1.0811,79.665
1.2248,79.665
1.4008,79.762
1.5982,79.86
1.8016,80.007
1.9971,80.055
2.1544,80.104
2.2796,80.153
2.393,80.104
2.4848,79.86
2.5523,79.469
2.5953,78.981
2.6178,78.346
2.6207,77.662
2.608,76.929
2.5806,76.197
2.5406,75.415
2.4897,74.683
2.436,73.901
2.3773,73.217
2.306,72.533
2.2258,71.996
2.1388,71.361
2.0469,70.873
1.9521,70.287
1.8583,69.847
1.7674,69.407
1.6823,69.066
1.6051,68.626
1.5367,68.186
1.478,67.747
1.433,67.307
1.3978,66.819
1.3646,66.281
1.3353,66.184
1.3099,67.307
1.2884,70.873
1.2698,77.662
1.2522,87.284
1.2356,97.786
1.2199,107.41
1.2043,115.42
1.1896,121.87
1.1799,127.14
1.1711,131.29
1.1593,134.13
1.1447,135.54
1.1281,135.64
1.1105,134.66
1.0899,132.95
1.0665,130.66
1.042,128.07
1.0156,125.14
0.99022,122.01
0.96579,118.69
0.94233,115.32
0.92669,111.76
0.91496,108.19
0.90127,104.43
0.88661,100.57
0.87195,96.662
0.85728,92.95
0.84164,89.482
0.82698,86.503
0.81525,84.061
0.81134,82.253
0.82502,80.886
0.86413,80.007
0.92082,79.469
1.0029,79.225
1.1261,79.176
1.2835,79.176
1.4663,79.323
1.6598,79.421
1.8514,79.567
2.0293,79.616
2.1838,79.616
2.3109,79.469
2.4086,79.323
2.478,78.981
2.5249,78.59
2.5474,78.102
2.5523,77.564
2.5464,76.929
2.5279,76.197
2.4976,75.318
2.4555,74.438
2.436,73.559
2.4223,72.68
2.3754,71.752
2.3069,70.922
2.2258,70.091
2.1378,69.359
2.0567,68.675
1.9804,68.04
1.8983,67.503
1.8172,66.916
1.7419,66.428
1.6755,65.94
1.6197,65.402
1.5758,65.012
1.5415,64.572
1.5152,64.181
1.4946,63.986
1.478,64.718
1.4673,67.747
1.4585,74.097
1.4477,83.572
1.435,94.367
1.4203,104.48
1.4047,112.98
1.3871,119.81
1.3685,125.24
1.35,129.53
1.3304,132.61
1.3118,134.37
1.2952,134.66
1.2796,133.78
1.2678,132.12
1.259,129.97
1.2473,127.48
1.2336,124.8
1.219,121.82
1.2043,118.69
1.1887,115.42
1.172,112
1.1544,108.43
1.1359,104.72
1.1163,100.91
1.0938,97.004
1.0772,93.097
1.0616,89.482
1.0411,86.356
1.0205,83.865
1.0059,82.009
1.0049,80.593
1.0274,79.762
1.0821,79.323
1.174,79.03
1.304,79.03
1.4702,79.225
1.6618,79.421
1.8651,79.665
2.043,79.86
2.1984,80.007
2.3539,80.104
2.4927,80.055
2.6051,79.909
2.6882,79.616
2.7458,79.176
2.7791,78.688
2.7918,78.053
2.7889,77.369
2.7722,76.636
2.7439,75.855
2.7087,75.122
2.6676,74.438
2.6188,73.755
2.563,73.12
2.4995,72.533
2.4291,72.045
2.3519,71.605
2.2708,71.117
2.1867,70.677
2.1017,70.238
2.0176,69.749
1.9384,69.261
1.8671,68.821
1.8094,68.431
1.7634,67.942
1.7204,67.405
1.6823,67.063
1.651,67.551
1.6266,70.189
1.608,76.294
1.5934,85.819
1.5826,96.907
1.5748,107.31
1.566,115.81
1.5552,122.55
1.5435,127.87
1.5288,131.93
1.5054,134.66
1.4731,135.98
1.436,135.98
1.3959,134.91
1.3558,133.2
1.3177,130.95
1.2835,128.31
1.2542,125.43
1.2307,122.45
1.2121,119.23
1.1984,116
1.1916,112.54
1.1887,108.97
1.1857,105.26
1.1848,101.45
1.1838,97.493
1.1838,93.683
1.1828,90.117
1.1799,87.04
1.1789,84.696
1.1838,82.84
1.2023,81.57
1.2454,80.593
1.304,80.007
1.3891,79.616
1.5181,79.469
1.6872,79.469
1.8856,79.567
2.0997,79.665
2.3157,79.86
2.5191,80.055
2.6979,80.153
2.8456,80.104
2.9599,79.86
3.044,79.469
3.1007,79.03
3.13,78.688
3.1408,78.199
3.1437,77.564
3.1378,76.783
3.1202,76.099
3.089,75.464
3.044,74.927
2.9844,74.438
2.911,73.901
2.826,73.413
2.7312,72.778
2.6295,72.192
2.5357,71.605
2.4457,71.215
2.349,70.873
2.2532,70.482
2.1632,70.091
2.0821,69.749
2.0117,69.31
1.9521,68.821
1.9042,68.284
1.8661,67.796
1.8377,67.551
1.8162,67.991
1.8006,70.287
1.7908,75.806
1.784,84.696
1.7771,95.295
1.7703,105.5
1.7615,114
1.7507,120.79
1.737,126.41
1.7204,131
1.7028,134.32
1.6833,136.23
1.6618,136.81
1.6403,136.13
1.6227,134.66
1.607,132.76
1.5885,130.32
1.5699,127.48
1.5523,124.5
1.5347,121.23
1.5171,117.86
1.4995,114.3
1.48,110.68
1.4575,106.87
1.433,103.01
1.4047,99.056
1.3744,95.246
1.349,91.68
1.3265,88.603
1.303,86.161
1.2864,84.305
1.2835,82.937
1.303,81.863
1.3548,81.179
1.4438,80.788
1.5709,80.593
1.7322,80.544
1.9198,80.593
2.1193,80.69
2.2923,80.739
2.4428,80.739
2.5943,80.739
2.7292,80.69
2.8397,80.495
2.9218,80.153
2.9785,79.762
3.0108,79.225
3.0225,78.59
3.0176,77.906
2.998,77.223
2.9658,76.539
2.9218,75.855
2.8719,75.171
2.8152,74.487
2.7478,73.852
2.6706,73.168
2.5855,72.631
2.4936,72.045
2.3959,71.557
2.2962,71.117
2.1965,70.677
2.1007,70.189
2.0117,69.652
1.9326,69.163
1.87,68.821
1.8201,68.431
1.7752,68.04
1.7361,67.6
1.7038,67.258
1.6784,67.063
1.6588,67.698
1.6432,70.384
1.6305,76.197
1.6207,85.184
1.6119,95.734
1.6022,105.8
1.5924,114.25
1.5826,120.99
1.5689,126.51
1.5533,130.95
1.5376,134.17
1.523,135.98
1.5083,136.42
1.4936,135.74
1.479,134.22
1.4633,132.12
1.4467,129.68
1.4301,126.95
1.4145,123.92
1.4027,120.74
1.393,117.32
1.3812,113.76
1.3695,110.05
1.3568,106.24
1.3441,102.38
1.3294,98.421
1.3138,94.611
1.2972,91.094
1.2786,87.968
1.262,85.428
1.2512,83.426
1.2512,82.009
1.2639,80.935
1.2981,80.3
1.3675,80.055
1.4751,79.909
1.6178,80.007
1.7889,80.007
1.9785,80.055
2.172,80.104
2.3578,80.251
2.5239,80.251
2.6637,80.104
2.7742,79.909
2.8465,79.567
2.8915,79.176
2.9247,78.688
2.9433,78.102
2.9492,77.467
2.9433,76.734
2.9277,76.001
2.9032,75.318
2.869,74.634
2.824,73.999
2.7683,73.364
2.7009,72.778
2.6315,72.24
2.5572,71.654
2.4712,71.166
2.3783,70.629
2.2825,70.189
2.1887,69.652
2.0997,69.114
2.0196,68.479
1.9501,67.942
1.8925,67.405
1.8475,66.965
1.8133,66.526
1.7889,66.184
1.7722,66.233
1.7605,67.747
1.7507,71.752
1.741,78.932
1.7322,88.506
1.7204,98.567
1.7067,107.6
1.6911,115.08
1.6735,121.04
1.6549,125.87
1.6344,129.53
1.6119,131.98
1.5924,133.1
1.5738,133.1
1.5503,132.17
1.5249,130.56
1.4995,128.51
1.4741,126.07
1.4497,123.38
1.4272,120.45
1.4076,117.32
1.391,114.05
1.3763,110.63
1.3627,106.97
1.35,103.16
1.3412,99.3
1.3324,95.49
1.3196,91.778
1.303,88.506
1.2854,85.673
1.2698,83.377
1.261,81.618
1.2669,80.349
1.2942,79.469
1.3529,78.981
1.4487,78.786
1.5806,78.737
1.7185,78.786
1.8661,78.883
2.0459,78.981
2.2356,78.981
2.4184,78.932
2.5797,78.786
2.7126,78.59
2.8133,78.297
2.8837,77.858
2.9277,77.369
2.9501,76.783
2.955,76.246
2.9453,75.611
2.9247,74.927
2.8944,74.243
2.8563,73.51
2.8104,72.778
2.7566,72.094
2.696,71.557
2.6276,70.97
2.5523,70.531
2.4712,70.091
2.3871,69.652
2.303,69.261
2.2199,68.87
2.1476,68.479
2.0841,68.089
2.0215,67.698
1.9648,67.356
1.915,67.063
1.8729,66.623
1.8377,66.135
1.8094,65.94
1.7859,67.063
1.7664,70.873
1.7488,78.297
1.7322,88.506
1.7155,99.349
1.7009,109.07
1.6872,116.88
1.6716,122.99
1.6549,127.73
1.6383,131.2
1.6207,133.3
1.6031,133.98
1.5836,133.34
1.563,131.88
1.5415,129.93
1.5191,127.68
1.4966,125.29
1.479,122.7
1.4624,119.81
1.4438,116.88
1.4233,113.76
1.4037,110.49
1.3842,107.07
1.3646,103.35
1.3451,99.593
1.3265,95.783
1.3079,92.071
1.2893,88.603
1.2698,85.721
1.2542,83.475
1.2463,81.863
1.2532,80.69
1.2796,79.909
1.3363,79.567
1.4291,79.421
1.5591,79.469
1.7224,79.762
1.9081,80.055
2.1056,80.349
2.3001,80.69
2.48,80.935
2.6373,81.032
2.7517,80.984
2.8338,80.739
2.9032,80.3
2.9541,79.811
2.9863,79.127
3,78.346
2.998,77.564
2.9824,76.734
2.955,75.806
2.9159,74.927
2.8661,74.097
2.8055,73.217
2.7361,72.485
2.6676,71.752
2.5973,71.068
2.5161,70.433
2.4311,69.798
2.3451,69.114
2.261,68.528
2.1808,68.04
2.1065,67.6
2.0391,67.258
1.9795,66.868
1.9306,66.526
1.8915,66.233
1.8631,65.94
1.8426,65.744
1.827,66.184
1.8143,68.284
1.8045,73.51
1.7947,82.107
1.784,92.657
1.7713,103.11
1.7566,111.95
1.74,118.89
1.7224,124.55
1.7028,129.05
1.6813,132.22
1.6618,134.08
1.6422,134.37
1.6188,133.69
1.5924,132.17
1.563,130.17
1.5327,127.83
1.5005,125.19
1.4663,122.26
1.433,119.18
1.3998,116
1.3685,112.63
1.3392,109.17
1.3177,105.6
1.3021,101.94
1.2864,98.225
1.2708,94.513
1.2542,90.997
1.2375,87.919
1.2199,85.477
1.2063,83.621
1.2033,82.156
1.219,81.179
1.262,80.446
1.3392,80.007
1.433,79.811
1.5494,79.811
1.7067,79.909
1.8915,80.055
2.088,80.104
2.2796,80.153
2.4526,80.104
2.5982,80.007
2.7136,79.811
2.7986,79.469
2.8563,79.127
2.8905,78.59
2.9062,78.053
2.9032,77.369
2.8856,76.636
2.8592,75.855
2.8231,75.073
2.7771,74.341
2.7214,73.755
2.6569,73.12
2.5846,72.533
2.5054,71.947
2.4194,71.361
2.3275,70.873
2.2336,70.433
2.1505,70.042
2.0743,69.652
1.9951,69.261
1.9189,68.724
1.8504,68.235
1.7918,67.796
1.7439,67.356
1.7067,66.868
1.6794,66.379
1.6588,65.988
1.6442,66.281
1.6325,68.382
1.6207,73.413
1.6109,81.716
1.6012,92.169
1.5885,102.38
1.5728,111.07
1.5552,117.91
1.5357,123.58
1.5142,128.07
1.4506,131.49
1.3656,133.69
1.3109,134.42
1.2708,134.08
1.2385,132.81
1.2151,131
1.1945,128.75
1.1711,126.26
1.1457,123.43
1.1202,120.5
1.0958,117.42
1.0704,114.2
1.0459,110.73
1.0235,107.12
1.0029,103.35
0.98436,99.544
0.96579,95.686
0.94721,92.071
0.93353,88.701
0.92278,85.917
0.91105,83.67
0.90616,81.863
0.91887,80.446
0.95894,79.567
1.0352,79.176
1.1525,79.176
1.3099,79.372
1.4985,79.469
1.7067,79.469
1.9189,79.372
2.0968,79.176
2.2434,79.03
2.3832,78.981
2.4995,78.981
2.5855,78.786
2.6422,78.492
2.6735,77.906
2.6823,77.223
2.6745,76.49
2.652,75.757
2.6188,75.073
2.5748,74.438
2.52,73.755
2.4633,73.071
2.4027,72.289
2.3304,71.654
2.2502,71.117
2.1642,70.677
2.0743,70.189
1.9834,69.652
1.8925,69.066
1.8035,68.479
1.7175,67.991
1.6383,67.6
1.5689,67.307
1.5142,66.965
1.4702,66.672
1.4301,66.184
1.3959,65.549
1.3685,65.06
1.347,65.305
1.3314,67.258
1.3196,72.094
1.3109,80.104
1.3021,90.069
1.2923,99.984
1.2815,108.48
1.2708,115.37
1.261,120.99
1.2522,125.58
1.2385,128.95
1.2209,131.05
1.2004,131.78
1.1769,131.44
1.1515,130.17
1.1241,128.41
1.0968,126.31
1.0694,123.87
1.042,121.18
1.0147,118.25
0.99511,115.08
0.97947,111.76
0.96188,108.24
0.94624,104.67
0.93548,101.01
0.92864,97.102
0.92571,93.292
0.92473,89.531
0.9218,86.161
0.91593,83.377
0.91105,81.13
0.91202,79.372
0.92766,78.053
0.95894,77.174
1.0127,76.685
1.1036,76.539
1.2326,76.636
1.3959,76.783
1.5816,76.978
1.7771,77.174
1.9697,77.369
2.1457,77.418
2.2962,77.467
2.4164,77.369
2.5064,77.174
2.563,76.881
2.5934,76.441
2.6119,75.904
2.6168,75.318
2.609,74.634
2.5885,73.901
2.5572,73.315
2.5142,72.631
2.4594,72.045
2.3949,71.508
2.3216,70.97
2.2405,70.482
2.1525,69.945
2.0714,69.359
1.9932,68.87
1.9071,68.284
1.8192,67.844
1.7341,67.405
1.6549,66.965
1.5836,66.526
1.521,66.184
1.4673,65.793
1.4233,65.402
1.3891,65.06
1.3617,64.67
1.3431,64.865
1.3314,66.672
1.3226,71.41
1.3167,79.665
1.3109,90.166
1.305,100.72
1.2981,109.66
1.2884,116.79
1.2757,122.5
1.261,127.04
1.2434,130.41
1.2239,132.51
1.2023,133.2
1.1848,132.61
1.1681,131.24
1.1486,129.39
1.1281,126.99
1.1075,124.26
1.087,121.23
1.0684,118.11
1.0518,114.78
1.0352,111.36
1.0186,107.85
1.0039,104.23
0.99022,100.47
0.9824,96.662
0.97654,92.853
0.96676,89.287
0.95503,86.161
0.94233,83.621
0.92962,81.716
0.92375,80.3
0.93353,79.225
0.96872,78.541
1.0381,78.102
1.1466,77.906
1.2923,77.858
1.4418,78.004
1.5982,78.102
1.783,78.297
1.9726,78.541
2.1486,78.786
2.3001,78.932
2.4203,78.981
2.5083,78.786
2.566,78.492
2.5973,78.004
2.608,77.418
2.6012,76.881
2.5806,76.246
2.5513,75.562
2.5142,74.878
2.4663,74.194
2.4076,73.413
2.3392,72.68
2.261,71.996
2.174,71.312
2.0811,70.677
1.9834,69.994
1.8837,69.359
1.7859,68.724
1.6931,68.235
1.6158,67.796
1.5503,67.405
1.4848,67.161
1.4272,66.868
1.3793,66.526
1.3412,66.135
1.3118,65.695
1.2903,65.402
1.2757,65.94
1.2669,68.284
1.261,73.901
1.2561,82.742
1.2493,93.097
1.2434,103.06
1.2375,111.22
1.2268,117.81
1.2131,123.18
1.1955,127.63
1.176,130.95
1.1554,133
1.1329,133.74
1.1095,133.25
1.085,131.73
1.0616,129.68
1.0391,127.14
1.0235,124.26
1.0117,121.13
0.99804,117.86
0.98436,114.44
0.97067,110.92
0.95601,107.31
0.94037,103.6
0.92375,99.886
0.90518,96.125
0.88465,92.413
0.86119,89.043
0.83675,86.063
0.81427,83.719
0.79961,81.912
0.79668,80.544
0.80645,79.567
0.83969,78.883
0.90616,78.346
1.0108,78.199
1.1505,78.102
1.3196,78.102
1.5054,78.248
1.694,78.346
1.8719,78.492
2.0283,78.59
2.1447,78.59
2.2287,78.492
2.2972,78.248
2.346,77.858
2.3763,77.418
2.39,76.881
2.39,76.246
2.3783,75.562
2.3548,74.78
2.3206,74.097
2.2757,73.364
2.2219,72.729
2.1593,72.094
2.0968,71.508
2.0987,70.873
2.1212,70.238
2.087,69.652
2.0244,69.163
1.9501,68.675
1.8729,68.235
1.7996,67.796
1.7322,67.356
1.6725,66.916
1.6217,66.477
1.5797,66.037
1.5484,65.549
1.5259,65.06
1.5044,64.67
1.4848,64.865
1.4673,66.623
1.4497,71.312
1.4321,79.323
1.4135,89.287
1.3949,99.3
1.3754,107.95
1.3558,114.93
1.3382,120.79
1.3226,125.72
1.3128,129.63
1.306,132.37
1.2952,133.69
1.2825,133.74
1.2678,132.76
1.2512,130.95
1.2326,128.56
1.2121,125.82
1.1916,122.79
1.1701,119.62
1.1496,116.25
1.129,112.68
1.1153,108.92
1.1056,105.11
1.0929,101.3
1.0792,97.444
1.0655,93.634
1.0518,90.069
1.0362,86.796
1.0196,84.061
1.0049,81.716
0.99707,80.007
1.0049,78.688
1.0362,77.858
1.0997,77.369
1.1818,77.223
1.2864,77.223
1.4291,77.32
1.5973,77.418
1.7761,77.564
1.9541,77.76
2.1183,77.906
2.261,78.004
2.3783,77.906
2.4682,77.76
2.5318,77.467
2.5728,77.125
2.5924,76.636
2.5963,76.05
2.5885,75.366
2.5699,74.683
2.5396,73.999
2.4995,73.217
2.4497,72.485
2.391,71.801
2.3245,71.166
2.2502,70.482
2.1691,69.847
2.085,69.261
1.999,68.626
1.9257,68.089
1.8602,67.6
1.7908,67.161
1.7243,66.721
1.6628,66.281
1.609,65.793
1.563,65.353
1.5259,65.06
1.4946,64.718
1.4702,64.425
1.4497,64.816
1.433,66.965
1.4223,72.192
1.4145,80.495
1.4047,90.557
1.3939,100.33
1.3812,108.63
1.3675,115.22
1.3519,120.69
1.3343,125.14
1.3167,128.7
1.2972,131.05
1.2766,132.22
1.2542,132.12
1.2317,130.95
1.2151,129
1.2014,126.51
1.1838,123.67
1.1652,120.6
1.1476,117.37
1.13,113.9
1.1144,110.39
1.1007,106.53
1.088,102.67
1.0762,98.812
1.0635,94.806
1.0508,90.801
1.043,87.04
1.0362,83.719
1.0244,80.984
1.0137,78.786
1.0098,77.125
1.0196,75.904
1.0518,75.171
1.1144,74.78
1.2102,74.683
1.3382,74.78
1.4917,74.927
1.6598,75.171
1.8319,75.415
1.9775,75.66
2.1007,75.904
2.218,76.05
2.3177,76.099
2.3959,76.001
2.4516,75.757
2.4868,75.415
2.5044,75.073
2.5083,74.634
2.4985,74.097
2.477,73.559
2.4457,73.071
2.4106,72.485
2.3685,71.947
2.3157,71.41
2.2551,70.922
2.1877,70.482
2.1153,70.091
2.0391,69.603
1.9609,69.163
1.8837,68.626
1.8094,68.089
1.74,67.551
1.6774,66.965
1.6285,66.477
1.5894,65.988
1.5543,65.5
1.5249,65.012
1.5015,64.572
1.4839,64.67
1.4712,66.477
1.4614,71.312
1.4545,79.567
1.4497,89.971
1.4448,100.37
1.4399,109.12
1.435,116.1
1.433,121.72
1.4311,126.31
1.4262,129.83
1.4203,132.17
1.4115,133.1
1.4018,132.76
1.39,131.39
1.3773,129.24
1.3636,126.7
1.35,123.82
1.3363,120.69
1.3236,117.37
1.3148,114
1.3079,110.49
1.2981,106.87
1.2874,103.16
1.2757,99.447
1.263,95.637
1.2502,91.876
1.2356,88.31
1.219,85.233
1.2014,82.742
1.1848,80.886
1.175,79.469
1.1799,78.492
1.2014,77.809
1.2444,77.418
1.3187,77.223
1.4262,77.223
1.563,77.369
1.7185,77.564
1.8827,77.809
2.042,78.053
2.1867,78.248
2.3089,78.297
2.4057,78.199
2.477,78.004
2.522,77.76
2.5474,77.369
2.5621,76.929
2.564,76.441
2.5552,75.855
2.5357,75.22
2.5054,74.634
2.4673,73.901
2.4203,73.217
2.3656,72.485
2.304,71.801
2.2356,71.068
2.1623,70.287
2.0948,69.603
2.0313,68.919
1.9609,68.382
1.8905,67.796
1.8221,67.258
1.7595,66.672
1.7028,66.184
1.653,65.695
1.6109,65.158
1.5767,64.621
1.5484,64.23
1.5269,64.425
1.5132,66.281
1.5034,71.215
1.4936,79.665
1.4839,90.117
1.4741,100.37
1.4643,109.07
1.4545,116.1
1.4438,121.91
1.4321,126.85
1.4194,130.76
1.4057,133.3
1.391,134.42
1.3754,134.17
1.3627,133
1.3509,131
1.3353,128.51
1.3177,125.58
1.2981,122.35
1.2786,118.94
1.2581,115.42
1.2385,111.85
1.2209,108.24
1.2053,104.48
1.1906,100.67
1.1789,96.809
1.172,92.95
1.1672,89.385
1.1584,86.161
1.1486,83.67
1.1398,81.814
1.1369,80.349
1.1476,79.323
1.1808,78.444
1.2678,77.809
1.4076,77.467
1.5728,77.418
1.7634,77.613
1.9697,77.906
2.1544,78.297
2.3206,78.688
2.4917,78.883
2.6481,78.932
2.7791,78.883
2.8807,78.737
2.9541,78.541
3.002,78.297
3.0293,77.906
3.0381,77.418
3.0313,76.783
3.0108,76.05
2.9814,75.171
2.9443,74.438
2.8954,73.901
2.8358,73.608
2.7644,73.12
2.6833,72.289
2.5943,71.215
2.4985,70.287
2.3988,69.505
2.2981,68.87
2.1984,68.479
2.1026,68.479
2.0156,68.675
1.9472,68.431
1.8925,67.551
1.8426,66.428
1.8006,65.744
1.7683,65.353
1.7439,65.353
1.7253,66.428
1.7116,70.091
1.6999,77.125
1.6901,86.503
1.6794,96.369
1.6667,105.5
1.654,113.42
1.6403,120.06
1.6207,125.38
1.5953,129.44
1.565,132.42
1.5318,134.37
1.4976,135.1
1.4624,134.81
1.4282,133.49
1.3959,131.44
1.3646,128.51
1.3353,124.94
1.3069,120.99
1.2864,117.18
1.2688,113.61
1.2473,110.29
1.2229,106.87
1.1965,103.06
1.1681,99.007
1.1388,95.051
1.1085,91.485
1.0762,88.31
1.045,85.428
1.0186,82.986
1.002,81.032
1.0039,79.616
1.0264,78.59
1.0802,78.102
1.175,77.906
1.3148,77.858
1.4966,77.906
1.7107,78.053
1.9443,78.102
2.1818,78.199
2.4096,78.248
2.6158,78.346
2.7947,78.444
2.9413,78.297
3.045,77.906
3.1173,77.418
3.1769,76.929
3.219,76.441
3.2434,75.855
3.2502,75.22
3.2414,74.634
3.217,73.901
3.1779,73.315
3.1251,72.631
3.0587,72.045
2.9814,71.41
2.9042,70.873
2.824,70.238
2.7312,69.603
2.6305,68.968
2.5288,68.382
2.4311,67.796
2.3402,67.356
2.26,66.916
2.1916,66.477
2.1339,66.135
2.086,65.598
2.0489,65.06
2.0196,64.718
2,65.305
1.9873,67.698
1.9785,72.973
1.9736,81.423
1.9697,91.485
1.9668,101.25
1.9619,109.51
1.9541,116.05
1.9413,121.48
1.9238,125.92
1.9013,129.39
1.8749,131.54
1.8514,132.42
1.8289,132.12
1.8025,130.85
1.7742,128.95
1.7458,126.41
1.7175,123.58
1.6901,120.3
1.6647,116.93
1.6413,113.51
1.6197,109.95
1.5992,106.28
1.5797,102.62
1.564,98.812
1.5503,94.904
1.5318,91.094
1.5103,87.529
1.4858,84.403
1.4594,81.814
1.435,79.762
1.4194,78.102
1.4203,76.978
1.4497,76.246
1.5171,75.904
1.6305,75.855
1.7898,76.05
1.958,76.246
2.1388,76.539
2.3578,76.783
2.5904,77.027
2.8162,77.223
3.0205,77.32
3.1945,77.223
3.3363,77.027
3.4448,76.734
3.522,76.343
3.5728,75.855
3.6002,75.318
3.6031,74.731
3.5885,74.048
3.5611,73.413
3.52,72.778
3.4653,72.192
3.3959,71.557
3.3128,70.97
3.218,70.433
3.1144,69.847
3.0049,69.359
2.8925,68.821
2.7791,68.284
2.6686,67.747
2.5748,67.258
2.4927,66.672
2.4106,66.233
2.3363,65.793
2.2727,65.353
2.2209,64.865
2.1789,64.474
2.1466,64.67
2.1212,66.526
2.1017,71.508
2.085,79.811
2.0704,90.215
2.0596,100.67
2.0489,109.51
2.0362,116.54
2.0205,122.16
2.002,126.75
1.9824,130.12
1.9599,132.22
1.9355,132.95
1.9091,132.32
1.8827,130.76
1.8553,128.61
1.828,126.12
1.8016,123.38
1.781,120.35
1.7625,117.18
1.739,113.86
1.7146,110.49
1.6891,106.97
1.6657,103.35
1.6442,99.691
1.6237,95.881
1.6041,92.12
1.5846,88.603
1.564,85.575
1.5425,83.133
1.5259,81.228
1.5171,79.909
1.5181,78.932
1.5425,78.297
1.6022,77.906
1.7077,77.809
1.8612,77.809
2.0596,78.004
2.2923,78.199
2.5435,78.346
2.7957,78.541
3.0303,78.688
3.2356,78.688
3.3861,78.59
3.4936,78.444
3.5836,78.199
3.6491,77.858
3.6882,77.418
3.7028,76.881
3.696,76.294
3.6696,75.66
3.6256,75.122
3.565,74.438
3.4907,73.755
3.4027,72.973
3.3118,72.24
3.217,71.508
3.1065,70.824
2.9883,70.189
2.8651,69.554
2.7419,68.919
2.6237,68.382
2.5132,67.747
2.4125,67.161
2.3236,66.672
2.2473,66.233
2.1838,65.842
2.131,65.402
2.0919,65.109
2.0635,65.353
2.0381,67.405
2.0166,72.533
1.998,81.13
1.9814,91.632
1.9648,101.79
1.9462,110.39
1.9247,117.23
1.9013,122.79
1.8749,127.39
1.8465,130.8
1.8211,132.95
1.7986,133.74
1.7283,133.25
1.6354,131.88
1.5806,129.88
1.5455,127.43
1.5191,124.7
1.4985,121.67
1.4819,118.5
1.4673,115.17
1.4526,111.76
1.4389,108.19
1.4252,104.48
1.4154,100.72
1.4066,96.907
1.3959,93.097
1.3842,89.531
1.3715,86.552
1.3578,84.11
1.3451,82.253
1.3382,80.886
1.3451,79.811
1.3754,79.127
1.437,78.688
1.5357,78.492
1.6491,78.492
1.781,78.59
1.9531,78.786
2.1476,79.03
2.346,79.225
2.5337,79.323
2.6989,79.372
2.8338,79.225
2.9365,79.03
3.0078,78.688
3.0518,78.199
3.0704,77.613
3.0694,76.929
3.0518,76.246
3.0235,75.562
2.9863,74.78
2.9413,74.097
2.8895,73.51
2.8309,72.778
2.7664,72.192
2.695,71.557
2.6168,70.922
2.5318,70.384
2.4428,69.847
2.3529,69.407
2.2737,68.919
2.2023,68.431
2.129,67.991
2.0596,67.6
1.9971,67.258
1.9423,66.868
1.8964,66.477
1.8592,66.037
1.8289,65.988
1.8045,67.112
1.7859,70.629
1.7703,77.369
1.7566,86.845
1.7458,97.102
1.7361,106.43
1.7253,114
1.7126,120.16
1.6979,125.29
1.6804,129.49
1.6598,132.51
1.6373,134.13
1.6139,134.37
1.5894,133.64
1.565,132.07
1.5406,129.97
1.521,127.48
1.5034,124.6
1.4848,121.57
1.4663,118.3
1.4487,114.88
1.4321,111.32
1.4154,107.6
1.3988,103.79
1.3822,99.984
1.3666,96.125
1.35,92.413
1.3314,89.043
1.3157,86.161
1.303,83.816
1.2893,81.912
1.2835,80.544
1.2933,79.567
1.3284,78.981
1.3978,78.688
1.5044,78.541
1.6481,78.59
1.8221,78.688
2.0156,78.786
2.2131,78.932
2.4008,78.981
2.5494,79.03
2.6657,78.932
2.7703,78.737
2.8534,78.492
2.912,78.053
2.9482,77.467
2.9629,76.881
2.9599,76.197
2.9423,75.415
2.912,74.683
2.87,73.999
2.8172,73.315
2.7615,72.68
2.7009,71.996
2.6285,71.361
2.5474,70.873
2.4585,70.287
2.3666,69.798
2.2727,69.359
2.1799,68.87
2.0899,68.431
2.0049,67.942
1.9267,67.503
1.8573,67.063
1.7977,66.623
1.7517,66.184
1.7165,65.695
1.6862,65.402
1.6608,65.988
1.6422,68.528
1.6285,74.097
1.6178,82.791
1.609,93.048
1.6002,102.87
1.5914,111.12
1.5816,117.81
1.5699,123.23
1.5601,127.73
1.5503,131.1
1.5367,133.25
1.52,133.98
1.5005,133.54
1.48,132.17
1.4585,130.17
1.437,127.83
1.4154,125.04
1.3949,122.06
1.3754,118.79
1.3578,115.47
1.3431,112
1.3343,108.29
1.3284,104.62
1.3226,100.81
1.3167,96.858
1.3099,93.048
1.3011,89.482
1.2903,86.405
1.2757,83.865
1.261,81.912
1.2522,80.446
1.2571,79.372
1.2864,78.688
1.3333,78.297
1.4057,78.248
1.52,78.248
1.6725,78.297
1.8524,78.248
2.0469,78.199
2.2424,78.004
2.4252,77.809
2.5846,77.467
2.7136,77.027
2.8104,76.636
2.8768,76.05
2.9169,75.415
2.9326,74.731
2.9306,74.048
2.9169,73.364
2.8915,72.68
2.8553,72.045
2.8094,71.41
2.7517,70.824
2.6852,70.238
2.609,69.652
2.5249,69.163
2.435,68.626
2.3402,68.089
2.2532,67.551
2.172,67.063
2.085,66.526
2,66.135
1.9208,65.695
1.8495,65.305
1.7869,64.914
1.7351,64.572
1.6931,64.132
1.6588,63.742
1.6325,63.693
1.6129,64.865
1.5992,68.479
1.5904,75.562
1.5846,85.379
1.5767,95.979
1.5679,105.55
1.5572,113.37
1.5425,119.57
1.5259,124.55
1.5064,128.41
1.4848,131.1
1.4614,132.37
1.437,132.37
1.4125,131.29
1.393,129.63
1.3773,127.48
1.3597,124.99
1.3421,122.16
1.3265,119.18
1.3128,116
1.2991,112.68
1.2874,109.26
1.2757,105.6
1.263,101.89
1.2502,98.03
1.2356,94.22
1.219,90.606
1.2053,87.382
1.1926,84.598
1.1769,82.449
1.1632,80.788
1.1603,79.567
1.176,78.737
1.218,78.248
1.2952,78.053
1.4125,78.004
1.5679,78.053
1.7537,78.102
1.958,78.248
2.1388,78.346
2.3001,78.444
2.4633,78.444
2.609,78.346
2.7273,78.199
2.8152,77.906
2.8749,77.564
2.911,77.027
2.9267,76.539
2.9267,75.904
2.913,75.318
2.8876,74.683
2.8514,74.048
2.8094,73.413
2.7615,72.778
2.7038,72.24
2.6364,71.752
2.5591,71.312
2.4761,70.873
2.3881,70.433
2.2962,69.994
2.174,69.554
2.0381,69.066
1.9296,68.675
1.8387,68.235
1.7693,67.844
1.7146,67.405
1.6657,66.916
1.6237,66.428
1.5894,66.477
1.564,68.431
1.5455,73.51
1.5327,82.058
1.5239,92.657
1.5171,103.01
1.5103,111.66
1.5034,118.5
1.4956,123.92
1.4878,128.26
1.478,131.39
1.4643,133.2
1.4467,133.54
1.4272,132.81
1.4057,131.24
1.3832,129.19
1.3597,126.8
1.3353,124.16
1.3109,121.28
1.2893,118.25
1.2688,115.13
1.2532,111.76
1.2424,108.24
1.2317,104.62
1.2219,100.81
1.2131,96.907
1.2033,93.048
1.1926,89.482
1.1789,86.308
1.1623,83.67
1.1457,81.667
1.1349,80.251
1.1378,79.176
1.1652,78.492
1.2102,78.102
1.2815,78.004
1.3978,77.906
1.5543,78.053
1.741,78.199
1.9453,78.297
2.1496,78.444
2.3402,78.59
2.5064,78.688
2.6403,78.59
2.741,78.444
2.8113,78.102
2.8495,77.76
2.8641,77.223
2.8671,76.685
2.8573,76.099
2.8358,75.611
2.8035,74.976
2.7615,74.438
2.7087,73.852
2.6461,73.217
2.5738,72.68
2.4927,72.094
2.4047,71.557
2.3216,71.068
2.2395,70.531
2.1466,70.042
2.0499,69.554
1.9531,69.066
1.8592,68.479
1.7732,67.991
1.697,67.551
1.6334,67.063
1.5816,66.623
1.5415,66.184
1.5122,66.037
1.4917,67.063
1.479,70.531
1.4712,77.418
1.4653,87.138
1.4604,97.591
1.4565,107.07
1.4526,114.69
1.4477,120.94
1.4409,126.07
1.4311,130.12
1.4184,132.86
1.4027,134.22
1.3842,134.17
1.3675,133.2
1.3519,131.44
1.3324,129.19
1.3099,126.6
1.2864,123.82
1.263,120.74
1.2405,117.57
1.2199,114.1
1.2023,110.68
1.1867,107.07
1.172,103.35
1.1584,99.593
1.1457,95.783
1.1369,92.12
1.1281,88.799
1.1134,85.966
1.0948,83.816
1.0772,82.107
1.0655,80.886
1.0704,80.007
1.1026,79.421
1.1711,79.176
1.2815,79.03
1.434,79.127
1.6207,79.225
1.7996,79.372
1.9717,79.567
2.1613,79.616
2.3441,79.567
2.5034,79.421
2.6315,79.225
2.7273,78.883
2.7918,78.444
2.8289,77.858
2.8436,77.174
2.8397,76.441
2.8211,75.757
2.7898,74.976
2.7507,74.292
2.7048,73.608
2.6461,72.924
2.5777,72.24
2.4995,71.605
2.4125,70.97
2.3196,70.433
2.2229,69.945
2.1251,69.407
2.0293,68.968
1.9365,68.528
1.8495,68.089
1.7791,67.698
1.7214,67.258
1.6667,66.868
1.6188,66.477
1.5787,66.037
1.5474,65.695
1.523,65.744
1.5054,67.307
1.4917,71.557
1.48,79.176
1.4682,89.043
1.4565,99.3
1.4448,108.39
1.434,115.66
1.4233,121.62
1.4096,126.41
1.3939,130.17
1.3763,132.66
1.3568,133.74
1.3363,133.54
1.3148,132.51
1.2942,130.8
1.2727,128.7
1.2502,126.16
1.2287,123.43
1.2121,120.45
1.1984,117.23
1.1828,113.9
1.1652,110.49
1.1486,106.87
1.132,103.16
1.1144,99.447
1.0978,95.686
1.0802,92.071
1.0606,88.701
1.0391,85.721
1.0176,83.426
1.001,81.667
0.99707,80.349
1.0108,79.567
1.0508,79.03
1.1271,78.786
1.2454,78.737
1.4047,78.786
1.5973,78.932
1.8113,78.981
2.0323,79.03
2.2434,79.03
2.4311,79.03
2.5875,78.932
2.6979,78.688
2.7722,78.297
2.8299,77.858
2.868,77.223
2.8866,76.636
2.8886,75.904
2.8759,75.22
2.8504,74.487
2.8123,73.755
2.7634,73.071
2.7028,72.436
2.6315,71.752
2.5494,71.117
2.4692,70.482
2.3871,69.847
2.2942,69.261
2.1955,68.626
2.0958,67.991
1.999,67.356
1.9071,66.721
1.824,66.184
1.7507,65.598
1.6882,65.06
1.6373,64.474
1.5973,63.839
1.5689,63.546
1.5484,64.23
1.5298,67.258
1.5142,73.51
1.4995,82.742
1.4848,93.292
1.4712,103.16
1.4575,111.32
1.4418,117.81
1.4252,123.04
1.4076,127.24
1.3881,130.22
1.3656,131.93
1.347,132.22
1.3294,131.44
1.3089,129.97
1.2864,127.97
1.2639,125.63
1.2424,122.99
1.2219,120.16
1.2023,117.18
1.1848,114.05
1.1672,110.83
1.1496,107.36
1.132,103.74
1.1193,100.03
1.1075,96.321
1.0929,92.56
1.0743,89.043
1.0538,85.966
1.0323,83.475
1.0137,81.472
1.0029,80.055
1.0098,79.03
1.043,78.444
1.1134,78.102
1.2258,78.053
1.3822,78.199
1.5435,78.297
1.7146,78.492
1.9355,78.59
2.175,78.786
2.3939,78.883
2.5826,78.786
2.7361,78.688
2.8534,78.444
2.9365,78.004
2.9912,77.564
3.0205,76.978
3.0293,76.343
3.0205,75.757
2.9971,75.122
2.9638,74.438
2.9179,73.803
2.8602,73.168
2.7898,72.631
2.7067,72.045
2.6129,71.557
2.5103,71.068
2.4008,70.482
2.2874,69.994
2.173,69.407
2.0616,68.919
1.9677,68.382
1.8866,67.844
1.8065,67.356
1.7341,66.868
1.6716,66.379
1.6207,65.842
1.5816,65.793
1.5533,67.161
1.5347,71.361
1.523,79.225
1.5152,89.727
1.5083,100.57
1.5024,109.95
1.4966,117.37
1.4858,123.14
1.4702,127.68
1.4487,130.95
1.4213,132.95
1.3891,133.49
1.3548,132.86
1.3187,131.39
1.2815,129.39
1.2463,127.04
1.2131,124.41
1.1877,121.67
1.1672,118.74
1.1457,115.61
1.1251,112.39
1.1065,108.97
1.0899,105.5
1.0743,101.89
1.0596,98.128
1.0459,94.416
1.0303,90.948
1.0137,87.822
0.99511,85.282
0.97849,83.426
0.9697,82.009
0.97165,80.984
0.98729,80.3
1.0293,79.909
1.1085,79.762
1.2307,79.762
1.3949,79.811
1.5924,79.86
1.8113,80.007
2.0352,80.055
2.2473,80.104
2.436,80.055
2.5758,79.811
2.6764,79.469
2.7605,79.03
2.8211,78.541
2.8583,78.004
2.8749,77.418
2.8739,76.734
2.8583,76.05
2.8289,75.318
2.7869,74.634
2.7331,73.852
2.6676,73.217
2.5914,72.631
2.5152,72.045
2.436,71.557
2.3441,71.068
2.2444,70.629
2.1408,70.189
2.0371,69.749
1.9374,69.31
1.8446,68.919
1.7615,68.479
1.6901,68.186
1.6315,67.844
1.5846,67.405
1.5513,66.965
1.5279,66.819
1.5073,67.698
1.4888,70.97
1.4731,77.662
1.4585,87.382
1.4418,97.932
1.4233,107.51
1.4018,115.22
1.3783,121.48
1.3529,126.6
1.3265,130.66
1.3011,133.49
1.2815,134.86
1.2649,134.91
1.2444,133.98
1.2209,132.37
1.1975,130.22
1.174,127.73
1.1505,124.99
1.1281,122.06
1.1056,118.94
1.0831,115.66
1.0616,112.24
1.0411,108.73
1.0274,105.06
1.0176,101.3
1.0059,97.493
0.99413,93.732
0.98045,90.362
0.96579,87.48
0.95015,85.184
0.93646,83.426
0.9306,82.009
0.94135,80.984
0.97849,80.3
1.0508,79.909
1.1652,79.762
1.2942,79.762
1.4418,79.811
1.6295,80.007
1.8377,80.104
2.0459,80.251
2.2385,80.3
2.4027,80.153
2.5347,80.007
2.6325,79.665
2.6979,79.225
2.7351,78.688
2.7498,78.053
2.7458,77.32
2.7283,76.539
2.6999,75.66
2.6618,74.878
2.6139,74.194
2.5562,73.51
2.4897,72.875
2.4135,72.24
2.3294,71.654
2.2375,71.117
2.1408,70.531
2.0401,70.042
1.9394,69.603
1.8534,69.261
1.7781,68.87
1.7019,68.479
1.6305,68.089
1.567,67.747
1.5132,67.307
1.4692,66.819
1.434,66.379
1.4066,66.037
1.3842,66.526
1.3656,68.919
1.35,74.438
1.3372,83.182
1.3265,93.732
1.3148,103.94
1.3011,112.54
1.2845,119.42
1.2669,124.99
1.2463,129.53
1.2258,133
1.2043,135.1
1.1818,135.88
1.1603,135.44
1.1388,134.17
1.1173,132.32
1.1017,129.97
1.089,127.29
1.0714,124.41
1.0518,121.28
1.0323,118.06
1.0127,114.64
0.99609,110.97
0.98143,107.31
0.9697,103.55
0.9609,99.691
0.95406,95.93
0.94721,92.315
0.94428,88.994
0.94233,86.259
0.93744,84.061
0.93548,82.351
0.94135,81.13
0.96481,80.349
1.0166,79.909
1.1046,79.665
1.2307,79.616
1.3939,79.616
1.5846,79.762
1.7889,79.811
1.9912,79.909
2.1574,80.007
2.2942,79.909
2.4242,79.811
2.5337,79.469
2.6178,79.127
2.6774,78.59
2.7155,78.053
2.7351,77.369
2.738,76.685
2.7253,75.904
2.6979,75.171
2.6579,74.438
2.6109,73.755
2.5562,73.12
2.4888,72.533
2.4106,71.996
2.3236,71.41
2.2307,70.922
2.1349,70.433
2.0381,69.994
1.9443,69.554
1.8553,69.163
1.7742,68.724
1.7009,68.235
1.6373,67.747
1.5885,67.063
1.5494,66.379
1.5142,65.549
1.4829,64.865
1.4565,64.572
1.435,65.598
1.4154,69.31
1.3969,76.294
1.3783,85.966
1.3597,96.418
1.3412,105.85
1.3226,113.56
1.3089,119.77
1.2991,124.8
1.2874,128.95
1.2737,131.88
1.26,133.49
1.2444,133.74
1.2258,132.95
1.2043,131.29
1.1799,129.19
1.1711,126.6
1.1701,123.82
1.1564,120.74
1.1417,117.57
1.1281,114.25
1.1105,110.83
1.0919,107.16
1.0753,103.45
1.0616,99.593
1.0489,95.686
1.0362,91.925
1.0235,88.408
1.0108,85.477
0.99707,83.035
0.98534,81.228
0.9824,79.86
0.99218,78.981
1.0205,78.444
1.0762,78.199
1.1662,78.199
1.2923,78.248
1.4516,78.346
1.6334,78.59
1.825,78.786
2.0137,78.932
2.1857,78.981
2.3324,78.981
2.4497,78.786
2.5298,78.492
2.5816,78.102
2.6197,77.613
2.6422,77.027
2.65,76.49
2.6461,75.855
2.6305,75.22
2.6041,74.634
2.567,73.999
2.52,73.315
2.4624,72.631
2.3959,71.996
2.3206,71.41
2.2493,70.873
2.1789,70.384
2.0997,69.847
2.0166,69.359
1.9335,68.87
1.8534,68.382
1.7791,67.844
1.7126,67.405
1.6549,66.965
1.607,66.526
1.5689,66.037
1.5386,65.598
1.5181,65.744
1.5044,67.698
1.4927,72.68
1.4829,81.277
1.4751,92.071
1.4673,102.62
1.4594,111.51
1.4506,118.5
1.4399,124.16
1.4262,128.7
1.4106,132.07
1.3939,134.13
1.3763,134.81
1.3617,134.32
1.35,132.95
1.3363,131
1.3226,128.56
1.3079,125.82
1.2933,122.75
1.2786,119.47
1.2639,116.1
1.2483,112.68
1.2326,109.07
1.217,105.41
1.2014,101.6
1.1906,97.737
1.1818,93.927
1.1701,90.362
1.1564,87.284
1.1408,84.793
1.1251,82.937
1.1134,81.57
1.1114,80.593
1.1271,80.007
1.1691,79.616
1.2444,79.421
1.3539,79.421
1.4956,79.421
1.6364,79.567
1.7791,79.762
1.9433,79.811
2.1075,79.86
2.2561,79.811
2.3812,79.616
2.478,79.225
2.5474,78.786
2.5914,78.248
2.6149,77.613
2.6227,76.978
2.6158,76.294
2.5992,75.611
2.5748,74.878
2.5425,74.194
2.5015,73.413
2.4526,72.68
2.3959,71.947
2.3314,71.166
2.261,70.482
2.1848,69.945
2.1036,69.407
2.0225,68.968
1.9423,68.626
1.8661,68.186
1.8025,67.796
1.7488,67.503
1.696,67.161
1.6471,66.868
1.6061,66.623
1.5728,66.281
1.5464,65.988
1.5269,66.135
1.5122,67.6
1.5015,71.947
1.4917,79.811
1.4829,90.117
1.4761,100.72
1.4702,109.95
1.4604,117.32
1.4467,123.23
1.4301,128.17
1.4106,131.93
1.3881,134.42
1.3627,135.44
1.3363,135.25
1.3089,133.98
1.2825,131.98
1.2561,129.53
1.2307,126.75
1.2111,123.67
1.1965,120.5
1.1789,117.18
1.1632,113.76
1.1486,110.24
1.1359,106.63
1.1251,102.87
1.1163,99.007
1.1075,95.246
1.0987,91.632
1.089,88.408
1.0772,85.819
1.0704,83.719
1.0674,82.156
1.0684,81.032
1.0821,80.251
1.1173,79.762
1.1838,79.421
1.2854,79.372
1.4233,79.372
1.5894,79.469
1.7752,79.665
1.9668,79.811
2.1505,79.909
2.3167,80.007
2.4418,79.909
2.5347,79.762
2.6139,79.421
2.6725,78.932
2.7107,78.297
2.7302,77.613
2.7331,76.929
2.7234,76.197
2.7009,75.464
2.6686,74.731
2.6276,73.999
2.5767,73.315
2.523,72.533
2.4653,71.947
2.3949,71.215
2.3157,70.677
2.2307,70.091
2.1437,69.603
2.0557,69.114
1.9707,68.675
1.8905,68.235
1.8192,67.844
1.7586,67.405
1.7067,67.063
1.6647,66.623
1.6354,66.184
1.6149,65.744
1.5973,65.305
1.5846,65.402
1.5748,67.063
1.566,71.508
1.5562,79.225
1.5464,89.238
1.5347,99.544
1.522,108.63
1.5073,115.91
1.4917,121.91
1.478,126.95
1.4643,130.85
1.4457,133.54
1.4262,134.81
1.4037,134.81
1.3803,133.78
1.3558,131.98
1.3314,129.68
1.3069,127.04
1.2845,124.16
1.2639,121.13
1.2463,117.86
1.2317,114.54
1.2219,111.07
1.216,107.36
1.2092,103.6
1.2014,99.74
1.1935,95.93
1.1838,92.315
1.173,88.945
1.1603,86.063
1.1457,83.67
1.1339,81.814
1.13,80.495
1.1427,79.567
1.172,78.981
1.2248,78.688
1.3157,78.541
1.4448,78.59
1.608,78.688
1.7957,78.786
1.9941,78.883
2.1887,78.932
2.3685,78.932
2.5239,78.883
2.651,78.737
2.7488,78.444
2.8113,78.004
2.8475,77.369
2.8729,76.734
2.8847,76.05
2.8817,75.366
2.8661,74.634
2.8377,73.901
2.7801,73.217
2.7204,72.533
2.6716,71.947
2.6061,71.312
2.5298,70.726
2.4457,70.091
2.3675,69.603
2.2913,69.114
2.2082,68.675
2.1398,68.186
2.0821,67.747
2.0176,67.307
1.955,66.819
1.8983,66.233
1.8495,65.793
1.8084,65.353
1.7752,64.914
1.7478,64.67
1.7273,65.256
1.7126,67.6
1.6979,73.12
1.6843,81.57
1.6716,91.632
1.6588,101.16
1.6452,109.26
1.6305,115.76
1.6139,121.13
1.5953,125.48
1.5748,128.85
1.5533,131
1.5298,131.73
1.5103,131.44
1.4917,130.17
1.4702,128.31
1.4457,125.97
1.4203,123.38
1.3949,120.5
1.3705,117.42
1.346,114.2
1.3236,110.83
1.303,107.26
1.2845,103.55
1.2688,99.74
1.259,95.881
1.2522,92.071
1.2424,88.506
1.2297,85.282
1.2151,82.693
1.2004,80.593
1.1887,79.127
1.1867,78.053
1.2053,77.369
1.2522,76.978
1.3353,76.881
1.4575,76.929
1.6158,77.125
1.7742,77.32
1.9365,77.467
2.1261,77.662
2.3196,77.662
2.5024,77.662
2.6618,77.564
2.7908,77.369
2.8895,76.978
2.9599,76.49
3.0049,75.904
3.0274,75.318
3.0323,74.683
3.0225,73.999
3.001,73.364
2.9707,72.729
2.9296,72.192
2.8778,71.605
2.8162,71.068
2.7439,70.482
2.6628,69.945
2.5738,69.407
2.48,68.919
2.3832,68.479
2.2854,68.04
2.1906,67.6
2.1085,67.161
2.0371,66.672
1.9658,66.233
1.9013,65.793
1.8456,65.402
1.7986,64.914
1.7605,64.572
1.7312,64.621
1.7077,66.281
1.6891,70.97
1.6745,79.176
1.6618,89.678
1.652,100.23
1.6432,109.12
1.6334,116.1
1.6217,121.62
1.607,125.92
1.5885,129.05
1.565,130.8
1.5376,131.29
1.5064,130.61
1.4741,129.09
1.4399,127.04
1.4037,124.75
1.3685,122.11
1.3412,119.33
1.3177,116.3
1.2913,113.17
1.2659,110
1.2414,106.63
1.2209,103.16
1.2053,99.544
1.1926,95.881
1.1818,92.218
1.173,88.799
1.1632,85.819
1.1525,83.279
1.1457,81.423
1.1437,80.055
1.1466,79.03
1.1632,78.346
1.2053,78.004
1.2815,77.809
1.3988,77.809
1.5572,77.858
1.7507,78.004
1.9668,78.199
2.2385,78.346
2.478,78.492
2.6354,78.492
2.7634,78.346
2.8622,78.102
2.9501,77.809
3.0166,77.369
3.0606,76.783
3.0841,76.197
3.089,75.562
3.0772,74.927
3.0518,74.243
3.0127,73.559
2.9619,72.778
2.9003,72.045
2.8358,71.361
2.7674,70.726
2.6882,70.091
2.6012,69.505
2.5083,68.87
2.4135,68.284
2.3196,67.796
2.2287,67.307
2.1427,66.868
2.0635,66.379
1.9932,65.94
1.9316,65.549
1.8798,65.158
1.8397,64.816
1.8084,64.425
1.781,64.474
1.7586,65.988
1.741,70.287
1.7253,78.053
1.7126,88.261
1.7009,98.665
1.6901,107.6
1.6794,114.78
1.6676,120.5
1.6549,125.14
1.6422,128.61
1.6305,130.8
1.6149,131.63
1.5973,131.29
1.5777,130.07
1.5562,128.17
1.5327,125.92
1.5083,123.38
1.4829,120.5
1.4575,117.47
1.4321,114.3
1.4076,111.07
1.3842,107.75
1.3675,104.18
1.3539,100.57
1.3392,96.858
1.3245,93.243
1.3089,89.727
1.2923,86.747
1.2737,84.256
1.2551,82.351
1.2395,80.935
1.2317,79.811
1.2414,79.03
1.2796,78.59
1.3372,78.346
1.4223,78.297
1.5552,78.297
1.7292,78.346
1.9326,78.492
2.1496,78.59
2.3627,78.688
2.5591,78.688
2.7273,78.541
2.8622,78.297
2.9638,77.906
3.0332,77.369
3.0694,76.783
3.0821,76.197
3.0821,75.562
3.0694,74.878
3.044,74.097
3.0078,73.364
2.9609,72.729
2.9032,72.045
2.8358,71.361
2.7576,70.726
2.6706,70.091
2.5767,69.554
2.478,69.066
2.3881,68.528
2.303,68.089
2.2131,67.747
2.1232,67.307
2.0391,66.819
1.9629,66.379
1.8964,65.988
1.8407,65.598
1.7937,65.256
1.7556,64.816
1.7253,64.474
1.7009,65.012
1.6833,67.405
1.6696,73.071
1.6549,81.716
1.6403,91.973
1.6266,101.69
1.6119,109.75
1.5963,116.2
1.5806,121.48
1.563,125.82
1.5455,128.95
1.5269,130.76
1.5064,131.24
1.4839,130.76
1.4643,129.44
1.4457,127.53
1.4233,125.29
1.3988,122.75
1.3734,119.86
1.35,116.88
1.3275,113.76
1.3079,110.44
1.2893,106.92
1.2737,103.35
1.26,99.74
1.2473,96.125
1.2385,92.511
1.2268,89.043
1.2131,85.966
1.2014,83.475
1.1857,81.57
1.172,80.055
1.1662,78.981
1.1789,78.297
1.2209,77.858
1.3011,77.613
1.392,77.613
1.5073,77.613
1.6804,77.613
1.8563,77.662
2.0303,77.662
2.2258,77.76
2.4154,77.613
2.5836,77.467
2.7204,77.174
2.825,76.734
2.8983,76.246
2.9423,75.611
2.9638,74.927
2.9648,74.243
2.9492,73.51
2.9208,72.778
2.8827,72.094
2.8328,71.557
2.7703,70.922
2.697,70.287
2.6139,69.749
2.522,69.163
2.4233,68.675
2.3206,68.186
2.216,67.796
2.1134,67.405
2.0147,67.063
1.9218,66.623
1.8446,66.184
1.7801,65.744
1.7175,65.305
1.6618,64.865
1.6149,64.425
1.5777,63.986
1.5474,64.132
1.5239,65.695
1.5054,70.042
1.4897,77.613
1.4761,87.48
1.4624,97.493
1.4516,106.24
1.4428,113.32
1.4301,118.89
1.4154,123.38
1.3978,126.8
1.3783,129.05
1.3587,130.07
1.3382,129.88
1.3167,128.75
1.2952,126.99
1.2727,124.8
1.2493,122.26
1.2268,119.42
1.2092,116.35
1.1945,113.12
1.1769,109.66
1.1574,106.19
1.1388,102.47
1.1202,98.812
1.1017,95.099
1.0831,91.436
1.0655,87.968
1.0469,84.842
1.0293,82.253
1.0127,80.104
1.002,78.492
1,77.223
1.0098,76.49
1.0411,76.001
1.1056,75.806
1.2111,75.66
1.3587,75.757
1.5445,75.855
1.7556,76.001
1.9785,76.05
2.1965,76.099
2.3949,76.05
2.565,75.904
2.6872,75.757
2.7722,75.464
2.8407,75.073
2.8876,74.536
2.912,73.999
2.9189,73.315
2.9081,72.68
2.8837,72.045
2.8465,71.508
2.7967,70.922
2.7351,70.433
2.6628,69.994
2.5894,69.505
2.5122,68.968
2.4213,68.431
2.3226,67.942
2.219,67.503
2.1124,66.965
2.0078,66.477
1.9081,65.988
1.8152,65.5
1.7312,65.012
1.6588,64.572
1.5982,64.132
1.5484,63.693
1.5122,63.351
1.4868,63.742
1.4663,66.037
1.4497,71.557
1.437,80.349
1.4282,90.85
1.4203,101.01
1.4125,109.31
1.4037,115.86
1.393,120.94
1.3803,124.85
1.3636,127.53
1.348,129
1.3333,129.19
1.3138,128.36
1.2903,126.8
1.259,124.85
1.2307,122.6
1.2102,120.11
1.1867,117.37
1.1642,114.44
1.1427,111.41
1.1241,108.19
1.1075,104.82
1.0929,101.25
1.0831,97.591
1.0762,93.976
1.0674,90.362
1.0557,86.991
1.0411,84.11
1.0235,81.814
1.0059,80.055
0.99022,78.737
0.98534,77.809
1,77.174
1.0459,76.881
1.132,76.783
1.2375,76.783
1.3695,76.929
1.5494,77.125
1.7605,77.369
1.9834,77.564
2.2004,77.662
2.3959,77.613
2.5611,77.467
2.6911,77.32
2.7869,76.929
2.8504,76.49
2.8876,76.001
2.9013,75.366
2.8964,74.731
2.8759,74.048
2.8436,73.364
2.7996,72.68
2.7439,71.996
2.6764,71.361
2.5982,70.824
2.5112,70.238
2.4164,69.652
2.3167,69.163
2.2121,68.675
2.1056,68.186
2.0127,67.747
1.9277,67.258
1.8397,66.868
1.7566,66.428
1.6813,65.988
1.6158,65.5
1.5621,64.914
1.5191,64.572
1.4848,64.914
1.4585,67.307
1.4379,72.973
1.4203,81.912
1.4076,92.413
1.3969,102.23
1.3832,110.24
1.3675,116.54
1.35,121.48
1.3304,125.29
1.3089,127.87
1.2864,129.19
1.263,129.24
1.2375,128.41
1.2111,126.95
1.1838,124.99
1.1584,122.75
1.1398,120.25
1.1241,117.47
1.1046,114.64
1.085,111.56
1.0665,108.39
1.0489,105.11
1.0342,101.69
1.0225,98.177
1.0108,94.562
0.99902,91.045
0.98729,87.871
0.97361,85.135
0.96285,82.937
0.95308,81.179
0.94233,79.909
0.93939,78.932
0.95503,78.297
1.001,77.858
1.085,77.662
1.2141,77.613
1.3861,77.613
1.5934,77.662
1.8221,77.809
2.0557,77.906
2.2766,77.906
2.4526,77.858
2.5894,77.76
2.7116,77.418
2.8084,76.978
2.8759,76.49
2.9159,75.855
2.9326,75.22
2.9286,74.634
2.9091,73.901
2.8759,73.217
2.8309,72.631
2.7732,71.996
2.7116,71.361
2.6432,70.824
2.5611,70.238
2.4682,69.652
2.3666,69.261
2.2581,68.821
2.1466,68.382
2.0362,67.942
1.9316,67.551
1.8348,67.112
1.7478,66.672
1.6725,66.233
1.61,65.793
1.565,65.305
1.5327,64.914
1.5044,64.865
1.4809,66.184
1.4614,69.994
1.4438,77.125
1.4282,86.796
1.4076,97.004
1.3891,105.99
1.3754,113.17
1.3597,118.89
1.3431,123.43
1.3294,126.95
1.3157,129.24
1.2981,130.22
1.2786,130.07
1.2727,129.05
1.2727,127.39
1.261,125.29
1.2434,122.94
1.2219,120.3
1.2004,117.47
1.1789,114.49
1.1574,111.32
1.1369,107.99
1.1222,104.58
1.1114,101.01
1.0978,97.346
1.0841,93.683
1.0694,90.117
1.0538,86.796
1.0371,83.914
1.0186,81.618
1.002,79.909
0.9912,78.737
0.99413,77.906
1.0225,77.418
1.0714,77.223
1.1496,77.174
1.2737,77.223
1.4409,77.369
1.6413,77.467
1.8612,77.564
2.0831,77.613
2.2933,77.564
2.479,77.418
2.6334,77.125
2.7537,76.734
2.8397,76.246
2.8964,75.66
2.9238,75.073
2.9296,74.292
2.9208,73.608
2.8983,72.875
2.8622,72.24
2.8123,71.557
2.7498,70.873
2.6755,70.287
2.5904,69.749
2.4966,69.31
2.3969,68.821
2.2913,68.382
2.1955,67.942
2.1056,67.405
2.0078,66.965
1.9101,66.526
1.8172,66.184
1.7331,65.793
1.6588,65.353
1.5963,64.914
1.5435,64.425
1.5015,64.035
1.4682,64.377
1.4418,66.477
1.4213,71.557
1.4066,79.762
1.3949,89.678
1.3803,99.447
1.3627,107.75
1.3441,114.34
1.3236,119.62
1.3021,123.72
1.2815,126.85
1.262,128.75
1.2434,129.39
1.2248,128.95
1.2053,127.68
1.1916,125.87
1.1799,123.72
1.1642,121.23
1.1466,118.5
1.1281,115.57
1.1085,112.49
1.0899,109.31
1.0733,105.94
1.0577,102.43
1.043,98.812
1.0303,95.197
1.0186,91.632
1.0059,88.164
0.99707,85.135
0.99022,82.547
0.97947,80.495
0.96774,78.883
0.96285,77.613
0.97263,76.734
1.0078,76.197
1.0802,75.855
1.1945,75.611
1.3509,75.562
1.5435,75.562
1.7605,75.562
1.957,75.611
2.1369,75.562
2.3236,75.464
2.4966,75.366
2.6422,75.122
2.7546,74.731
2.8338,74.292
2.8847,73.755
2.9101,73.12
2.915,72.485
2.9013,71.85
2.8719,71.312
2.8289,70.726
2.7791,70.189
2.7214,69.652
2.65,69.261
2.5679,68.821
2.4761,68.382
2.3773,67.942
2.2737,67.551
2.1672,67.112
2.0616,66.672
1.9599,66.184
1.8456,65.744
1.7498,65.256
1.694,64.816
1.6452,64.377
1.5953,63.839
1.5503,63.448
1.5122,63.107
1.48,63.693
1.4516,66.184
1.4262,71.85
1.4027,80.739
1.3803,91.192
1.3578,101.11
1.3372,109.31
1.3177,115.66
1.304,120.6
1.2933,124.41
1.2805,126.99
1.2669,128.26
1.2522,128.31
1.2366,127.43
1.2199,125.87
1.2033,124.02
1.1857,121.72
1.1662,119.23
1.1457,116.49
1.1261,113.56
1.1114,110.53
1.1007,107.36
1.088,104.04
1.0762,100.62
1.0655,97.053
1.0577,93.439
1.0508,89.873
1.045,86.552
1.0371,83.67
1.0274,81.423
1.0156,79.665
1.0049,78.346
1.0029,77.467
1.0156,76.929
1.0508,76.636
1.1202,76.539
1.2336,76.49
1.393,76.539
1.5914,76.685
1.8162,76.783
2.0528,76.929
2.2825,76.929
2.4907,76.881
2.6667,76.685
2.8045,76.441
2.8954,76.099
2.9501,75.757
2.9883,75.22
3.0068,74.683
3.0068,74.048
2.9902,73.413
2.9589,72.778
2.915,72.24
2.8592,71.605
2.7928,71.068
2.7165,70.433
2.6305,69.847
2.5464,69.31
2.4614,68.821
2.3646,68.235
2.262,67.747
2.1574,67.258
2.0547,66.721
1.957,66.281
1.8671,65.842
1.7869,65.5
1.7175,65.109
1.6598,64.67
1.6129,64.181
1.5758,64.035
1.5503,65.158
1.5318,69.066
1.5161,76.49
1.5024,86.698
1.4917,97.444
1.4809,106.72
1.4702,114
1.4585,119.47
1.4467,123.72
1.433,126.8
1.4174,128.7
1.4008,129.24
1.3871,128.7
1.3744,127.39
1.3578,125.58
1.3402,123.43
1.3226,120.99
1.305,118.45
1.2893,115.61
1.2737,112.68
1.259,109.66
1.2444,106.48
1.2297,103.26
1.2151,99.74
1.2004,96.174
1.1896,92.56
1.1799,88.994
1.1662,85.819
1.1476,83.133
1.1261,81.032
1.1036,79.469
1.087,78.444
1.0841,77.662
1.1065,77.223
1.1652,77.027
1.2678,76.978
1.4174,77.027
1.5777,77.223
1.7517,77.418
1.9658,77.613
2.1935,77.76
2.4135,77.662
2.6109,77.564
2.7761,77.369
2.9042,76.978
2.9951,76.539
3.0538,76.001
3.085,75.366
3.0948,74.683
3.087,74.048
3.0635,73.364
3.0137,72.778
2.9609,72.192
2.9169,71.605
2.8553,71.068
2.7791,70.531
2.6901,70.042
2.5914,69.603
2.4848,69.114
2.3724,68.626
2.2493,68.089
2.1251,67.698
2.0264,67.258
1.9443,66.819
1.8651,66.379
1.7947,65.988
1.7351,65.695
1.6872,65.305
1.6491,64.865
1.6217,64.865
1.6022,66.037
1.5885,69.749
1.5787,76.734
1.5709,86.356
1.564,96.565
1.5582,105.5
1.5533,112.68
1.5445,118.25
1.5327,122.75
1.5191,126.12
1.5024,128.31
1.4839,129.24
1.4624,129.05
1.4399,128.07
1.4174,126.51
1.3949,124.41
1.3724,122.11
1.3548,119.47
1.3412,116.79
1.3255,113.9
1.3089,110.92
1.2933,107.7
1.2776,104.28
1.2639,100.72
1.2522,97.102
1.2424,93.536
1.2326,90.069
1.2229,86.943
1.2121,84.305
1.2004,82.253
1.1926,80.69
1.1887,79.469
1.1916,78.737
1.2102,78.297
1.2542,78.004
1.3324,77.76
1.4497,77.613
1.6031,77.564
1.7849,77.467
1.9844,77.467
2.1867,77.418
2.3783,77.369
2.5288,77.174
2.6452,76.929
2.7498,76.49
2.8319,76.001
2.8886,75.366
2.9228,74.731
2.9365,74.048
2.9316,73.413
2.912,72.729
2.8798,72.045
2.8368,71.41
2.783,70.726
2.7195,70.091
2.653,69.554
2.5826,69.066
2.4995,68.528
2.4076,68.089
2.3109,67.698
2.2121,67.307
2.1153,66.916
2.0225,66.526
1.9355,66.135
1.8563,65.695
1.7869,65.256
1.7283,64.816
1.6833,64.425
1.6491,63.986
1.6178,63.595
1.5914,63.79
1.5699,65.5
1.5523,69.994
1.5347,77.76
1.52,87.626
1.5093,97.591
1.4966,106.19
1.4809,113.07
1.4633,118.45
1.4428,122.7
1.4252,125.82
1.4096,127.73
1.39,128.51
1.3695,128.17
1.349,127.14
1.3284,125.58
1.3079,123.58
1.2893,121.23
1.2717,118.59
1.2542,115.81
1.2366,112.78
1.219,109.56
1.2063,106.19
1.1955,102.67
1.1818,99.105
1.1681,95.441
1.1535,91.778
1.1388,88.408
1.1241,85.379
1.1085,82.84
1.0919,80.886
1.0772,79.372
1.0694,78.297
1.0753,77.613
1.0978,77.223
1.1447,76.978
1.2297,76.929
1.3568,76.881
1.522,76.881
1.7742,76.881
2.0147,76.783
2.1857,76.685
2.3646,76.539
2.5279,76.343
2.6637,76.05
2.7683,75.66
2.8416,75.122
2.8827,74.487
2.9013,73.755
2.9071,72.973
2.9003,72.192
2.87,71.361
2.8338,70.629
2.8006,69.847
2.7507,69.163
2.6862,68.479
2.61,67.844
2.523,67.258
2.4272,66.623
2.3363,66.037
2.2483,65.549
2.1505,65.158
2.0508,64.816
1.9541,64.425
1.8641,64.035
1.7849,63.595
1.7165,63.155
1.652,62.814
1.6022,62.374
1.5718,61.983
1.5474,61.934
1.5279,62.911
1.5142,66.428
1.5044,73.168
1.4956,82.742
1.4858,93.048
1.4751,102.38
1.4633,109.8
1.4477,115.66
1.4282,120.16
1.4047,123.58
1.3763,125.82
1.3451,126.8
1.3099,126.6
1.2815,125.63
1.26,124.06
1.2346,122.11
1.2023,119.86
1.174,117.37
1.1544,114.64
1.1349,111.61
1.1163,108.53
1.0987,105.26
1.0841,101.79
1.0723,98.177
1.0626,94.367
1.0547,90.557
1.0518,86.796
1.0499,83.377
1.0401,80.495
1.0274,78.248
1.0186,76.539
1.0147,75.318
1.0176,74.487
1.0381,74.048
1.088,73.901
1.175,73.999
1.3587,74.097
1.5543,74.341
1.6804,74.634
1.8299,74.878
2.0147,75.122
2.2053,75.318
2.3812,75.366
2.5455,75.415
2.6784,75.318
2.7537,75.171
2.7947,74.927
2.8123,74.536
2.8084,74.097
2.7996,73.657
2.7849,73.168
2.7449,72.631
2.6862,71.947
2.6422,71.166
2.6022,70.287
2.5239,69.359
2.4203,68.431
2.3187,67.503
2.2434,66.477
2.1535,65.5
2.0303,64.572
1.9198,63.546
1.8289,62.618
1.7527,61.69
1.6764,60.86
1.607,60.127
1.5484,59.346
1.5015,58.613
1.4653,57.88
1.4399,57.343
1.4242,57.88
1.4164,60.713
1.4125,67.307
1.4115,77.467
1.4115,89.043
1.4115,99.349
1.4115,107.31
1.4086,113.17
1.4018,117.76
1.391,121.38
1.3754,124.06
1.3568,125.63
1.3343,126.12
1.3109,125.72
1.2864,124.8
1.262,123.48
1.2395,121.72
1.2229,119.67
1.2102,117.23
1.1955,114.54
1.1799,111.56
1.1662,108.39
1.1525,105.01
1.1398,101.35
1.1281,97.493
1.1134,93.536
1.0958,89.678
1.0733,86.063
1.0459,82.937
1.0156,80.446
0.9912,78.541
0.97654,77.32
0.97165,76.343
0.99218,75.806
1.0626,75.415
1.1838,75.318
1.3441,75.22
1.5406,75.318
1.7625,75.415
1.9941,75.562
2.219,75.757
2.4213,75.806
2.5738,75.757
2.6872,75.611
2.783,75.415
2.8534,75.073
2.8974,74.634
2.9179,73.999
2.9189,73.364
2.9042,72.68
2.8749,72.045
2.8328,71.361
2.7791,70.726
2.7155,70.189
2.6413,69.603
2.5679,69.114
2.4917,68.626
2.4027,68.235
2.306,67.942
2.2053,67.6
2.1046,67.307
2.0068,66.965
1.914,66.623
1.828,66.379
1.7517,66.135
1.6852,65.842
1.6285,65.402
1.5855,65.012
1.5523,64.67
1.521,65.305
1.4927,68.089
1.4682,74.097
1.4457,82.986
1.4252,92.853
1.4057,101.74
1.3881,108.87
1.3715,114.44
1.3558,118.89
1.3402,122.35
1.3255,124.85
1.3138,126.31
1.304,126.7
1.2903,126.12
1.2747,124.85
1.2571,123.14
1.2385,120.99
1.218,118.54
1.1955,115.81
1.172,112.88
1.1496,109.66
1.1271,106.38
1.1056,102.82
1.089,99.154
1.0772,95.539
1.0645,91.925
1.0508,88.506
1.0381,85.379
1.0244,82.791
1.0108,80.739
1,79.225
0.99804,78.102
1.0117,77.223
1.0508,76.636
1.1222,76.197
1.2317,75.855
1.3519,75.66
1.4878,75.611
1.6588,75.562
1.8456,75.464
2.0332,75.415
2.2072,75.22
2.3568,75.122
2.477,74.927
2.5679,74.78
2.6295,74.487
2.6657,74.194
2.6804,73.803
2.6774,73.413
2.6618,73.12
2.6364,72.729
2.6002,72.289
2.5552,71.801
2.5005,71.312
2.4379,70.824
2.3685,70.238
2.2913,69.652
2.2072,69.163
2.1183,68.675
2.0274,68.235
1.9472,67.6
1.8739,66.965
1.7967,66.428
1.7214,65.842
1.652,65.353
1.5894,64.865
1.5367,64.279
1.4927,63.839
1.4585,64.035
1.4321,65.842
1.4135,70.531
1.3998,78.346
1.39,88.164
1.3851,97.932
1.3822,106.28
1.3773,112.93
1.3705,118.2
1.3607,122.45
1.348,125.68
1.3333,127.92
1.3167,128.95
1.2972,128.85
1.2757,127.97
1.2551,126.51
1.2356,124.5
1.2209,122.16
1.2092,119.47
1.1935,116.54
1.1769,113.32
1.1603,109.85
1.1427,106.28
1.1241,102.62
1.1056,98.812
1.087,95.051
1.0684,91.29
1.0489,87.919
1.0283,84.94
1.0068,82.547
0.99218,80.739
0.98338,79.372
0.98143,78.297
0.99609,77.613
1.0371,77.223
1.1124,77.027
1.2248,76.978
1.3705,76.978
1.5425,76.978
1.7273,76.978
1.913,76.978
2.086,77.027
2.2219,77.027
2.3275,76.929
2.4223,76.636
2.4966,76.246
2.5494,75.806
2.5816,75.318
2.5953,74.731
2.5943,74.097
2.5806,73.51
2.5562,72.875
2.522,72.24
2.477,71.654
2.4203,71.068
2.3617,70.433
2.2991,69.847
2.2229,69.31
2.1378,68.821
2.0459,68.284
1.9521,67.747
1.8592,67.161
1.7713,66.672
1.6911,66.184
1.6197,65.695
1.5601,65.158
1.5112,64.718
1.478,64.67
1.4545,65.793
1.435,69.505
1.4213,76.343
1.4115,85.673
1.4037,95.637
1.3978,104.38
1.391,111.41
1.3822,116.98
1.3705,121.57
1.3558,125.19
1.3392,127.83
1.3196,129.24
1.303,129.53
1.2884,128.85
1.2698,127.48
1.2512,125.68
1.2326,123.38
1.2151,120.79
1.1984,117.86
1.1828,114.78
1.1681,111.51
1.1544,108.04
1.1408,104.48
1.1271,100.81
1.1183,97.102
1.1124,93.341
1.1017,89.824
1.087,86.503
1.0684,83.621
1.0489,81.374
1.0323,79.567
1.0254,78.248
1.0362,77.32
1.0733,76.734
1.1437,76.343
1.2483,76.197
1.3861,76.05
1.5259,76.05
1.6686,76.05
1.8328,76.05
2,76.05
2.1564,76.05
2.2903,76.001
2.3988,75.806
2.4809,75.562
2.5367,75.171
2.5709,74.731
2.5875,74.243
2.5894,73.755
2.5797,73.168
2.5611,72.68
2.5337,72.094
2.4976,71.557
2.4526,70.97
2.3988,70.384
2.3372,69.749
2.2678,69.163
2.1916,68.528
2.1105,67.991
2.0264,67.356
1.9404,66.721
1.8573,66.135
1.7879,65.5
1.7273,65.012
1.6676,64.474
1.6129,63.986
1.565,63.693
1.5269,64.377
1.4985,67.161
1.477,73.315
1.4604,82.351
1.4467,92.608
1.433,101.99
1.4194,109.56
1.4086,115.42
1.3988,120.16
1.3842,124.02
1.3666,126.95
1.346,128.8
1.3245,129.39
1.3021,128.85
1.2796,127.53
1.2581,125.63
1.2385,123.28
1.2209,120.69
1.2131,117.86
1.2111,114.78
1.2072,111.51
1.2033,108.09
1.1965,104.48
1.1867,100.86
1.176,97.2
1.1623,93.439
1.1457,89.824
1.1251,86.405
1.1017,83.426
1.0772,80.984
1.0557,79.03
1.045,77.613
1.0479,76.636
1.0704,76.001
1.1193,75.611
1.2014,75.464
1.3187,75.464
1.4653,75.611
1.6325,75.757
1.8074,75.904
1.9775,76.05
2.1329,76.099
2.2659,76.099
2.3734,76.05
2.4545,75.806
2.5064,75.464
2.5357,75.122
2.5543,74.683
2.5601,74.243
2.5543,73.657
2.5376,73.168
2.5103,72.68
2.4721,72.094
2.4262,71.605
2.3715,71.117
2.3089,70.677
2.2395,70.189
2.174,69.749
2.1095,69.163
2.0352,68.675
1.957,68.089
1.8778,67.551
1.8025,67.063
1.7322,66.526
1.6676,66.037
1.6119,65.5
1.565,65.256
1.5269,66.184
1.4966,69.603
1.4761,76.539
1.4614,86.308
1.4487,96.662
1.437,105.7
1.4262,112.78
1.4174,118.45
1.4086,122.94
1.3998,126.56
1.391,129.19
1.3812,130.61
1.3705,130.8
1.3597,129.93
1.35,128.31
1.3431,126.07
1.3363,123.43
1.3265,120.55
1.3148,117.42
1.3001,114.2
1.2825,110.83
1.2639,107.26
1.2454,103.55
1.2278,99.789
1.2111,95.979
1.1955,92.218
1.1789,88.75
1.1672,85.575
1.1574,82.937
1.1447,80.788
1.1329,79.176
1.1281,78.004
1.1378,77.027
1.1701,76.441
1.2326,76.05
1.3265,75.904
1.4506,75.904
1.5982,76.099
1.7576,76.294
1.9189,76.539
2.0518,76.734
2.1603,76.783
2.261,76.734
2.3421,76.636
2.4018,76.343
2.4409,76.001
2.4614,75.562
2.4682,75.073
2.4633,74.487
2.4497,73.999
2.4282,73.413
2.3988,72.778
2.3666,72.24
2.3284,71.605
2.2796,71.068
2.2229,70.482
2.1584,69.994
2.089,69.505
2.0156,69.066
1.9404,68.528
1.8651,68.04
1.7928,67.503
1.7253,66.965
1.6647,66.477
1.6109,66.037
1.5709,65.549
1.5406,65.158
1.5122,65.305
1.4868,67.063
1.4663,71.654
1.4516,79.567
1.4409,89.434
1.433,99.154
1.4272,107.41
1.4203,113.9
1.4125,119.33
1.4027,123.82
1.3949,127.48
1.3861,130.17
1.3724,131.54
1.3558,131.68
1.3382,130.8
1.3206,129.05
1.303,126.8
1.2854,124.02
1.2669,120.94
1.2493,117.57
1.2326,114.05
1.217,110.39
1.2033,106.63
1.1945,102.72
1.1887,98.86
1.1799,95.002
1.1701,91.192
1.1584,87.675
1.1457,84.598
1.132,82.107
1.1183,80.055
1.1105,78.541
1.1134,77.467
1.1359,76.783
1.1838,76.343
1.2463,76.099
1.3284,76.05
1.4438,76.099
1.5806,76.197
1.7302,76.246
1.8807,76.343
2.0215,76.441
2.1447,76.49
2.2454,76.49
2.3226,76.294
2.3773,76.05
2.4135,75.66
2.4321,75.22
2.437,74.731
2.4311,74.194
2.4164,73.608
2.393,72.973
2.3597,72.436
2.3177,71.801
2.2659,71.215
2.2063,70.677
2.1388,70.189
2.0665,69.652
1.9912,69.163
1.915,68.724
1.8495,68.235
1.7908,67.698
1.7283,67.112
1.6676,66.526
1.6129,65.988
1.566,65.5
1.5269,65.012
1.4966,64.474
1.4731,64.377
1.4555,65.598
1.4428,69.407
1.433,76.49
1.4252,85.966
1.4203,95.979
1.4174,104.72
1.4125,111.76
1.4047,117.42
1.3969,122.11
1.3871,126.12
1.3754,129.19
1.3627,131.05
1.35,131.54
1.3363,130.95
1.3226,129.39
1.3079,127.04
1.2981,124.26
1.2893,121.04
1.2786,117.62
1.2659,114.05
1.2532,110.39
1.2405,106.63
1.2268,102.72
1.2131,98.812
1.1994,94.806
1.1838,90.997
1.1672,87.382
1.1486,84.158
1.129,81.57
1.1153,79.421
1.1065,77.858
1.1017,76.685
1.1095,75.855
1.1369,75.366
1.1896,74.976
1.2708,74.78
1.3793,74.731
1.5093,74.78
1.65,74.878
1.7918,74.927
1.9238,74.927
2.0274,74.927
2.1075,74.78
2.1779,74.634
2.2317,74.292
2.2688,73.901
2.2893,73.413
2.2942,72.924
2.2864,72.387
2.2669,71.801
2.2385,71.166
2.2023,70.531
2.1593,69.994
2.1114,69.407
2.0655,68.919
2.0186,68.431
1.9638,67.844
1.9032,67.356
1.8387,66.868
1.7722,66.379
1.7067,65.94
1.6442,65.353
1.5865,64.816
1.5347,64.279
1.4897,63.79
1.4516,63.351
1.4252,62.862
1.4066,62.569
1.391,63.009
1.3783,65.305
1.3705,70.726
1.3842,79.372
1.4096,89.629
1.4233,99.3
1.4311,107.31
1.434,113.66
1.434,118.89
1.4311,123.18
1.4242,126.6
1.4174,129
1.4096,130.07
1.3949,129.73
1.3754,128.36
1.3539,126.26
1.3294,123.48
1.306,120.45
1.2845,117.03
1.2639,113.51
1.2454,109.85
1.2297,106.14
1.216,102.28
1.2092,98.421
1.2053,94.562
1.1994,90.752
1.1935,87.187
1.1857,83.914
1.176,81.179
1.1642,79.03
1.1544,77.369
1.1496,76.197
1.1564,75.22
1.1867,74.731
1.2463,74.438
1.3226,74.341
1.4213,74.487
1.5572,74.683
1.7195,74.976
1.8944,75.366
2.0684,75.611
2.2287,75.855
2.3675,75.904
2.479,75.855
2.564,75.757
2.6227,75.464
2.6579,75.171
2.6745,74.78
2.6745,74.341
2.6608,73.803
2.6364,73.217
2.5992,72.68
2.5494,72.094
2.4897,71.508
2.4194,70.922
2.3412,70.433
2.2561,69.847
2.1672,69.407
2.0762,68.919
1.9863,68.479
1.911,67.991
1.8456,67.405
1.7801,66.916
1.7195,66.428
1.6676,65.94
1.6256,65.402
1.5924,64.865
1.567,64.279
1.5484,64.181
1.5347,65.402
1.5249,69.554
1.5171,77.125
1.5103,87.236
1.5054,97.493
1.5024,106.14
1.4956,112.93
1.4858,118.35
1.4741,122.94
1.4594,126.6
1.4438,129.29
1.4272,130.66
1.4106,130.61
1.3939,129.44
1.3773,127.29
1.3617,124.6
1.3519,121.57
1.3441,118.11
1.3324,114.49
1.3177,110.83
1.3021,107.07
1.2874,103.31
1.2737,99.495
1.261,95.686
1.2483,91.876
1.2366,88.115
1.2248,84.598
1.2111,81.57
1.1975,79.127
1.1887,77.223
1.1857,75.904
1.1877,74.976
1.2053,74.438
1.2493,74.097
1.3265,73.999
1.4389,74.048
1.5846,74.194
1.7566,74.438
1.9423,74.78
2.1281,75.171
2.3011,75.464
2.437,75.806
2.5415,76.001
2.6334,76.001
2.7038,75.855
2.7517,75.611
2.7791,75.22
2.7879,74.78
2.7801,74.292
2.7576,73.803
2.7214,73.217
2.6735,72.68
2.6149,72.045
2.5464,71.361
2.48,70.677
2.4125,70.042
2.3353,69.407
2.2512,68.87
2.1652,68.284
2.0802,67.796
1.9971,67.258
1.9198,66.721
1.8485,66.184
1.7869,65.695
1.7361,65.256
1.696,64.865
1.6696,64.425
1.652,64.035
1.6373,63.937
1.6276,64.816
1.6207,68.089
1.6168,74.634
1.6149,83.816
1.6139,93.683
1.6129,102.47
1.6109,109.66
1.6061,115.57
1.5982,120.55
1.5875,124.8
1.5777,128.17
1.566,130.22
1.5494,131
1.5318,130.41
1.5132,128.85
1.4946,126.51
1.477,123.58
1.4604,120.25
1.4448,116.74
1.4301,113.07
1.4164,109.26
1.4027,105.41
1.3939,101.5
1.3881,97.591
1.3803,93.732
1.3695,90.069
1.3578,86.601
1.3441,83.572
1.3275,81.13
1.3109,79.127
1.2981,77.613
1.2942,76.49
1.3079,75.66
1.348,75.22
1.4213,74.976
1.5112,74.927
1.6246,74.976
1.7781,75.171
1.9599,75.415
2.1554,75.611
2.35,75.806
2.5318,75.904
2.6911,76.001
2.8221,75.904
2.9238,75.757
2.9971,75.464
3.045,75.073
3.0674,74.536
3.0704,73.999
3.0616,73.364
3.0401,72.729
3.0059,72.094
2.9589,71.41
2.9003,70.824
2.8319,70.189
2.7527,69.554
2.6647,68.968
2.5699,68.431
2.4712,67.942
2.3715,67.356
2.2835,66.868
2.2043,66.379
2.1222,65.842
2.0459,65.353
1.9795,64.865
1.9238,64.377
1.8807,63.839
1.8495,63.351
1.827,62.862
1.8133,62.716
1.8045,63.79
1.7986,67.356
1.7937,74.048
1.7898,83.23
1.782,93.048
1.7722,101.79
1.7595,108.92
1.7439,114.69
1.7273,119.62
1.7077,123.87
1.6872,127.29
1.6657,129.44
1.6432,130.22
1.6207,129.73
1.5992,128.17
1.5836,125.82
1.5699,122.94
1.5552,119.62
1.5386,116.1
1.52,112.44
1.5005,108.68
1.4809,104.82
1.4614,100.91
1.4399,97.053
1.4184,93.195
1.3978,89.434
1.3773,85.917
1.3607,82.791
1.3451,80.153
1.3255,78.053
1.3069,76.441
1.2972,75.22
1.304,74.341
1.3372,73.852
1.4066,73.559
1.5191,73.413
1.6745,73.51
1.8641,73.657
2.0782,73.852
2.3021,74.097
2.4936,74.292
2.6579,74.438
2.8211,74.438
2.9658,74.438
3.0841,74.292
3.173,74.097
3.2346,73.852
3.2708,73.51
3.2854,72.973
3.2805,72.485
3.259,71.947
3.1486,71.361
2.9932,70.824
2.8856,70.189
2.7937,69.652
2.7038,69.114
2.6119,68.675
2.5152,68.186
2.4145,67.747
2.3109,67.258
2.2092,66.721
2.1105,66.281
2.0176,65.793
1.9335,65.353
1.8671,64.914
1.8133,64.425
1.7634,63.986
1.7214,63.497
1.6891,63.058
1.6657,62.911
1.6491,64.035
1.6373,67.747
1.6285,74.731
1.6207,84.256
1.6129,94.123
1.6051,102.82
1.5963,109.8
1.5885,115.57
1.5806,120.3
1.5689,124.26
1.5562,127.04
1.5415,128.56
1.5259,128.75
1.5093,127.68
1.4936,125.72
1.478,123.18
1.4624,120.16
1.4477,116.98
1.433,113.56
1.4223,110.09
1.4145,106.53
1.4037,102.87
1.392,99.154
1.3803,95.49
1.3685,91.778
1.3548,88.261
1.3392,84.94
1.3206,82.058
1.2981,79.762
1.2747,77.906
1.2542,76.49
1.2434,75.464
1.2463,74.731
1.2708,74.292
1.3275,74.194
1.4252,74.194
1.565,74.341
1.7429,74.634
1.9501,74.878
2.172,75.171
2.393,75.366
2.5973,75.415
2.7752,75.415
2.9208,75.366
3.0186,75.22
3.0811,74.976
3.1261,74.634
3.1496,74.243
3.1515,73.803
3.1349,73.315
3.1026,72.729
3.0567,72.192
2.998,71.605
2.9286,71.068
2.8485,70.482
2.7615,69.847
2.6686,69.31
2.5816,68.675
2.4976,68.089
2.4057,67.503
2.3128,66.916
2.2219,66.281
2.1349,65.744
2.0538,65.256
1.9814,64.816
1.9169,64.425
1.8612,63.986
1.8143,63.497
1.7771,63.009
1.7498,62.862
1.7312,64.035
1.7165,67.942
1.7058,75.122
1.697,84.696
1.6901,94.416
1.6843,102.87
1.6774,109.66
1.6686,115.17
1.6588,119.81
1.6471,123.43
1.6334,126.07
1.6168,127.29
1.6012,127.29
1.5836,126.16
1.5621,124.26
1.5367,121.72
1.5103,118.79
1.4839,115.76
1.4585,112.44
1.436,109.12
1.4154,105.7
1.3969,102.18
1.3803,98.616
1.3646,94.904
1.3529,91.29
1.3421,87.822
1.3284,84.598
1.3118,81.863
1.2923,79.616
1.2708,78.004
1.2512,76.685
1.2395,75.66
1.2454,74.927
1.2776,74.487
1.346,74.243
1.4575,74.194
1.6109,74.243
1.7713,74.341
1.9413,74.634
2.1466,74.878
2.3636,75.122
2.5718,75.171
2.7556,75.22
2.9062,75.171
3.0205,74.927
3.1007,74.634
3.1486,74.194
3.1681,73.657
3.1642,73.168
3.1427,72.631
3.1075,72.045
3.0587,71.41
2.998,70.726
2.9257,70.091
2.8436,69.505
2.7527,68.821
2.6549,68.235
2.5523,67.698
2.4467,67.161
2.3402,66.623
2.2346,66.135
2.1339,65.598
2.0499,65.158
1.9785,64.67
1.9081,64.23
1.8456,63.79
1.7937,63.448
1.7507,63.009
1.7175,62.569
1.6931,62.374
1.6755,63.302
1.6628,66.526
1.654,72.875
1.6452,81.863
1.6383,91.632
1.6315,100.42
1.6197,107.55
1.6051,113.37
1.5875,118.25
1.567,122.31
1.5445,125.38
1.5191,127.24
1.4917,127.73
1.4643,127.04
1.4379,125.48
1.4115,123.23
1.3851,120.5
1.3656,117.42
1.349,114.2
1.3284,110.73
1.3069,107.16
1.2835,103.6
1.261,99.935
1.2395,96.223
1.219,92.56
1.1984,88.994
1.1779,85.673
1.1554,82.742
1.132,80.349
1.1134,78.444
1.0987,76.978
1.085,75.855
1.0831,75.122
1.1026,74.731
1.1554,74.536
1.2483,74.487
1.3861,74.536
1.564,74.683
1.7742,74.78
2.002,74.927
2.2307,75.073
2.4457,75.122
2.6139,75.073
2.7429,74.878
2.8592,74.683
2.9492,74.341
3.0088,73.901
3.0411,73.413
3.0489,72.778
3.0352,72.192
3.002,71.508
2.9531,70.873
2.8915,70.238
2.8172,69.652
2.7419,69.066
2.6637,68.479
2.5718,67.942
2.4712,67.356
2.3656,66.916
2.2571,66.428
2.1476,65.988
2.0411,65.549
1.9394,65.109
1.8465,64.621
1.7644,64.181
1.6931,63.742
1.6393,63.253
1.5992,62.716
1.564,62.227
1.5376,61.934
1.5181,62.472
1.5054,65.109
1.4976,70.824
1.4927,79.372
1.4888,89.189
1.4848,98.567
1.478,106.53
1.4673,113.17
1.4506,118.74
1.435,123.48
1.4194,127.39
1.3978,129.93
1.3734,130.95
1.347,130.51
1.3206,128.95
1.2952,126.6
1.2717,123.82
1.2512,120.55
1.2317,117.13
1.2131,113.56
1.1945,109.85
1.1818,106.14
1.172,102.23
1.1584,98.421
1.1437,94.758
1.129,91.045
1.1134,87.675
1.0792,84.696
1.0362,82.107
1.0049,80.007
0.98045,78.248
0.96383,76.783
0.9609,75.757
0.98143,74.878
1.0215,74.292
1.089,73.852
1.2014,73.51
1.3578,73.217
1.5503,72.973
1.7674,72.875
1.9932,72.778
2.2121,72.778
2.4115,72.729
2.5836,72.68
2.7214,72.533
2.826,72.387
2.8915,72.094
2.9277,71.752
2.9482,71.215
2.9511,70.726
2.9374,70.091
2.9071,69.505
2.8602,68.919
2.7977,68.479
2.7224,68.04
2.6354,67.747
2.5386,67.405
2.435,67.112
2.3284,66.819
2.2317,66.477
2.1417,66.037
2.0459,65.598
1.9521,65.158
1.8651,64.718
1.7859,64.23
1.7175,63.79
1.6588,63.302
1.61,62.862
1.5709,62.374
1.5396,61.934
1.5152,62.13
1.4995,64.035
1.4888,68.919
1.478,77.125
1.4673,86.991
1.4565,96.418
1.4448,104.14
1.4321,110.19
1.4184,115.13
1.4027,119.33
1.3861,122.6
1.3685,124.85
1.349,125.68
1.3275,125.14
1.3089,123.48
1.2933,121.13
1.2747,118.11
1.2551,114.78
1.2356,111.22
1.219,107.6
1.2063,103.99
1.1975,100.37
1.1926,96.76
1.1906,93.048
1.1906,89.434
1.1906,85.868
1.1926,82.547
1.1935,79.665
1.1896,77.369
1.1818,75.66
1.1701,74.438
1.1593,73.608
1.1554,73.071
1.1681,72.778
1.2072,72.778
1.2825,72.924
1.3998,73.168
1.5572,73.51
1.7468,73.755
1.9277,74.048
2.1007,74.292
2.2923,74.341
2.4761,74.341
2.6354,74.243
2.7605,73.999
2.8485,73.608
2.9013,73.12
2.9238,72.533
2.9208,71.947
2.8974,71.312
2.8583,70.629
2.8104,69.994
2.7556,69.359
2.6901,68.724
2.6158,68.089
2.5327,67.503
2.4428,66.916
2.348,66.428
2.2483,66.037
2.1466,65.695
2.045,65.353
1.9462,65.06
1.8534,64.67
1.7674,64.377
1.6979,63.986
1.6403,63.693
1.5855,63.302
1.5396,62.862
1.5024,62.374
1.4751,62.13
1.4545,62.814
1.4399,65.793
1.4291,72.24
1.4213,81.57
1.4154,91.632
1.4096,100.57
1.4066,107.7
1.4037,113.32
1.3988,117.91
1.391,121.62
1.3803,124.31
1.3656,125.72
1.349,125.97
1.3304,125.14
1.3089,123.48
1.2874,121.23
1.2659,118.54
1.2444,115.66
1.2239,112.54
1.2082,109.26
1.1965,105.85
1.1828,102.38
1.1691,98.812
1.1574,95.197
1.1457,91.485
1.1339,87.871
1.1222,84.403
1.1095,81.472
1.0929,79.127
1.0733,77.223
1.0538,75.855
1.0411,74.878
1.0401,74.194
1.0538,73.755
1.0958,73.608
1.1769,73.608
1.303,73.657
1.4712,73.803
1.6735,73.999
1.8964,74.194
2.1222,74.341
2.3353,74.487
2.522,74.536
2.6725,74.438
2.7732,74.292
2.8338,73.999
2.8729,73.608
2.8886,73.217
2.8827,72.729
2.8573,72.289
2.8172,71.801
2.7644,71.312
2.6999,70.824
2.6266,70.287
2.5435,69.798
2.4536,69.31
2.3675,68.821
2.2835,68.382
2.1887,67.844
2.088,67.405
1.9853,66.965
1.8866,66.526
1.7937,66.037
1.7097,65.598
1.6364,65.109
1.5748,64.718
1.5249,64.377
1.4858,63.937
1.4575,63.546
1.4399,63.79
1.4291,65.793
1.4213,70.873
1.4174,78.981
1.4164,88.799
1.4154,98.177
1.4145,105.94
1.4125,112.24
1.4066,117.42
1.3988,121.67
1.3891,124.85
1.3763,126.85
1.3656,127.53
1.3548,127.14
1.3402,125.72
1.3226,123.72
1.303,121.23
1.2825,118.35
1.262,115.22
1.2424,112.05
1.2239,108.73
1.2072,105.31
1.1926,101.74
1.1808,98.177
1.175,94.562
1.172,90.997
1.1672,87.626
1.1603,84.598
1.1505,82.058
1.1369,80.055
1.1202,78.492
1.1026,77.369
1.0929,76.49
1.1017,75.904
1.1388,75.611
1.2131,75.464
1.3314,75.464
1.4643,75.562
1.6178,75.757
1.8143,75.855
2.0323,76.001
2.2512,76.05
2.4545,76.001
2.6305,75.806
2.7732,75.611
2.8788,75.22
2.9482,74.731
2.9844,74.194
2.9941,73.559
2.9814,72.924
2.9531,72.289
2.911,71.654
2.8563,71.068
2.7889,70.482
2.7107,69.945
2.6237,69.407
2.5288,68.87
2.4272,68.382
2.3206,67.844
2.2121,67.307
2.1046,66.819
2.001,66.281
1.914,65.793
1.8387,65.353
1.7654,64.865
1.6989,64.425
1.6422,63.986
1.5973,63.546
1.564,63.107
1.5396,62.862
1.522,63.497
1.5103,66.379
1.5015,72.387
1.4956,81.228
1.5005,91.094
1.5103,100.23
1.5122,107.8
1.5073,114
1.4966,119.13
1.4829,123.28
1.4673,126.51
1.4497,128.36
1.4301,128.85
1.4106,128.26
1.39,126.8
1.3695,124.8
1.348,122.35
1.3314,119.62
1.3177,116.64
1.3001,113.42
1.2815,110.05
1.263,106.53
1.2444,103.01
1.2268,99.349
1.2092,95.734
1.1916,92.12
1.175,88.603
1.1584,85.428
1.1398,82.693
1.1241,80.446
1.1124,78.737
1.0997,77.418
1.0958,76.49
1.1075,75.904
1.1457,75.611
1.219,75.464
1.3343,75.464
1.4897,75.611
1.6784,75.757
1.8886,75.904
2.1036,76.05
2.3089,76.05
2.4721,76.001
2.5992,75.855
2.7136,75.562
2.8045,75.171
2.869,74.731
2.9081,74.194
2.9257,73.608
2.9257,72.973
2.912,72.289
2.8847,71.654
2.8465,70.97
2.7967,70.384
2.7429,69.749
2.6813,69.261
2.6061,68.724
2.5191,68.235
2.4233,67.747
2.3196,67.258
2.2131,66.672
2.1075,66.184
2.0059,65.695
1.912,65.256
1.828,64.816
1.7546,64.377
1.6931,63.986
1.6471,63.546
1.6129,63.107
1.5846,63.302
1.565,65.012
1.5533,69.407
1.5474,76.929
1.5455,86.356
1.5445,95.881
1.5415,104.04
1.5367,110.68
1.5288,116.05
1.5161,120.5
1.5034,123.87
1.4897,126.16
1.4712,127.14
1.4487,126.85
1.4242,125.68
1.3978,123.82
1.3695,121.48
1.3412,118.89
1.3138,116
1.2874,112.93
1.262,109.75
1.2395,106.38
1.2209,103.01
1.2082,99.544
1.1994,95.93
1.1877,92.218
1.175,88.701
1.1613,85.379
1.1466,82.498
1.129,80.104
1.1105,78.248
1.0938,76.881
1.085,75.806
1.0929,75.171
1.1271,74.878
1.1818,74.78
1.2639,74.878
1.393,74.976
1.5621,75.171
1.7615,75.318
1.9785,75.415
2.1955,75.562
2.3988,75.562
2.5767,75.562
2.7234,75.366
2.8358,75.073
2.915,74.683
2.9638,74.194
2.9834,73.608
2.9814,72.973
2.9658,72.436
2.9374,71.801
2.8964,71.312
2.8416,70.726
2.7752,70.238
2.6989,69.749
2.6119,69.31
2.5152,68.87
2.4115,68.479
2.304,68.089
2.2072,67.6
2.1163,67.161
2.0205,66.672
1.9257,66.184
1.8368,65.744
1.7566,65.305
1.6862,64.865
1.6276,64.377
1.5806,64.035
1.5435,64.621
1.5152,67.405
1.4936,73.559
1.477,82.742
1.4653,92.999
1.4575,102.38
1.4497,110
1.4438,116
1.4379,120.74
1.4321,124.5
1.4262,126.99
1.4194,128.31
1.4096,128.31
1.3959,127.29
1.3783,125.63
1.3578,123.48
1.3402,120.99
1.3226,118.2
1.3011,115.32
1.2786,112.19
1.2571,108.97
1.2366,105.6
1.218,102.18
1.2014,98.567
1.1867,94.904
1.175,91.387
1.1632,87.919
1.1515,84.842
1.1388,82.302
1.129,80.349
1.1212,78.883
1.1124,77.809
1.1105,77.125
1.1251,76.685
1.1672,76.49
1.2463,76.49
1.3666,76.539
1.5259,76.783
1.7175,77.027
1.9267,77.32
2.1378,77.467
2.3128,77.613
2.4555,77.613
2.5914,77.369
2.7028,77.027
2.7869,76.685
2.8416,76.294
2.87,75.806
2.8768,75.171
2.8661,74.536
2.8387,73.803
2.7977,73.12
2.7439,72.485
2.6862,71.752
2.6217,71.068
2.5445,70.287
2.4555,69.603
2.3568,68.968
2.2532,68.382
2.1476,67.796
2.043,67.161
1.9433,66.623
1.8504,66.037
1.7664,65.549
1.6921,65.158
1.6276,64.816
1.5777,64.474
1.5386,64.23
1.5024,64.621
1.4721,66.672
1.4477,71.801
1.4282,80.3
1.4135,90.606
1.4008,100.62
1.39,108.92
1.3803,115.57
1.3705,120.94
1.3607,125.38
1.3529,128.61
1.346,130.61
1.3343,131.2
1.3196,130.56
1.3001,129
1.2766,126.95
1.2483,124.36
1.218,121.57
1.1867,118.5
1.1554,115.37
1.1251,112.1
1.0978,108.68
1.0733,105.26
1.0567,101.69
1.045,98.03
1.0323,94.416
1.0186,90.997
1.0049,87.822
0.9912,85.038
0.97654,82.937
0.9609,81.228
0.94917,79.909
0.94624,78.981
0.96188,78.346
1.0049,78.004
1.0684,77.858
1.1584,77.858
1.2933,77.906
1.4663,78.053
1.6667,78.248
1.8778,78.444
2.085,78.492
2.2737,78.492
2.435,78.297
2.563,78.053
2.6569,77.662
2.7195,77.174
2.7566,76.636
2.7683,76.05
2.7634,75.415
2.7458,74.731
2.7175,74.097
2.6764,73.413
2.6237,72.778
2.5611,72.094
2.4888,71.508
2.4066,70.873
2.3167,70.287
2.2209,69.798
2.1232,69.31
2.0362,68.821
1.957,68.382
1.8729,67.844
1.7928,67.405
1.7185,66.916
1.654,66.477
1.5982,66.037
1.5533,65.695
1.5171,65.402
1.4897,65.94
1.4692,68.284
1.4536,73.657
1.4418,82.156
1.434,92.169
1.4291,101.89
1.4223,109.95
1.4154,116.49
1.4066,121.87
1.3959,126.36
1.3822,129.83
1.3656,131.93
1.346,132.76
1.3245,132.42
1.3011,131.2
1.2766,129.29
1.2581,126.99
1.2424,124.36
1.2248,121.48
1.2053,118.45
1.1867,115.17
1.1691,111.66
1.1544,108.04
1.1417,104.28
1.131,100.47
1.1222,96.662
1.1134,92.853
1.1036,89.287
1.0909,86.112
1.0802,83.475
1.0694,81.423
1.0557,79.86
1.0469,78.737
1.0508,78.053
1.0782,77.76
1.1378,77.613
1.2356,77.613
1.3715,77.76
1.5396,77.906
1.7312,78.199
1.9306,78.346
2.1026,78.492
2.2493,78.492
2.3939,78.346
2.52,78.199
2.6188,77.858
2.6891,77.369
2.7331,76.783
2.7546,76.197
2.7576,75.464
2.7449,74.731
2.7195,74.048
2.6823,73.364
2.6344,72.778
2.5816,72.24
2.523,71.654
2.4516,71.166
2.3705,70.629
2.2815,70.189
2.1877,69.652
2.0919,69.261
1.9961,68.724
1.9042,68.235
1.8192,67.747
1.7419,67.258
1.6745,66.819
1.6237,66.233
1.5846,65.744
1.5484,65.5
1.5171,66.281
1.4917,69.31
1.4712,75.464
1.4545,84.5
1.4399,94.611
1.4262,103.99
1.4125,111.8
1.3988,118.2
1.3871,123.43
1.3763,127.73
1.3685,130.95
1.3617,132.81
1.3529,133.3
1.3421,132.66
1.3304,131.2
1.3187,129.09
1.306,126.56
1.2913,123.67
1.2757,120.55
1.259,117.18
1.2405,113.61
1.2199,109.95
1.2043,106.14
1.1916,102.18
1.176,98.225
1.1603,94.318
1.1457,90.557
1.132,87.138
1.1183,84.158
1.1046,81.814
1.0919,79.909
1.0831,78.541
1.086,77.613
1.1075,77.027
1.1564,76.783
1.2219,76.783
1.3118,76.881
1.4418,76.978
1.6051,77.125
1.7889,77.32
1.9795,77.418
2.1632,77.467
2.3284,77.467
2.4682,77.418
2.5787,77.223
2.6598,76.881
2.7126,76.49
2.739,76.001
2.7468,75.464
2.7429,74.927
2.7273,74.292
2.6999,73.755
2.6618,73.168
2.6139,72.533
2.5552,71.996
2.4878,71.41
2.4106,70.97
2.3255,70.531
2.2346,70.042
2.1505,69.554
2.0704,68.968
1.9824,68.479
1.8944,67.942
1.8123,67.356
1.739,66.868
1.6755,66.428
1.6227,65.94
1.5816,65.5
1.5503,65.353
1.5288,66.526
1.5132,70.384
1.5024,77.564
1.4966,87.48
1.4927,97.981
1.4888,107.31
1.4839,114.78
1.477,120.89
1.4673,125.87
1.4555,129.68
1.4409,132.32
1.4233,133.49
1.4047,133.34
1.3842,132.17
1.3627,130.22
1.3451,127.83
1.3304,125.04
1.3128,122.06
1.2942,118.89
1.2766,115.57
1.259,112.05
1.2414,108.48
1.2248,104.82
1.2082,101.11
1.1926,97.444
1.1779,93.732
1.1642,90.166
1.1505,87.138
1.1417,84.549
1.1349,82.693
1.1261,81.179
1.1202,80.104
1.1241,79.323
1.1476,78.786
1.1975,78.59
1.2815,78.492
1.4027,78.541
1.5582,78.688
1.739,78.786
1.9345,78.981
2.1056,79.176
2.2551,79.225
2.4066,79.225
2.5425,79.03
2.653,78.786
2.7361,78.492
2.7918,78.053
2.824,77.613
2.8358,77.125
2.8309,76.539
2.8104,76.001
2.7761,75.415
2.7292,74.878
2.6774,74.243
2.6188,73.657
2.5464,73.12
2.4643,72.533
2.3734,71.996
2.2766,71.508
2.1779,70.873
2.0792,70.238
1.9853,69.652
1.8974,69.114
1.8192,68.626
1.7517,68.089
1.6999,67.6
1.6608,67.112
1.6256,66.868
1.5982,67.747
1.5787,71.117
1.565,78.004
1.5562,87.724
1.5503,98.225
1.5455,107.6
1.5396,115.17
1.5337,121.28
1.5269,126.31
1.5191,130.22
1.5122,132.86
1.5054,134.13
1.4946,134.08
1.4809,133
1.4643,131.2
1.4457,128.95
1.4262,126.36
1.4057,123.58
1.3851,120.6
1.3656,117.47
1.347,114.25
1.3294,110.88
1.3177,107.31
1.3079,103.6
1.2952,99.789
1.2815,95.979
1.2669,92.315
1.2512,88.994
1.2346,86.259
1.216,84.061
1.1975,82.449
1.1818,81.179
1.1779,80.3
1.1935,79.811
1.2375,79.567
1.3011,79.469
1.3939,79.567
1.5376,79.762
1.7214,79.909
1.9306,80.104
2.1486,80.251
2.3587,80.349
2.5464,80.3
2.7038,80.104
2.826,79.811
2.915,79.372
2.9726,78.786
3,78.102
3.0059,77.418
2.998,76.734
2.9765,76.05
2.9423,75.366
2.8954,74.731
2.8368,74.048
2.7674,73.51
2.6872,72.924
2.5992,72.436
2.5044,71.996
2.4057,71.557
2.303,71.068
2.2111,70.531
2.1261,70.091
2.0362,69.603
1.9492,69.114
1.869,68.626
1.7986,68.089
1.739,67.6
1.6901,67.112
1.652,66.819
1.6227,67.161
1.6012,69.505
1.5865,74.878
1.5767,83.426
1.5699,93.732
1.563,103.7
1.5552,112.1
1.5464,118.98
1.5367,124.6
1.5259,129.29
1.5132,132.81
1.4995,135.01
1.4848,135.74
1.4673,135.25
1.4477,133.88
1.4252,131.88
1.4047,129.39
1.3861,126.6
1.3636,123.62
1.3392,120.45
1.3148,117.13
1.2923,113.66
1.2717,110.05
1.2532,106.28
1.2375,102.47
1.2248,98.616
1.2131,94.855
1.2023,91.241
1.1955,88.115
1.1887,85.477
1.176,83.475
1.1632,82.009
1.1554,80.935
1.1623,80.153
1.1945,79.811
1.262,79.665
1.3705,79.665
1.523,79.762
1.7136,79.86
1.9306,79.909
2.1593,80.055
2.3558,80.153
2.5259,80.104
2.695,80.007
2.8426,79.665
2.9609,79.323
3.0479,78.737
3.1046,78.102
3.1359,77.467
3.1447,76.783
3.1349,76.197
3.1085,75.464
3.0684,74.78
3.0196,74.097
2.9619,73.413
2.8915,72.778
2.8104,72.24
2.7195,71.752
2.6197,71.215
2.5142,70.726
2.4057,70.287
2.2962,69.798
2.1896,69.31
2.089,68.821
1.9971,68.284
1.9169,67.844
1.8543,67.356
1.8055,66.916
1.7615,66.428
1.7243,66.281
1.694,67.258
1.6696,70.531
1.65,77.125
1.6344,86.405
1.6197,96.76
1.6041,106.14
1.5894,113.76
1.5748,119.81
1.563,124.75
1.5513,128.61
1.5367,131.39
1.5191,132.86
1.5015,133.1
1.4829,132.37
1.4633,130.85
1.4438,128.85
1.4242,126.51
1.4037,123.87
1.3822,120.99
1.3607,118.01
1.3431,114.78
1.3275,111.41
1.3089,107.85
1.2893,104.18
1.2688,100.42
1.2483,96.614
1.2287,92.95
1.2092,89.629
1.1887,86.698
1.1672,84.403
1.1457,82.693
1.129,81.423
1.1251,80.69
1.1378,80.153
1.175,80.007
1.2512,79.86
1.3724,79.909
1.5386,80.007
1.7439,80.104
1.9765,80.251
2.219,80.251
2.4536,80.251
2.6667,80.104
2.8465,79.86
2.9892,79.616
3.0841,79.225
3.1427,78.737
3.1838,78.248
3.2063,77.613
3.2102,76.978
3.1975,76.343
3.1711,75.66
3.131,74.976
3.0792,74.243
3.0166,73.559
2.9433,72.778
2.8583,72.094
2.7625,71.508
2.6696,70.873
2.5767,70.287
2.4721,69.652
2.3627,69.066
2.2542,68.479
2.1515,67.942
2.0577,67.405
1.9746,66.965
1.9042,66.623
1.8475,66.233
1.8035,65.94
1.7713,65.842
1.7498,67.112
1.7351,70.922
1.7234,78.248
1.7126,88.31
1.7019,99.007
1.6901,108.48
1.6774,116.1
1.6628,122.26
1.6452,127.04
1.6246,130.76
1.6012,133.05
1.5767,133.98
1.5494,133.74
1.5249,132.56
1.5034,130.8
1.478,128.56
1.4526,126.07
1.4272,123.28
1.4027,120.45
1.3793,117.37
1.3568,114.1
1.3353,110.73
1.3157,107.16
1.2972,103.5
1.2805,99.74
1.2688,95.979
1.2581,92.315
1.2434,88.994
1.2258,86.308
1.2063,84.256
1.1857,82.595
1.1681,81.472
1.1632,80.69
1.1818,80.153
1.2346,80.007
1.3314,79.909
1.4751,80.007
1.6628,80.104
1.8514,80.251
2.043,80.3
2.2659,80.349
2.4917,80.3
2.6989,80.153
2.8739,79.86
3.0117,79.469
3.1114,79.03
3.1769,78.492
3.2121,77.906
3.2229,77.223
3.2141,76.539
3.1896,75.855
3.1535,75.171
3.1065,74.536
3.0499,73.901
2.9834,73.315
2.9062,72.778
2.8192,72.289
2.7214,71.85
2.6139,71.41
2.5005,71.068
2.3842,70.629
2.2678,70.189
2.1564,69.749
2.0626,69.261
1.9824,68.821
1.9042,68.284
1.8348,67.844
1.7761,67.356
1.7302,66.868
1.695,66.672
1.6696,67.698
1.652,71.508
1.6393,78.932
1.6285,89.238
1.6178,99.984
1.608,109.31
1.5973,116.64
1.5806,122.35
1.5611,126.99
1.5376,130.51
1.5132,132.61
1.4888,133.44
1.4311,133.05
1.3578,131.88
1.3109,130.07
1.2757,127.83
1.2463,125.24
1.2209,122.45
1.2014,119.47
1.1848,116.35
1.1652,113.07
1.1447,109.61
1.1241,106.04
1.1046,102.43
1.087,98.665
1.0714,94.904
1.0577,91.29
1.044,88.164
1.0303,85.575
1.0147,83.621
1.0039,82.253
0.99902,81.228
0.99902,80.593
1.0166,80.3
1.0616,80.104
1.1427,80.104
1.2659,80.251
1.4291,80.349
1.6237,80.544
1.8368,80.69
2.0518,80.788
2.2522,80.739
2.4272,80.593
2.5543,80.3
2.6432,79.86
2.7146,79.372
2.7634,78.786
2.7898,78.102
2.7957,77.418
2.7849,76.685
2.7595,76.001
2.7214,75.22
2.6716,74.634
2.6109,73.999
2.5396,73.364
2.4682,72.778
2.393,72.24
2.306,71.752
2.2102,71.215
2.1085,70.726
2.0039,70.287
1.8993,69.847
1.7996,69.505
1.7077,69.114
1.6246,68.675
1.5523,68.284
1.4917,67.942
1.4438,67.551
1.4106,67.161
1.3871,66.916
1.3685,67.356
1.3529,69.749
1.3412,75.22
1.3304,83.914
1.3196,94.22
1.3089,104.18
1.2962,112.49
1.2805,119.23
1.262,124.7
1.2405,129.09
1.2219,132.42
1.2063,134.42
1.1867,135.1
1.1642,134.57
1.1427,133.25
1.1212,131.24
1.0997,128.85
1.0792,126.26
1.0606,123.38
1.042,120.35
1.0225,117.18
1.0029,113.81
0.98925,110.29
0.97849,106.63
0.96383,102.82
0.94721,98.909
0.9306,95.099
0.91398,91.632
0.89736,88.506
0.88074,85.966
0.86315,84.061
0.84751,82.547
0.83773,81.423
0.8436,80.69
0.87488,80.251
0.92571,80.104
1.0029,80.055
1.1251,80.104
1.2864,80.251
1.4761,80.3
1.6804,80.349
1.8837,80.3
2.0733,80.251
2.2385,80.055
2.3724,79.811
2.4751,79.372
2.5474,78.883
2.5904,78.248
2.6109,77.613
2.6207,76.929
2.6178,76.246
2.6031,75.464
2.5758,74.731
2.5347,74.048
2.4819,73.413
2.4154,72.778
2.3372,72.192
2.2473,71.605
2.1486,71.117
2.043,70.629
1.9472,70.091
1.8583,69.652
1.7634,69.261
1.6706,68.821
1.5846,68.284
1.5103,67.844
1.4477,67.405
1.3978,66.965
1.3587,66.526
1.3284,66.135
1.306,65.94
1.2893,66.868
1.2776,70.189
1.2688,76.734
1.2571,86.161
1.2444,96.614
1.2297,106.19
1.2141,114
1.1965,120.35
1.1789,125.58
1.1613,129.88
1.1437,132.95
1.1271,134.76
1.1095,135.2
1.0919,134.57
1.0792,133.05
1.0665,131
1.0499,128.56
1.0313,125.72
1.0127,122.7
0.99316,119.47
0.97458,116.1
0.95601,112.63
0.93842,108.97
0.92278,105.26
0.90811,101.45
0.89443,97.542
0.88661,93.781
0.88074,90.362
0.87195,87.382
0.86119,84.94
0.84848,83.035
0.83773,81.618
0.83578,80.593
0.84848,79.909
0.88661,79.567
0.95992,79.421
1.0723,79.372
1.2239,79.421
1.4076,79.469
1.5836,79.567
1.7537,79.665
1.9413,79.665
2.1241,79.616
2.2864,79.421
2.4213,79.127
2.5249,78.737
2.5982,78.248
2.6461,77.613
2.6706,76.929
2.6764,76.246
2.6657,75.562
2.6432,74.878
2.6109,74.194
2.566,73.559
2.5093,72.924
2.4409,72.289
2.3627,71.752
2.2747,71.215
2.1789,70.677
2.0792,70.189
1.9765,69.652
1.8749,69.163
1.7781,68.724
1.6891,68.235
1.6178,67.796
1.5591,67.307
1.5034,66.819
1.4545,66.233
1.4145,65.695
1.3832,65.256
1.3578,65.598
1.3382,67.844
1.3216,73.12
1.3069,81.57
1.2933,91.68
1.2805,101.5
1.2708,109.8
1.261,116.54
1.2473,122.11
1.2317,126.7
1.2141,130.22
1.1945,132.51
1.174,133.44
1.1535,133.1
1.1329,131.93
1.1134,130.07
1.0948,127.63
1.0772,124.94
1.0596,121.91
1.0469,118.74
1.0362,115.42
1.0215,112
1.0049,108.43
0.98729,104.67
0.96872,100.91
0.94917,97.2
0.92962,93.488
0.90909,89.922
0.88856,86.698
0.86706,84.061
0.84653,82.009
0.83284,80.446
0.82796,79.372
0.83284,78.737
0.85826,78.346
0.91496,78.248
1.0098,78.248
1.1447,78.346
1.3157,78.541
1.5122,78.737
1.7204,78.883
1.9267,78.981
2.1163,78.981
2.2805,78.932
2.4008,78.737
2.4848,78.444
2.5543,78.004
2.6031,77.418
2.6325,76.881
2.6432,76.246
2.6373,75.611
2.6197,75.073
2.5894,74.487
2.5464,73.852
2.4927,73.217
2.4272,72.68
2.3597,72.192
2.3353,71.654
2.3196,71.166
2.26,70.677
2.1789,70.189
2.087,69.603
1.9932,69.066
1.9032,68.479
1.8211,67.991
1.7468,67.551
1.6833,67.112
1.6315,66.672
1.5894,66.184
1.5601,66.184
1.5406,67.551
1.5239,71.85
1.5112,79.665
1.5015,89.922
1.4936,100.42
1.4868,109.41
1.48,116.49
1.4731,122.16
1.4643,126.7
1.4536,130.17
1.4418,132.51
1.4321,133.44
1.4223,133.1
1.4086,131.93
1.392,130.07
1.3744,127.73
1.3558,125.04
1.3363,122.16
1.3167,119.03
1.2981,115.81
1.2805,112.44
1.2639,108.87
1.2483,105.26
1.2326,101.5
1.2229,97.688
1.2151,93.927
1.2043,90.41
1.1926,87.382
1.1779,84.842
1.1623,82.937
1.1466,81.57
1.1339,80.544
1.132,79.86
1.1505,79.421
1.1984,79.176
1.2825,79.03
1.3832,79.127
1.5054,79.176
1.6686,79.323
1.8563,79.469
2.0528,79.616
2.2414,79.665
2.4106,79.616
2.5523,79.323
2.6618,78.932
2.741,78.346
2.7918,77.809
2.8201,77.174
2.827,76.539
2.8192,75.806
2.8016,75.122
2.7732,74.341
2.7331,73.657
2.6823,73.071
2.6207,72.387
2.5484,71.654
2.4673,71.068
2.3783,70.433
2.2845,69.847
2.1877,69.31
2.0899,68.821
2.0059,68.284
1.9316,67.844
1.8563,67.356
1.7859,66.916
1.7234,66.526
1.6706,66.184
1.6276,65.744
1.5953,65.353
1.5728,65.549
1.5562,67.258
1.5445,71.996
1.5367,80.153
1.5327,90.557
1.5288,100.81
1.523,109.41
1.5161,116.44
1.5064,122.06
1.4936,126.8
1.479,130.41
1.4633,132.81
1.4457,133.78
1.4262,133.64
1.4057,132.42
1.3842,130.56
1.3617,128.17
1.3431,125.43
1.3265,122.45
1.306,119.23
1.2825,115.91
1.2581,112.49
1.2336,108.97
1.2102,105.31
1.1887,101.55
1.1691,97.786
1.1525,94.074
1.1378,90.557
1.1241,87.431
1.1153,84.842
1.1085,82.84
1.0997,81.374
1.0919,80.153
1.0929,79.421
1.1124,78.981
1.1603,78.786
1.2434,78.786
1.3656,78.932
1.5259,79.03
1.7146,79.176
1.9198,79.323
2.1281,79.372
2.3011,79.372
2.4448,79.323
2.5826,79.127
2.6999,78.737
2.7898,78.297
2.8534,77.809
2.8915,77.174
2.9071,76.49
2.9032,75.757
2.8847,75.073
2.8524,74.341
2.8084,73.657
2.7595,73.071
2.7038,72.436
2.6373,71.801
2.5611,71.215
2.477,70.677
2.3861,70.042
2.2913,69.554
2.1945,69.066
2.0987,68.528
2.0068,68.04
1.9208,67.6
1.8436,67.161
1.7771,66.721
1.7263,66.281
1.6872,65.793
1.653,65.353
1.6246,65.256
1.6031,66.281
1.5885,69.847
1.5787,76.734
1.5728,86.356
1.5679,96.662
1.5621,105.94
1.5552,113.37
1.5455,119.42
1.5367,124.41
1.5259,128.51
1.5083,131.54
1.4868,133.3
1.4633,133.74
1.4379,133.1
1.4125,131.68
1.3871,129.68
1.3617,127.19
1.3372,124.36
1.3148,121.28
1.2952,118.06
1.2786,114.54
1.2678,110.97
1.26,107.26
1.2512,103.5
1.2424,99.593
1.2326,95.734
1.2229,92.071
1.2111,88.701
1.1955,85.721
1.1769,83.426
1.1574,81.618
1.1398,80.251
1.132,79.323
1.1378,78.786
1.1662,78.541
1.2258,78.492
1.3255,78.492
1.4682,78.59
1.6481,78.688
1.8553,78.737
2.0743,78.786
2.2903,78.786
2.4888,78.737
2.6598,78.59
2.7977,78.297
2.9022,77.858
2.9668,77.369
3.0029,76.734
3.0254,76.099
3.0313,75.415
3.0235,74.683
3.002,73.999
2.9687,73.217
2.9247,72.631
2.87,71.996
2.8045,71.361
2.7283,70.824
2.6432,70.287
2.5601,69.798
2.4751,69.31
2.3783,68.724
2.2766,68.235
2.174,67.796
2.0762,67.307
1.9853,66.868
1.9052,66.428
1.8377,65.988
1.783,65.5
1.741,64.914
1.7087,64.718
1.6862,65.598
1.6725,68.675
1.6628,74.976
1.654,84.11
1.6452,94.367
1.6364,103.84
1.6256,111.66
1.6119,117.91
1.5963,123.04
1.5787,127.14
1.5591,130.17
1.5386,131.88
1.5161,132.32
1.4976,131.54
1.4819,130.07
1.4633,127.92
1.4438,125.38
1.4233,122.5
1.4037,119.42
1.3842,116.2
1.3646,112.73
1.3441,109.26
1.3245,105.6
1.305,101.79
1.2854,97.932
1.2669,94.123
1.2532,90.362
1.2414,87.04
1.2268,84.158
1.2102,81.863
1.1926,80.104
1.1769,78.737
1.1681,77.858
1.1564,77.32
1.1593,76.978
1.2131,76.881
1.3157,76.881
1.4643,76.929
1.6207,77.027
1.7889,77.125
1.9941,77.174
2.2092,77.223
2.4154,77.174
2.5982,76.978
2.7498,76.783
2.8671,76.441
2.9511,76.001
3.0049,75.464
3.0332,74.927
3.0401,74.341
3.0283,73.755
3.0029,73.168
2.9668,72.631
2.9189,71.996
2.8592,71.41
2.7889,70.824
2.7087,70.238
2.6188,69.652
2.521,69.114
2.4184,68.626
2.3118,68.089
2.2053,67.6
2.1007,67.112
2.0127,66.526
1.9365,66.037
1.8602,65.598
1.7908,65.158
1.7322,64.816
1.6843,64.377
1.6471,64.377
1.6197,65.744
1.5992,69.847
1.5826,77.467
1.5699,87.675
1.5591,98.225
1.5503,107.41
1.5425,114.69
1.5327,120.35
1.52,124.85
1.5064,128.26
1.4897,130.36
1.4712,131.24
1.4516,130.85
1.4321,129.63
1.4115,127.73
1.39,125.48
1.3675,122.94
1.3451,120.11
1.3275,117.18
1.3128,114.1
1.2962,110.88
