0.65494,73.142
0.63441,72.555
0.61193,71.969
0.58944,71.578
0.56598,70.991
0.5435,70.404
0.52297,69.818
0.5044,69.426
0.4868,68.84
0.47214,68.449
0.45846,67.862
0.44868,67.471
0.43988,66.884
0.43304,66.493
0.4262,65.906
0.42033,65.515
0.41544,64.928
0.41056,64.537
0.40665,64.146
0.40274,63.95
0.39883,64.146
0.39589,64.928
0.39198,66.884
0.38807,70.6
0.38514,77.249
0.38221,86.05
0.3783,96.024
0.37439,106.39
0.37048,115.97
0.36657,124.38
0.36266,131.62
0.35777,136.9
0.35386,140.42
0.34995,142.37
0.34702,143.16
0.34311,142.76
0.34018,141.79
0.33822,140.03
0.33529,138.27
0.33138,136.31
0.32845,133.96
0.32454,131.42
0.3216,128.68
0.31867,125.75
0.31574,122.43
0.31183,118.71
0.3089,114.8
0.30596,110.69
0.30303,106.19
0.30108,101.69
0.29912,97.393
0.29619,93.481
0.29521,90.157
0.29619,87.419
0.30108,85.267
0.31183,83.703
0.3304,82.529
0.35679,81.747
0.39101,81.16
0.43109,80.965
0.47605,80.965
0.51613,80.965
0.55327,80.965
0.59335,80.965
0.63148,80.769
0.66569,80.574
0.69501,80.378
0.71848,80.183
0.73607,79.791
0.74878,79.4
0.7566,78.814
0.76051,78.227
0.76149,77.64
0.75758,77.054
0.75171,76.271
0.74389,75.685
0.73314,74.902
0.71945,74.316
0.70381,73.729
0.68524,73.142
0.66569,72.555
0.64418,71.969
0.62072,71.382
0.59726,70.795
0.5738,70.209
0.55034,69.622
0.53079,69.231
0.5132,68.644
0.49462,68.057
0.47801,67.471
0.46237,66.884
0.44966,66.297
0.43793,65.906
0.42717,65.319
0.41838,64.733
0.41056,64.342
0.40371,63.755
0.39785,63.364
0.39198,62.973
0.38807,62.582
0.38416,62.386
0.38025,62.777
0.37537,63.95
0.37048,66.884
0.36657,72.164
0.36168,80.183
0.35679,90.157
0.35191,100.91
0.34702,111.28
0.34213,120.67
0.33724,128.49
0.33333,134.75
0.3304,138.85
0.32551,141.4
0.3216,142.57
0.31769,142.76
0.31281,141.98
0.3089,140.42
0.30499,138.66
0.30108,136.51
0.29619,133.96
0.29228,131.42
0.28837,128.68
0.28446,125.75
0.2825,122.43
0.28055,118.9
0.27761,114.99
0.27468,110.89
0.27175,106.39
0.26784,101.89
0.26491,97.588
0.261,93.481
0.25806,90.157
0.25806,87.419
0.261,85.072
0.26979,83.116
0.2825,81.943
0.30108,80.965
0.32942,80.378
0.36559,79.987
0.40958,79.791
0.4565,79.791
0.50538,79.791
0.5523,79.596
0.59531,79.596
0.63441,79.596
0.66667,79.4
0.69306,79.205
0.71359,79.009
0.7263,78.618
0.73412,78.227
0.739,77.64
0.74194,77.054
0.74096,76.662
0.73705,75.88
0.73021,75.293
0.72043,74.707
0.70772,73.924
0.69306,73.338
0.67546,72.751
0.65494,72.164
0.63636,71.773
0.61681,71.186
0.59531,70.6
0.57185,70.013
0.54936,69.426
0.52688,68.84
0.50538,68.253
0.48485,67.666
0.46725,67.275
0.45161,66.688
0.43793,66.102
0.42522,65.515
0.41447,64.928
0.40665,64.537
0.40078,63.95
0.39296,63.364
0.38416,62.973
0.37732,62.582
0.37146,62.19
0.36657,61.799
0.36168,61.995
0.35679,62.582
0.35288,64.342
0.34897,67.862
0.34409,73.924
0.34115,82.725
0.33822,92.699
0.33431,103.06
0.3304,112.65
0.32649,121.25
0.32258,128.49
0.31769,133.77
0.31378,137.48
0.3089,139.64
0.30499,140.42
0.30108,140.03
0.29717,139.05
0.29423,137.29
0.29228,135.14
0.28935,132.79
0.28543,130.05
0.2825,127.31
0.27859,124.38
0.27566,121.25
0.27175,117.73
0.26882,113.82
0.26491,109.71
0.26197,105.22
0.25806,100.72
0.25513,96.219
0.2522,92.112
0.25024,88.788
0.24927,85.854
0.24829,83.703
0.2522,81.943
0.261,80.574
0.27664,79.791
0.30108,79.4
0.33333,79.009
0.37341,79.009
0.4174,79.009
0.4653,79.009
0.50635,79.009
0.54252,79.009
0.57967,79.009
0.61486,78.814
0.64614,78.618
0.67155,78.422
0.6911,78.031
0.70577,77.64
0.71457,77.249
0.72043,76.662
0.72141,76.076
0.71945,75.293
0.71359,74.707
0.70577,74.12
0.69501,73.533
0.68133,72.947
0.66569,72.36
0.64809,71.773
0.62757,71.186
0.60606,70.795
0.5826,70.209
0.55914,69.818
0.53666,69.231
0.51417,68.644
0.49365,68.057
0.47605,67.471
0.46139,66.884
0.44673,66.297
0.43304,65.906
0.42131,65.319
0.41153,64.928
0.40274,64.342
0.39492,63.755
0.38807,63.168
0.38221,62.777
0.37732,62.386
0.37243,61.995
0.36755,61.604
0.36461,61.604
0.36168,61.799
0.35777,62.777
0.35484,65.124
0.35093,69.622
0.34604,76.858
0.34213,86.245
0.33822,96.61
0.33333,106.58
0.32942,115.78
0.32551,123.79
0.32063,130.05
0.31769,134.75
0.31574,137.87
0.31183,139.44
0.3089,139.64
0.30499,139.05
0.30108,137.48
0.29717,135.53
0.29423,133.18
0.29032,130.83
0.28739,128.29
0.28348,125.55
0.28055,122.62
0.27664,119.3
0.27468,115.58
0.27273,111.67
0.26979,107.17
0.26686,102.67
0.26393,98.175
0.26002,94.068
0.25709,90.352
0.25318,87.223
0.2522,84.681
0.25318,82.725
0.26002,81.16
0.27273,80.183
0.29032,79.596
0.31281,79.205
0.34506,79.009
0.38416,78.814
0.42815,78.814
0.47507,78.814
0.52199,79.009
0.56696,79.009
0.60606,78.814
0.64027,78.814
0.66862,78.422
0.6911,78.227
0.70772,77.836
0.71848,77.445
0.72336,76.858
0.7263,76.467
0.7263,75.685
0.72239,75.098
0.71652,74.511
0.70772,73.924
0.69599,73.338
0.68133,72.751
0.66373,72.164
0.64418,71.773
0.62268,71.186
0.60215,70.6
0.5826,70.013
0.56109,69.426
0.53861,69.035
0.51711,68.449
0.49658,67.862
0.47801,67.275
0.46139,66.688
0.44673,66.102
0.43304,65.711
0.42229,65.124
0.41251,64.537
0.40371,63.95
0.39785,63.559
0.39296,62.973
0.3871,62.582
0.38221,62.19
0.3783,61.799
0.37341,61.604
0.3695,61.799
0.36461,62.777
0.3607,64.733
0.35679,68.84
0.35191,75.489
0.348,84.485
0.34409,94.655
0.34115,104.63
0.33724,114.02
0.33333,122.43
0.32942,129.27
0.32551,134.55
0.32063,137.87
0.31672,139.83
0.31281,140.42
0.3089,139.83
0.30499,138.66
0.30108,136.9
0.29717,134.94
0.29423,132.59
0.29228,130.05
0.28935,127.51
0.28641,124.58
0.2825,121.25
0.27859,117.93
0.27566,114.02
0.27175,109.71
0.26882,105.41
0.26491,100.72
0.261,96.415
0.25709,92.503
0.25513,88.983
0.25415,86.245
0.25513,84.094
0.25904,82.334
0.26882,81.16
0.28543,80.378
0.30987,79.791
0.34311,79.596
0.38319,79.4
0.42717,79.4
0.4741,79.4
0.52102,79.4
0.565,79.4
0.6002,79.4
0.62952,79.4
0.65689,79.205
0.68035,79.009
0.6999,78.618
0.71359,78.227
0.72336,77.836
0.72923,77.249
0.73021,76.662
0.72825,75.88
0.72336,75.293
0.71457,74.707
0.70479,74.12
0.69208,73.533
0.67644,72.947
0.65885,72.36
0.6393,71.773
0.61681,71.382
0.59433,70.795
0.57087,70.209
0.54741,69.622
0.5259,69.035
0.5044,68.644
0.48485,67.862
0.46725,67.471
0.45357,66.884
0.44184,66.297
0.43109,65.711
0.42131,65.124
0.41153,64.537
0.40371,64.146
0.39687,63.559
0.39101,63.168
0.38612,62.777
0.38123,62.386
0.37634,62.19
0.37146,62.386
0.36852,63.168
0.36461,65.124
0.3607,69.426
0.35679,76.076
0.35288,85.267
0.34897,95.437
0.34409,105.8
0.34018,115.38
0.33529,123.79
0.33236,130.44
0.3304,135.53
0.32649,139.05
0.32356,140.81
0.3216,141.59
0.31867,141.2
0.31476,140.03
0.31085,138.46
0.30694,136.31
0.30303,134.16
0.29912,131.81
0.29521,129.27
0.29228,126.34
0.28837,123.4
0.28446,120.08
0.28055,116.36
0.27859,112.26
0.27664,107.95
0.2737,103.46
0.26979,98.957
0.26588,94.85
0.26295,91.134
0.26002,88.201
0.261,85.658
0.26491,83.703
0.27566,82.334
0.29423,81.356
0.3216,80.769
0.35093,80.378
0.38416,80.183
0.42522,79.987
0.47214,79.987
0.51906,79.987
0.56598,79.987
0.60802,79.987
0.64516,79.987
0.67742,79.791
0.70283,79.596
0.72239,79.4
0.73705,79.009
0.74682,78.618
0.75171,78.227
0.75171,77.445
0.74976,76.858
0.74585,76.271
0.73803,75.685
0.72825,75.098
0.71554,74.511
0.6999,73.924
0.68231,73.533
0.66178,72.947
0.6393,72.36
0.61681,71.773
0.59531,71.382
0.57478,70.795
0.55327,70.209
0.53177,69.622
0.51026,69.035
0.49169,68.644
0.4741,68.057
0.45846,67.471
0.44477,67.08
0.43304,66.493
0.42326,66.102
0.41447,65.515
0.40762,65.124
0.40176,64.537
0.39687,64.146
0.39198,63.755
0.38807,63.755
0.38319,64.146
0.37928,65.124
0.37439,67.471
0.37048,72.164
0.36657,79.4
0.36168,88.983
0.35777,99.544
0.35288,110.1
0.34995,119.49
0.34702,127.71
0.34311,134.35
0.3392,139.05
0.33529,142.18
0.3304,143.74
0.32747,144.33
0.32356,143.74
0.31965,142.57
0.31672,140.81
0.31281,139.05
0.30987,136.9
0.30596,134.55
0.30401,132.2
0.30205,129.47
0.29912,126.53
0.29619,123.21
0.29228,119.69
0.28935,115.97
0.28641,111.86
0.28348,107.37
0.27957,102.87
0.27664,98.566
0.2737,94.85
0.27273,91.525
0.27468,88.788
0.27957,86.636
0.29032,85.072
0.30792,84.094
0.33431,83.312
0.36852,82.725
0.40958,82.529
0.45552,82.334
0.50342,82.334
0.55132,82.334
0.59629,82.334
0.63636,82.138
0.67253,81.943
0.69795,81.747
0.7175,81.552
0.73412,81.356
0.7478,80.965
0.75758,80.574
0.76246,79.987
0.7654,79.4
0.76442,78.814
0.75953,78.031
0.75269,77.445
0.74291,76.662
0.73021,76.076
0.71652,75.293
0.70186,74.707
0.68328,73.924
0.66373,73.338
0.64125,72.751
0.61877,72.164
0.59531,71.578
0.57283,70.991
0.55034,70.404
0.52981,69.818
0.51026,69.426
0.49267,68.84
0.47801,68.253
0.4653,67.666
0.45552,67.08
0.44673,66.688
0.43793,66.102
0.43011,65.515
0.42326,64.928
0.4174,64.537
0.41153,64.146
0.40665,63.95
0.40176,64.146
0.39687,65.124
0.39198,67.862
0.38807,72.947
0.38514,80.965
0.38123,90.743
0.37634,101.69
0.37146,112.06
0.36755,121.64
0.36266,129.86
0.35777,136.11
0.35288,140.42
0.348,143.16
0.34409,144.52
0.3392,144.92
0.33529,144.13
0.33138,142.76
0.32845,141
0.32551,139.05
0.3216,136.9
0.31769,134.55
0.31378,132.01
0.3089,129.27
0.30499,126.34
0.30108,123.01
0.29717,119.49
0.29326,115.58
0.28935,111.28
0.28641,106.78
0.28446,102.28
0.28055,97.979
0.27664,94.068
0.2737,90.743
0.2737,88.201
0.27859,86.05
0.29032,84.485
0.3089,83.312
0.33724,82.529
0.37243,82.138
0.41447,81.747
0.46041,81.552
0.50244,81.552
0.53959,81.356
0.57967,81.356
0.61779,81.16
0.652,80.965
0.68035,80.769
0.70283,80.378
0.72043,79.987
0.73314,79.596
0.74096,79.205
0.74487,78.618
0.74487,78.031
0.74194,77.249
0.73607,76.662
0.72825,75.88
0.71848,75.293
0.70577,74.707
0.6911,73.924
0.67351,73.338
0.65396,72.751
0.63343,72.164
0.61095,71.773
0.58749,71.186
0.56403,70.6
0.54057,70.013
0.52102,69.622
0.50342,69.035
0.48583,68.449
0.46921,67.862
0.45357,67.275
0.43988,66.688
0.42717,66.102
0.4174,65.711
0.40762,65.124
0.3998,64.537
0.39296,64.146
0.3871,63.559
0.38221,63.168
0.3783,62.777
0.37341,62.777
0.36852,63.168
0.36364,64.537
0.35973,67.666
0.35484,73.338
0.34995,81.747
0.34506,92.112
0.34115,102.87
0.33627,113.23
0.33138,122.43
0.32747,130.05
0.32356,136.11
0.31965,140.03
0.31574,142.57
0.31183,143.74
0.30792,143.74
0.30303,142.76
0.29912,141.2
0.29521,139.44
0.2913,137.29
0.28739,134.94
0.28348,132.4
0.27957,129.66
0.27761,126.73
0.27566,123.4
0.27273,119.88
0.26784,115.97
0.261,111.67
0.25611,107.17
0.2522,102.48
0.24829,97.979
0.24438,93.872
0.24145,90.352
0.23949,87.419
0.24242,85.072
0.24829,83.312
0.25904,82.138
0.27761,81.16
0.30499,80.769
0.34018,80.378
0.38221,80.183
0.42815,79.987
0.47507,79.987
0.52199,79.987
0.565,79.791
0.60313,79.791
0.63636,79.596
0.66276,79.4
0.68231,79.009
0.69501,78.814
0.70479,78.422
0.71261,77.836
0.71652,77.249
0.71652,76.662
0.71359,76.076
0.7087,75.489
0.6999,74.902
0.68817,74.12
0.67449,73.533
0.65787,72.751
0.64125,72.164
0.62366,71.773
0.60411,71.186
0.58162,70.6
0.55816,70.209
0.53568,69.622
0.51222,69.035
0.49071,68.449
0.47019,67.862
0.45259,67.471
0.43597,66.884
0.42131,66.297
0.40958,65.711
0.3998,65.319
0.39198,64.733
0.38416,64.146
0.37732,63.755
0.37146,63.168
0.36559,62.777
0.35973,62.386
0.35484,62.19
0.34995,62.19
0.34604,62.777
0.34213,64.342
0.33724,67.666
0.33431,73.338
0.33138,81.552
0.32747,91.525
0.32356,101.69
0.31965,111.47
0.31476,120.27
0.31085,127.51
0.30596,132.99
0.30205,136.9
0.29814,139.24
0.29423,140.42
0.28935,140.22
0.28543,139.24
0.2825,137.68
0.28055,135.53
0.27761,133.18
0.2737,130.83
0.27077,128.1
0.26686,125.16
0.26393,122.03
0.26002,118.32
0.25709,114.6
0.25415,110.3
0.25024,105.8
0.24731,101.3
0.24438,96.806
0.2434,92.894
0.24047,89.374
0.23754,86.441
0.23656,84.094
0.23851,82.334
0.24536,81.16
0.25806,80.183
0.27859,79.596
0.30792,79.4
0.34409,79.205
0.38612,79.009
0.43206,79.009
0.47214,78.814
0.50929,78.814
0.54741,78.618
0.58456,78.422
0.61681,78.227
0.64418,78.227
0.66667,77.836
0.68328,77.445
0.69501,77.054
0.70186,76.662
0.70577,76.076
0.70479,75.489
0.70088,74.902
0.69404,74.316
0.68524,73.533
0.67351,72.947
0.65885,72.36
0.64223,71.773
0.62268,71.186
0.60215,70.795
0.57967,70.209
0.55718,69.622
0.53372,69.231
0.51222,68.644
0.49071,68.057
0.47312,67.471
0.45846,66.884
0.44282,66.493
0.42913,65.906
0.41642,65.319
0.40469,64.928
0.39492,64.342
0.3871,63.755
0.37928,63.364
0.37243,62.777
0.36657,62.386
0.3607,61.799
0.35679,61.604
0.35386,61.408
0.35093,61.799
0.34702,62.777
0.34311,65.124
0.3392,69.818
0.33529,77.054
0.3304,86.441
0.32649,96.61
0.32258,106.78
0.31769,116.17
0.31378,124.19
0.30987,130.64
0.30694,135.33
0.30401,138.27
0.30108,140.03
0.29717,140.42
0.29423,139.83
0.29032,138.66
0.28641,136.7
0.2825,134.75
0.27859,132.2
0.27468,129.66
0.27077,126.92
0.26784,123.99
0.26491,120.67
0.26295,116.95
0.261,112.84
0.25806,108.54
0.25513,104.04
0.2522,99.348
0.24829,95.046
0.24438,91.134
0.24145,88.005
0.23949,85.267
0.23949,83.116
0.24438,81.552
0.25513,80.378
0.27077,79.791
0.2913,79.205
0.32063,79.009
0.35875,79.009
0.40176,79.009
0.4477,79.009
0.49462,79.009
0.53861,79.009
0.57967,79.009
0.61584,79.009
0.64614,78.814
0.67058,78.618
0.68719,78.227
0.69795,78.031
0.70577,77.64
0.71163,77.054
0.71359,76.467
0.71261,75.88
0.70772,75.293
0.70088,74.707
0.69013,74.12
0.67644,73.533
0.6608,72.947
0.64223,72.36
0.62366,71.773
0.60508,71.382
0.58358,70.795
0.56109,70.404
0.53861,70.013
0.51613,69.426
0.49462,69.035
0.47507,68.449
0.4565,67.862
0.44086,67.471
0.42717,67.08
0.41447,66.493
0.40469,66.102
0.39687,65.711
0.39003,65.124
0.38416,64.733
0.3783,64.146
0.37243,63.755
0.36755,63.559
0.36364,63.364
0.35875,63.559
0.35484,64.537
0.35093,66.688
0.34702,70.795
0.34311,77.64
0.3392,86.636
0.33724,96.806
0.33333,106.98
0.32942,116.36
0.32551,124.58
0.3216,131.23
0.31769,136.31
0.31378,139.64
0.31085,141.59
0.30694,142.18
0.30303,141.79
0.3001,140.81
0.29619,139.05
0.29423,137.09
0.29228,134.75
0.29032,132.4
0.28739,129.86
0.28446,127.12
0.28152,123.99
0.27957,120.86
0.27664,117.14
0.2737,113.04
0.27175,108.74
0.26882,104.24
0.26588,99.935
0.26393,95.828
0.26295,92.308
0.26197,89.374
0.26197,87.027
0.26491,85.072
0.27273,83.703
0.28837,82.725
0.31085,82.138
0.34115,81.747
0.3783,81.747
0.4262,81.747
0.48094,81.747
0.53177,81.552
0.57283,81.552
0.60802,81.552
0.64223,81.356
0.67449,81.16
0.70088,80.965
0.72239,80.378
0.739,79.987
0.75073,79.4
0.75758,78.618
0.76051,78.031
0.76051,77.249
0.7566,76.467
0.75073,75.88
0.74194,75.098
0.73021,74.511
0.71554,73.924
0.69892,73.533
0.68035,72.947
0.65982,72.36
0.63832,71.969
0.61486,71.382
0.59238,70.795
0.56989,70.404
0.54839,69.622
0.52884,69.035
0.51222,68.449
0.49756,67.862
0.48387,67.275
0.47116,66.688
0.45943,66.102
0.44966,65.711
0.44086,65.124
0.43304,64.537
0.4262,63.95
0.42033,63.559
0.41544,62.973
0.41056,62.777
0.40665,62.973
0.40274,63.559
0.39883,65.515
0.39492,69.426
0.39003,76.271
0.38514,85.463
0.38123,96.024
0.37634,106.58
0.37146,116.56
0.36657,125.16
0.36168,132.4
0.35679,137.68
0.35191,141
0.348,143.16
0.34506,143.94
0.34213,143.55
0.33822,142.37
0.33333,140.61
0.32942,138.46
0.32551,136.11
0.32063,133.57
0.31672,131.03
0.31281,128.29
0.30792,125.16
0.30401,121.84
0.30108,118.32
0.29814,114.21
0.29521,110.1
0.2913,105.61
0.28739,101.11
0.28348,96.61
0.27859,92.894
0.27566,89.57
0.2737,86.832
0.27566,84.681
0.28348,83.116
0.29814,81.943
0.3216,81.16
0.34702,80.769
0.37732,80.378
0.41642,80.378
0.46139,80.378
0.50831,80.183
0.55425,80.183
0.59629,80.183
0.63441,79.987
0.66764,79.791
0.69404,79.596
0.71457,79.205
0.73021,78.814
0.739,78.227
0.74291,77.836
0.74487,77.249
0.74389,76.467
0.73998,75.88
0.73412,75.098
0.72434,74.511
0.71261,73.729
0.69795,73.142
0.68133,72.555
0.66178,72.164
0.64125,71.578
0.61877,70.991
0.59824,70.6
0.57771,70.013
0.55621,69.426
0.53372,68.84
0.5132,68.253
0.49267,67.666
0.47507,67.08
0.45846,66.493
0.44477,65.906
0.43206,65.319
0.42131,64.928
0.41251,64.342
0.40567,63.95
0.3998,63.364
0.39394,62.973
0.38905,62.386
0.38416,62.19
0.37928,61.995
0.37439,62.19
0.3695,63.168
0.36461,65.515
0.3607,70.013
0.35582,77.249
0.35093,86.832
0.34604,97.197
0.34311,107.56
0.3392,116.95
0.33529,125.16
0.33138,131.62
0.32649,136.31
0.32258,139.24
0.31769,141
0.31378,141.4
0.30987,140.81
0.30596,139.44
0.30108,137.68
0.29717,135.33
0.29423,132.99
0.29228,130.25
0.28935,127.51
0.28543,124.38
0.2825,121.06
0.27859,117.34
0.27468,113.23
0.27077,108.93
0.26784,104.43
0.26393,99.935
0.26002,95.632
0.25709,91.525
0.25318,88.201
0.2522,85.463
0.25318,83.312
0.25611,81.747
0.26393,80.574
0.27957,79.791
0.30205,79.205
0.33333,79.009
0.37243,78.814
0.41642,78.814
0.46432,78.814
0.51222,78.814
0.55718,78.618
0.59335,78.618
0.62366,78.422
0.652,78.227
0.67742,78.031
0.69795,77.836
0.71359,77.445
0.72434,77.054
0.73021,76.467
0.73216,75.88
0.73118,75.098
0.7263,74.511
0.71848,73.729
0.70772,73.142
0.69599,72.555
0.68133,71.969
0.66373,71.382
0.64418,70.795
0.62268,70.209
0.59922,69.818
0.57576,69.231
0.5523,68.644
0.52884,68.253
0.50733,67.471
0.4868,67.08
0.46921,66.493
0.45455,65.906
0.44184,65.319
0.43011,64.733
0.41935,64.342
0.41056,63.755
0.40176,63.168
0.39492,62.777
0.38807,62.19
0.38319,61.799
0.37732,61.408
0.37243,61.408
0.36852,61.408
0.36461,61.799
0.36168,63.168
0.35875,66.102
0.35484,71.382
0.35093,79.205
0.34702,88.788
0.34213,98.957
0.33724,108.74
0.33333,117.34
0.32845,124.77
0.32356,130.64
0.31965,134.75
0.31574,137.29
0.31281,138.46
0.30987,138.66
0.30694,137.68
0.30303,136.31
0.29912,134.16
0.29521,131.81
0.2913,129.27
0.28739,126.53
0.28446,123.6
0.28055,120.08
0.27761,116.56
0.2737,112.65
0.27077,108.34
0.26979,103.85
0.26686,99.348
0.26393,94.85
0.26002,90.939
0.25709,87.419
0.25415,84.681
0.2522,82.529
0.25318,80.769
0.25806,79.596
0.26882,78.814
0.28837,78.227
0.31476,78.031
0.34409,78.031
0.37732,77.836
0.41838,78.031
0.46334,78.031
0.50929,77.836
0.55425,77.836
0.59531,77.64
0.63148,77.64
0.66178,77.445
0.68622,77.054
0.70479,76.858
0.71848,76.467
0.72532,75.88
0.72825,75.293
0.72923,74.707
0.7263,74.12
0.7175,73.533
0.70381,72.947
0.69013,72.36
0.67449,71.773
0.65689,71.186
0.63734,70.6
0.61681,70.013
0.59531,69.426
0.56891,69.035
0.54741,68.449
0.53079,67.862
0.51222,67.275
0.49365,66.688
0.47507,66.297
0.45846,65.711
0.44379,65.124
0.43109,64.537
0.42033,64.146
0.41056,63.559
0.40274,62.973
0.39589,62.582
0.39003,61.995
0.38612,61.604
0.38123,61.213
0.37732,60.821
0.37243,60.821
0.36852,61.213
0.36461,62.386
0.3607,64.928
0.35679,69.622
0.35288,77.054
0.34897,86.441
0.34506,96.61
0.34018,106.39
0.33724,115.38
0.33333,123.01
0.32942,129.27
0.32649,133.57
0.32258,136.31
0.31867,137.87
0.31476,138.07
0.31085,137.29
0.30694,135.72
0.30303,133.77
0.3001,131.62
0.29619,129.07
0.29326,126.53
0.2913,123.6
0.28935,120.47
0.28543,116.95
0.2825,113.23
0.27859,108.93
0.2737,104.43
0.27077,99.935
0.26784,95.437
0.26393,91.525
0.26002,88.005
0.25806,85.072
0.25611,82.725
0.25904,80.769
0.26393,79.4
0.26979,78.618
0.28348,78.031
0.31574,77.64
0.35093,77.445
0.38025,77.445
0.41838,77.445
0.46237,77.445
0.51613,77.445
0.57283,77.445
0.60997,77.445
0.63734,77.445
0.65885,77.445
0.67449,77.249
0.69013,76.858
0.70479,76.467
0.71457,76.076
0.71945,75.685
0.72141,75.098
0.71945,74.511
0.71457,73.924
0.70674,73.338
0.69501,72.751
0.6784,72.164
0.65591,71.773
0.64027,71.186
0.62659,70.795
0.60215,70.209
0.57869,69.622
0.56109,69.231
0.54057,68.644
0.51515,68.253
0.49365,67.666
0.47801,67.275
0.46334,66.688
0.4477,66.297
0.435,65.711
0.4262,65.319
0.4174,64.733
0.40762,64.342
0.39785,63.755
0.39003,63.364
0.38416,62.777
0.37928,62.386
0.37537,62.19
0.37048,62.19
0.36755,62.582
0.36461,63.755
0.3607,66.297
0.35777,70.991
0.35582,78.422
0.35288,87.81
0.348,97.979
0.34409,107.95
0.34018,117.14
0.33627,124.97
0.33236,131.42
0.32942,135.92
0.32551,138.85
0.3216,140.42
0.31867,140.81
0.31672,140.22
0.31378,138.85
0.30987,137.09
0.30694,134.94
0.30401,132.59
0.3001,130.05
0.29717,127.31
0.29423,124.38
0.2913,121.25
0.28837,117.73
0.28543,113.82
0.28348,109.71
0.2825,105.22
0.27957,100.72
0.27664,96.61
0.27468,92.699
0.27273,89.374
0.27273,86.832
0.27566,84.681
0.28446,83.116
0.3001,81.943
0.32258,81.356
0.35386,80.965
0.39198,80.769
0.42913,80.574
0.4653,80.769
0.50733,80.769
0.55034,80.769
0.5914,80.769
0.62854,80.769
0.6608,80.574
0.68719,80.378
0.7087,80.183
0.72434,79.791
0.73509,79.4
0.74096,78.814
0.74291,78.227
0.74194,77.64
0.73803,77.054
0.73118,76.467
0.72239,75.88
0.71065,75.098
0.69697,74.511
0.68035,73.924
0.66178,73.338
0.64125,72.751
0.61975,72.36
0.59726,71.773
0.57478,71.186
0.55621,70.6
0.53861,70.013
0.52004,69.426
0.50244,68.644
0.4868,68.057
0.47312,67.471
0.46041,66.884
0.44966,66.297
0.44086,65.711
0.43304,65.319
0.4262,64.733
0.42033,64.146
0.41642,63.755
0.41251,63.364
0.40762,62.973
0.40371,62.973
0.3998,63.364
0.39492,64.537
0.39101,67.275
0.3871,72.555
0.38319,80.378
0.3783,90.157
0.37439,100.52
0.37048,110.5
0.36559,119.49
0.36266,127.31
0.35875,133.57
0.35582,137.87
0.35191,140.81
0.348,142.18
0.34409,142.37
0.34018,141.59
0.33627,140.22
0.33236,138.27
0.32845,136.11
0.32454,133.77
0.32063,131.42
0.31769,128.68
0.31574,125.75
0.31281,122.43
0.3089,119.1
0.30596,115.19
0.30205,111.08
0.29912,106.78
0.29521,102.28
0.2913,97.784
0.28739,93.677
0.28446,90.157
0.28446,87.223
0.28837,84.876
0.29521,83.116
0.30792,81.943
0.32845,80.965
0.35679,80.378
0.39296,80.183
0.43402,79.987
0.47801,79.987
0.52199,79.987
0.565,79.987
0.60411,79.791
0.63832,79.791
0.66667,79.791
0.68719,79.4
0.70088,79.205
0.71261,78.814
0.72141,78.422
0.72727,77.836
0.72923,77.249
0.72727,76.662
0.72336,75.88
0.71554,75.293
0.70577,74.707
0.69306,73.924
0.6784,73.338
0.6608,72.555
0.64418,72.164
0.62659,71.578
0.60606,70.991
0.58456,70.404
0.56207,69.818
0.53959,69.231
0.51808,68.84
0.49853,68.253
0.47996,67.666
0.46334,67.275
0.4477,66.688
0.43402,66.102
0.42326,65.515
0.41544,64.928
0.40762,64.537
0.3998,63.95
0.39296,63.559
0.3871,62.973
0.38221,62.582
0.37732,62.19
0.37243,61.799
0.36755,61.799
0.36266,62.386
0.35777,63.755
0.35386,66.884
0.34995,72.555
0.34702,80.965
0.34311,91.134
0.33822,101.89
0.33431,111.86
0.32942,121.06
0.32454,128.49
0.32063,134.35
0.31574,138.27
0.31183,140.81
0.30792,141.79
0.30401,141.79
0.30108,140.81
0.29814,139.24
0.29521,137.09
0.29228,134.94
0.28837,132.4
0.28543,129.66
0.28152,126.53
0.27859,123.4
0.27468,119.88
0.27175,116.17
0.26784,112.06
0.26491,107.76
0.261,103.26
0.25904,98.566
0.25709,94.263
0.25415,90.548
0.2522,87.419
0.2522,84.876
0.25611,82.921
0.26588,81.356
0.2825,80.378
0.30792,79.791
0.34115,79.4
0.38123,79.205
0.4262,79.009
0.46725,79.009
0.50538,79.009
0.54643,79.009
0.58553,79.009
0.62072,79.009
0.65103,78.814
0.67644,78.422
0.69501,78.227
0.7087,77.836
0.71848,77.249
0.72336,76.662
0.72434,76.271
0.72141,75.489
0.71554,74.902
0.70772,74.316
0.69697,73.729
0.68426,73.142
0.66862,72.555
0.65005,71.969
0.6305,71.382
0.60899,70.795
0.58553,70.404
0.56305,69.818
0.53959,69.231
0.51808,68.84
0.49853,68.057
0.48289,67.471
0.46628,67.08
0.45064,66.493
0.43695,65.906
0.42424,65.319
0.41349,64.733
0.40469,64.146
0.39687,63.559
0.38905,62.973
0.38319,62.582
0.37732,62.19
0.37243,61.604
0.36852,61.408
0.36559,61.213
0.36168,61.408
0.35777,62.19
0.35288,63.95
0.34897,67.862
0.34506,74.12
0.34018,82.725
0.33627,92.503
0.33138,102.48
0.32747,111.67
0.32356,119.88
0.31965,126.73
0.31672,131.62
0.31378,135.14
0.30987,137.09
0.30596,137.68
0.30205,137.29
0.29814,136.11
0.29423,134.16
0.2913,132.01
0.28739,129.47
0.28348,126.92
0.27957,123.99
0.27761,120.67
0.27566,117.14
0.27273,113.43
0.26979,109.32
0.26588,104.82
0.26295,100.13
0.26002,95.632
0.25611,91.525
0.25318,88.005
0.25024,85.072
0.24829,82.529
0.25024,80.769
0.25611,79.4
0.26588,78.422
0.28152,77.836
0.30499,77.64
0.33724,77.445
0.37634,77.445
0.41935,77.445
0.4653,77.445
0.51026,77.445
0.55327,77.445
0.59238,77.445
0.62561,77.249
0.65298,77.249
0.67155,76.858
0.68524,76.662
0.69599,76.271
0.70381,75.88
0.70772,75.293
0.70772,74.707
0.70479,74.12
0.69795,73.533
0.68817,72.947
0.67546,72.36
0.65982,71.773
0.64125,71.186
0.6217,70.6
0.60215,70.013
0.58358,69.426
0.56207,69.035
0.54057,68.449
0.51906,67.862
0.49756,67.275
0.47898,66.884
0.46139,66.297
0.44575,65.711
0.43206,65.124
0.41935,64.733
0.40958,64.146
0.40176,63.559
0.39589,63.168
0.38905,62.777
0.38416,62.19
0.3783,61.799
0.37439,61.408
0.3695,61.017
0.36559,60.821
0.36168,60.821
0.35777,61.408
0.35386,63.168
0.34995,66.493
0.34604,72.164
0.34311,80.378
0.34018,90.157
0.33724,100.33
0.33333,109.71
0.32942,118.12
0.32551,125.36
0.3216,130.83
0.31769,134.75
0.31378,136.9
0.30987,137.87
0.30596,137.87
0.30205,136.9
0.3001,135.14
0.29717,132.99
0.29423,130.64
0.2913,127.9
0.28837,125.16
0.28446,122.03
0.28152,118.71
0.27761,114.99
0.27468,110.89
0.27175,106.58
0.26784,102.09
0.26491,97.588
0.261,93.286
0.25904,89.374
0.25709,86.245
0.25611,83.507
0.25611,81.552
0.26002,79.987
0.26979,79.009
0.28641,78.227
0.31085,77.836
0.34311,77.64
0.38123,77.445
0.42522,77.445
0.47116,77.445
0.51124,77.445
0.54741,77.445
0.58456,77.445
0.61877,77.249
0.64907,77.249
0.67449,77.054
0.69404,76.662
0.7087,76.467
0.7175,75.88
0.72239,75.489
0.72336,74.902
0.72141,74.316
0.71457,73.533
0.70674,72.947
0.69501,72.36
0.68133,71.773
0.66569,71.186
0.64614,70.6
0.62561,70.013
0.60411,69.622
0.58065,69.035
0.55816,68.644
0.53568,68.057
0.51417,67.471
0.49365,67.08
0.47801,66.493
0.46334,65.906
0.44966,65.515
0.43695,64.928
0.42522,64.342
0.41544,63.95
0.40665,63.364
0.39883,62.973
0.39198,62.582
0.38612,61.995
0.38123,61.604
0.37634,61.213
0.37243,61.017
0.36852,61.017
0.36559,61.604
0.36266,62.777
0.35875,65.515
0.35679,70.6
0.35582,78.227
0.35288,87.81
0.34897,97.979
0.34506,107.76
0.34018,116.56
0.33627,123.99
0.33138,130.05
0.32845,134.35
0.32551,137.09
0.32258,138.46
0.31867,138.66
0.31476,137.68
0.31085,136.31
0.30694,134.35
0.30303,132.01
0.29912,129.66
0.29521,126.92
0.2913,123.99
0.28837,120.86
0.28446,117.34
0.2825,113.43
0.28055,109.32
0.27761,105.02
0.27468,100.52
0.27175,96.024
0.26784,92.112
0.26491,88.788
0.26197,85.854
0.26197,83.507
0.26491,81.747
0.2737,80.574
0.29032,79.791
0.30987,79.4
0.33529,79.205
0.3695,79.009
0.41153,79.009
0.45748,79.205
0.50538,79.205
0.5523,79.205
0.59629,79.205
0.63539,79.205
0.66862,79.205
0.69599,79.009
0.7175,78.814
0.73314,78.422
0.74291,78.031
0.7478,77.64
0.74976,77.054
0.74878,76.467
0.74487,75.88
0.73705,75.293
0.7263,74.707
0.71359,73.924
0.69697,73.533
0.6784,72.751
0.65787,72.164
0.63539,71.773
0.61388,71.186
0.59433,70.795
0.57185,70.209
0.55034,69.622
0.52884,69.231
0.50929,68.644
0.49169,68.057
0.47605,67.666
0.46237,67.08
0.45064,66.688
0.43988,66.102
0.43109,65.711
0.42424,65.319
0.41838,64.733
0.41447,64.342
0.40958,63.755
0.40567,63.559
0.40176,63.364
0.39785,63.364
0.39394,63.95
0.39003,65.319
0.38612,68.644
0.38221,74.316
0.3783,82.529
0.37439,92.503
0.37146,102.67
0.36852,112.45
0.36559,121.25
0.36168,128.68
0.35777,134.75
0.35386,138.66
0.34995,141
0.34604,142.18
0.34311,142.18
0.3392,141.2
0.33627,139.83
0.33236,137.87
0.3304,135.53
0.32845,133.18
0.32551,130.64
0.32258,127.71
0.31965,124.77
0.31672,121.45
0.31378,117.93
0.31085,114.02
0.30792,109.91
0.30499,105.61
0.30205,101.11
0.29912,97.001
0.29619,93.09
0.29521,89.961
0.29521,87.419
0.29912,85.267
0.30792,83.703
0.32356,82.725
0.34702,81.943
0.3783,81.356
0.41642,81.16
0.46041,81.16
0.50733,81.16
0.55425,80.965
0.6002,80.965
0.63636,80.965
0.66569,80.769
0.69404,80.378
0.71848,80.183
0.73803,79.791
0.75367,79.4
0.76344,78.814
0.77028,78.227
0.77224,77.64
0.77028,76.858
0.76637,76.271
0.75855,75.489
0.7478,74.902
0.73509,74.12
0.72141,73.533
0.70381,72.947
0.68524,72.36
0.66373,71.969
0.64125,71.382
0.61779,70.795
0.59433,70.404
0.57185,69.818
0.55034,69.231
0.52981,68.644
0.51026,68.057
0.4956,67.471
0.48289,66.884
0.47019,66.297
0.45846,65.906
0.44868,65.319
0.43988,64.733
0.43206,64.342
0.42424,63.755
0.41838,63.168
0.41153,62.777
0.40567,62.582
0.40078,62.386
0.39492,62.777
0.39003,63.755
0.38612,66.493
0.38221,71.578
0.37732,79.205
0.37146,88.983
0.36657,99.544
0.36168,109.91
0.35582,119.3
0.35093,127.12
0.34604,133.38
0.34115,137.68
0.33627,140.42
0.33236,141.79
0.32942,141.98
0.32649,141.2
0.32258,139.83
0.31867,137.87
0.31378,135.72
0.30987,133.18
0.30596,130.64
0.30108,127.9
0.29717,124.97
0.29326,121.64
0.28935,117.93
0.28543,114.21
0.2825,109.91
0.28055,105.61
0.27761,100.91
0.27468,96.61
0.27077,92.503
0.26686,89.179
0.26588,86.245
0.26686,84.094
0.27468,82.529
0.28837,81.16
0.31085,80.378
0.34115,79.791
0.37439,79.596
0.4086,79.596
0.45161,79.596
0.49853,79.596
0.54448,79.596
0.58847,79.4
0.62854,79.4
0.66178,79.205
0.68915,79.009
0.71065,78.814
0.72727,78.422
0.73803,78.031
0.74487,77.445
0.74585,76.858
0.74389,76.271
0.73998,75.685
0.73314,75.098
0.72434,74.316
0.71163,73.533
0.69697,72.947
0.67937,72.36
0.65982,71.969
0.63832,71.382
0.61584,70.795
0.59238,70.209
0.57087,69.622
0.55132,69.035
0.53079,68.644
0.51026,68.057
0.49071,67.471
0.47214,66.884
0.4565,66.297
0.44282,65.711
0.43011,65.124
0.42033,64.733
0.41056,64.146
0.40274,63.559
0.39589,63.168
0.39101,62.582
0.3871,62.19
0.38221,61.799
0.3783,61.604
0.37341,61.604
0.3695,61.995
0.36461,63.559
0.3607,66.688
0.35582,72.164
0.35191,80.183
0.34702,90.157
0.34311,100.33
0.3392,110.3
0.33627,119.1
0.33236,126.53
0.32845,132.2
0.32356,136.11
0.31965,138.46
0.31574,139.64
0.31085,139.64
0.30694,138.85
0.30303,137.09
0.29912,135.14
0.29326,132.79
0.28543,130.25
0.28055,127.51
0.27761,124.38
0.2737,121.25
0.27077,117.54
0.26686,113.62
0.26393,109.32
0.26002,104.82
0.25709,100.33
0.25318,96.024
0.25024,91.917
0.24633,88.592
0.24438,85.854
0.24438,83.507
0.24731,81.943
0.25513,80.574
0.26784,79.791
0.28935,79.205
0.31867,78.814
0.35484,78.814
0.39785,78.618
0.44379,78.618
0.48974,78.618
0.5347,78.618
0.57576,78.618
0.6129,78.422
0.6393,78.227
0.65982,78.031
0.6784,77.836
0.69306,77.445
0.70381,77.054
0.70968,76.467
0.71261,75.88
0.71163,75.293
0.70674,74.707
0.69892,73.924
0.68817,73.338
0.67449,72.751
0.65982,72.164
0.64418,71.578
0.62463,70.991
0.60411,70.404
0.5826,70.013
0.55914,69.426
0.53666,69.035
0.51515,68.449
0.49462,67.862
0.47605,67.275
0.45846,66.688
0.44282,66.102
0.43109,65.711
0.42131,65.124
0.41153,64.537
0.40274,63.95
0.39492,63.559
0.38807,62.973
0.38221,62.582
0.37634,61.995
0.37146,61.604
0.36657,61.408
0.36266,61.213
0.35777,61.604
0.35386,62.386
0.35093,64.733
0.348,69.035
0.34409,75.685
0.34018,84.485
0.33627,94.459
0.33236,104.24
0.32747,113.43
0.32356,121.45
0.31867,127.9
0.31476,132.59
0.31085,135.92
0.30694,137.68
0.30401,138.07
0.30108,137.48
0.29814,136.31
0.29521,134.35
0.2913,132.01
0.28837,129.66
0.28446,126.92
0.28055,123.79
0.27761,120.47
0.2737,116.95
0.26979,113.04
0.26686,108.93
0.26393,104.43
0.26197,99.935
0.26002,95.437
0.25709,91.33
0.25415,87.81
0.25122,84.876
0.24927,82.725
0.25024,80.769
0.25611,79.596
0.26686,78.618
0.28543,78.227
0.31183,78.031
0.34506,77.836
0.37928,77.836
0.41544,78.031
0.4565,78.031
0.50147,78.031
0.54448,78.031
0.58358,78.031
0.61877,77.836
0.64809,77.64
0.67155,77.445
0.68915,77.054
0.70186,76.662
0.71065,76.076
0.71359,75.489
0.71359,75.098
0.70968,74.316
0.70381,73.729
0.69404,73.142
0.68231,72.555
0.66764,71.969
0.65005,71.382
0.6305,70.795
0.60899,70.404
0.58651,69.818
0.56403,69.231
0.54057,68.84
0.52102,68.253
0.50342,67.666
0.48485,67.275
0.46823,66.688
0.45161,66.102
0.43793,65.515
0.4262,64.928
0.41544,64.537
0.40567,63.95
0.39785,63.364
0.39101,62.973
0.38514,62.386
0.38025,61.995
0.37537,61.408
0.37243,61.213
0.36852,61.017
0.36461,61.408
0.3607,62.19
0.35679,64.146
0.35288,68.057
0.34897,74.707
0.34506,83.312
0.34115,93.481
0.33627,103.46
0.33236,112.65
0.32942,120.86
0.32649,127.51
0.32258,132.59
0.31867,136.11
0.31476,137.87
0.31085,138.66
0.30694,138.27
0.30303,137.09
0.29912,135.33
0.29619,133.18
0.29228,130.83
0.28935,128.29
0.28543,125.36
0.28348,122.43
0.28152,118.9
0.27859,115.19
0.27566,111.28
0.27175,106.98
0.26882,102.48
0.26588,97.979
0.26197,93.481
0.25806,89.765
0.25513,86.636
0.25318,83.898
0.25415,81.943
0.25806,80.378
0.26588,79.4
0.28152,78.618
0.30401,78.227
0.33529,78.031
0.37243,77.836
0.41544,78.031
0.46139,78.031
0.50831,78.031
0.5523,78.031
0.59335,78.031
0.62854,78.031
0.65787,77.836
0.67937,77.64
0.69404,77.445
0.70674,77.054
0.71652,76.467
0.72141,76.076
0.72336,75.489
0.72141,74.902
0.71652,74.316
0.70772,73.729
0.69599,73.142
0.68133,72.555
0.66471,71.969
0.64712,71.382
0.62952,70.795
0.60899,70.404
0.58651,69.818
0.56305,69.426
0.54057,68.84
0.51906,68.449
0.49756,67.862
0.47898,67.471
0.46139,66.884
0.44575,66.297
0.43206,65.906
0.42033,65.319
0.41153,64.928
0.40469,64.342
0.39785,63.95
0.39101,63.364
0.38514,62.973
0.37928,62.582
0.37537,62.19
0.37048,62.19
0.36657,62.582
0.36266,63.364
0.35875,65.319
0.35484,69.426
0.35093,76.271
0.34897,85.072
0.34506,95.241
0.34115,105.22
0.33724,114.6
0.33333,122.62
0.32942,129.47
0.32454,134.35
0.32063,137.68
0.31672,139.44
0.31281,140.03
0.3089,139.64
0.30596,138.46
0.30303,136.7
0.30108,134.75
0.29814,132.4
0.29423,129.86
0.2913,127.12
0.28837,124.19
0.28543,121.06
0.28152,117.54
0.27859,113.82
0.27566,109.71
0.27273,105.22
0.26979,100.91
0.26784,96.61
0.26588,92.894
0.26393,89.57
0.26197,87.027
0.26295,84.876
0.26979,83.312
0.2825,82.138
0.30205,81.356
0.32845,80.965
0.36266,80.769
0.40371,80.574
0.44966,80.574
0.49756,80.574
0.53861,80.769
0.57576,80.769
0.61388,80.574
0.64907,80.574
0.68035,80.378
0.70577,80.183
0.7263,79.791
0.74096,79.4
0.75073,78.814
0.7566,78.422
0.75855,77.836
0.7566,77.054
0.75073,76.467
0.74291,75.685
0.73314,75.098
0.71945,74.707
0.70479,74.12
0.68622,73.533
0.66667,72.947
0.64516,72.36
0.62268,71.969
0.6002,71.382
0.57771,70.795
0.55523,70.209
0.53666,69.622
0.52004,69.035
0.5044,68.449
0.48876,67.862
0.47605,67.275
0.46432,66.493
0.45357,65.906
0.44477,65.319
0.43695,64.928
0.43011,64.342
0.42424,63.755
0.41935,63.364
0.41447,62.973
0.41056,62.973
0.40665,63.168
0.40371,64.342
0.3998,66.688
0.39492,71.382
0.39101,78.814
0.3871,88.201
0.38221,98.566
0.37732,108.74
0.37341,118.12
0.36852,126.34
0.36461,132.79
0.3607,137.48
0.35875,140.61
0.35484,142.18
0.35093,142.57
0.348,141.98
0.34409,140.81
0.34018,139.05
0.33627,136.9
0.33236,134.55
0.32942,132.2
0.32551,129.66
0.3216,126.92
0.31769,123.79
0.31574,120.47
0.31378,116.75
0.31085,112.84
0.30694,108.54
0.30401,104.04
0.3001,99.544
0.29619,95.437
0.29228,91.721
0.29032,88.592
0.2913,86.05
0.29619,84.289
0.30792,82.725
0.32454,81.747
0.34506,81.16
0.37634,80.769
0.41447,80.574
0.45846,80.574
0.50538,80.574
0.5523,80.574
0.59726,80.574
0.63734,80.378
0.67155,80.183
0.70088,79.987
0.72336,79.791
0.73998,79.4
0.75073,78.814
0.75562,78.227
0.75855,77.64
0.75953,77.054
0.7566,76.271
0.75073,75.685
0.74291,75.098
0.73216,74.316
0.71848,73.533
0.70283,72.947
0.68426,72.36
0.66373,71.969
0.64321,71.382
0.62366,70.795
0.60117,70.404
0.57869,69.818
0.55523,69.231
0.53275,68.84
0.51222,68.253
0.49267,67.666
0.47605,67.08
0.46041,66.493
0.4477,65.906
0.43597,65.515
0.4262,64.928
0.41838,64.537
0.41251,63.95
0.40567,63.364
0.40078,62.973
0.39492,62.582
0.39003,62.19
0.38416,62.19
0.37928,62.582
0.37439,64.146
0.3695,67.471
0.36461,73.142
0.35973,81.552
0.35582,91.721
0.35191,102.48
0.348,112.45
0.34311,121.45
0.33822,128.88
0.33333,134.55
0.32845,138.46
0.32356,140.81
0.31965,141.98
0.31574,141.79
0.31085,140.81
0.30694,139.24
0.30303,137.29
0.3001,134.94
0.29814,132.59
0.29521,130.05
0.29228,127.12
0.28837,123.99
0.28446,120.67
0.28152,116.95
0.27761,113.04
0.27468,108.74
0.27077,104.24
0.26784,99.739
0.26393,95.437
0.261,91.721
0.26002,88.592
0.25904,85.854
0.26002,83.898
0.26686,82.334
0.27957,81.16
0.30108,80.574
0.3304,79.987
0.36852,79.791
0.41251,79.791
0.46041,79.791
0.50831,79.596
0.55621,79.596
0.59433,79.596
0.62561,79.4
0.65591,79.205
0.68328,79.009
0.70479,78.618
0.72239,78.227
0.73412,77.836
0.74096,77.249
0.74487,76.662
0.74389,76.076
0.73998,75.489
0.73314,74.902
0.72336,74.12
0.71261,73.533
0.69795,72.751
0.68133,72.164
0.66276,71.578
0.64125,70.991
0.61877,70.6
0.59531,70.013
0.57185,69.426
0.54839,69.035
0.5259,68.449
0.50538,67.862
0.48583,67.275
0.47019,66.688
0.45748,66.102
0.44477,65.711
0.43304,65.124
0.42229,64.733
0.41251,64.146
0.40469,63.559
0.39687,63.168
0.39101,62.582
0.38514,62.19
0.38025,61.799
0.37537,61.799
0.37146,61.995
0.36852,62.973
0.36461,65.124
0.35973,69.426
0.35484,76.271
0.35093,85.267
0.34604,95.241
0.34115,105.41
0.33627,114.6
0.33138,122.62
0.32649,129.07
0.3216,133.96
0.31769,137.09
0.31378,138.85
0.31183,139.24
0.30792,138.85
0.30499,137.48
0.30108,135.72
0.29717,133.57
0.29326,131.03
0.28935,128.49
0.28543,125.55
0.2825,122.62
0.27859,119.3
0.27468,115.58
0.27273,111.47
0.27077,107.17
0.26882,102.48
0.26588,97.979
0.26197,93.677
0.25904,89.961
0.25513,86.832
0.25318,84.289
0.25415,82.334
0.25806,80.769
0.26882,79.791
0.28641,79.205
0.31281,78.814
0.34115,78.618
0.37341,78.422
0.41447,78.422
0.46041,78.422
0.50635,78.227
0.5523,78.227
0.59433,78.227
0.63148,78.227
0.66178,78.031
0.68719,77.64
0.70674,77.445
0.71848,77.054
0.72141,76.662
0.72239,76.076
0.72239,75.489
0.71945,74.902
0.71457,74.316
0.70674,73.729
0.69599,73.142
0.68231,72.555
0.66569,71.969
0.64712,71.382
0.62659,70.795
0.60411,70.209
0.58456,69.622
0.565,69.231
0.5435,68.644
0.52199,68.057
0.50147,67.471
0.48192,66.884
0.46432,66.297
0.44868,65.906
0.435,65.319
0.42326,64.733
0.41349,64.342
0.40469,63.755
0.39687,63.168
0.39101,62.777
0.38612,62.19
0.38221,61.799
0.37732,61.408
0.37243,61.408
0.36852,61.408
0.36461,62.386
0.35973,64.342
0.35582,68.449
0.35191,74.902
0.348,83.703
0.34311,93.872
0.34018,103.85
0.33724,113.23
0.33333,121.45
0.32942,128.1
0.32551,133.18
0.3216,136.51
0.31769,138.46
0.31378,139.05
0.30987,138.66
0.30596,137.48
0.30205,135.72
0.29814,133.57
0.29423,131.42
0.29228,128.88
0.29032,126.14
0.28739,123.21
0.28348,119.88
0.28055,116.36
0.27664,112.26
0.2737,107.95
0.26979,103.46
0.26686,98.957
0.26393,94.655
0.26002,90.939
0.25709,87.614
0.25513,84.876
0.25611,82.725
0.25904,81.16
0.26588,79.987
0.28055,79.4
0.30205,78.814
0.33138,78.618
0.3695,78.422
0.41251,78.422
0.45846,78.422
0.5044,78.422
0.54936,78.227
0.5914,78.227
0.62366,78.227
0.64907,78.031
0.67253,77.64
0.69306,77.445
0.7087,77.054
0.71945,76.662
0.7263,76.076
0.72923,75.489
0.72825,74.902
0.72434,74.316
0.71652,73.729
0.70674,73.142
0.69404,72.36
0.68035,71.773
0.66373,71.186
0.64418,70.6
0.62366,70.209
0.60117,69.622
0.57771,69.035
0.55523,68.644
0.53275,68.057
0.51222,67.471
0.49267,67.08
0.4741,66.493
0.45846,65.906
0.44575,65.515
0.435,65.124
0.42522,64.537
0.41642,64.146
0.40762,63.559
0.40078,63.168
0.39394,62.777
0.38807,62.19
0.38221,61.995
0.37732,61.799
0.37341,61.995
0.36852,62.777
0.36461,64.537
0.36168,68.449
0.35875,74.902
0.35484,83.703
0.34995,93.872
0.34604,104.24
0.34115,113.62
0.33724,122.23
0.33236,129.07
0.32845,134.35
0.32356,137.87
0.31965,140.03
0.31574,140.81
0.31183,140.61
0.30987,139.44
0.30596,137.68
0.30303,135.72
0.29912,133.38
0.29521,131.03
0.2913,128.29
0.28837,125.36
0.28446,122.23
0.28152,118.9
0.27761,115.19
0.27468,111.08
0.27273,106.58
0.27077,102.09
0.26784,97.784
0.26491,93.677
0.26197,90.352
0.25904,87.419
0.25904,85.267
0.26197,83.507
0.26979,82.334
0.28543,81.356
0.30792,80.965
0.3392,80.574
0.37732,80.574
0.41447,80.378
0.45259,80.378
0.4956,80.378
0.53959,80.378
0.5826,80.378
0.62072,80.378
0.65396,80.183
0.68133,79.987
0.70381,79.791
0.72043,79.4
0.73216,79.009
0.739,78.422
0.74096,77.836
0.739,77.249
0.73607,76.662
0.72923,75.88
0.72043,75.293
0.7087,74.707
0.69404,74.12
0.67742,73.729
0.65885,73.142
0.63734,72.555
0.61584,72.164
0.59335,71.578
0.56989,70.991
0.55034,70.404
0.53275,69.818
0.51417,69.231
0.49658,68.84
0.48094,68.253
0.46628,67.862
0.45357,67.275
0.44282,66.884
0.43304,66.297
0.42522,65.906
0.4174,65.319
0.41153,64.928
0.40665,64.537
0.40274,64.146
0.39883,64.146
0.39492,64.537
0.39101,65.711
0.3871,68.449
0.38319,73.533
0.37928,81.16
0.37537,90.939
0.37146,101.3
0.36755,111.47
0.36364,120.67
0.35973,128.49
0.35582,134.75
0.35386,139.24
0.34995,141.98
0.34702,143.35
0.34311,143.55
0.34018,142.76
0.33627,141.4
0.33236,139.64
0.32942,137.48
0.32551,135.33
0.32258,132.99
0.31867,130.25
0.31672,127.51
0.31476,124.58
0.31281,121.25
0.30987,117.73
0.30694,113.62
0.30401,109.32
0.30108,105.02
0.29814,100.52
0.29521,96.61
0.29228,92.894
0.29032,89.961
0.2913,87.419
0.29619,85.658
0.30499,84.289
0.32063,83.116
0.34506,82.529
0.37634,82.138
0.41544,81.747
0.45846,81.552
0.50342,81.552
0.54839,81.552
0.5914,81.356
0.6305,81.356
0.66471,81.16
0.69208,80.965
0.71163,80.574
0.72532,79.987
0.73705,79.596
0.74585,79.205
0.75073,78.618
0.75269,77.836
0.75073,77.249
0.74682,76.662
0.739,75.88
0.72923,75.293
0.71652,74.707
0.70186,74.12
0.68622,73.533
0.6696,72.947
0.65005,72.36
0.62854,71.773
0.60606,71.186
0.58358,70.6
0.56012,70.209
0.53666,69.622
0.51515,69.035
0.49658,68.449
0.47898,67.666
0.46432,67.275
0.45064,66.688
0.44086,66.102
0.43206,65.515
0.42424,65.124
0.41642,64.537
0.40958,63.95
0.40274,63.559
0.39687,63.168
0.39101,62.973
0.38514,63.168
0.38025,64.342
0.37537,66.688
0.3695,71.578
0.36559,79.205
0.36266,88.983
0.35777,99.935
0.35288,110.5
0.34897,120.27
0.34409,128.49
0.3392,134.94
0.33431,139.64
0.32942,142.57
0.32454,144.33
0.32063,144.72
0.31574,143.94
0.31183,142.57
0.30792,140.81
0.30596,138.66
0.30205,136.31
0.29814,133.77
0.29423,131.03
0.29032,128.1
0.28641,124.97
0.2825,121.64
0.27957,117.93
0.27566,113.62
0.27175,109.32
0.26784,104.82
0.26491,100.13
0.26295,95.828
0.26002,92.112
0.25806,88.983
0.25709,86.441
0.26002,84.289
0.26882,82.921
0.28543,81.943
0.30987,81.16
0.34213,80.769
0.38221,80.574
0.42717,80.378
0.4741,80.378
0.51515,80.183
0.55132,80.183
0.58847,79.987
0.62366,79.987
0.65396,79.791
0.67937,79.596
0.69892,79.4
0.71457,78.814
0.72434,78.422
0.73021,77.836
0.73216,77.249
0.73021,76.662
0.7263,76.076
0.71945,75.293
0.70968,74.707
0.69795,73.924
0.68426,73.338
0.66764,72.751
0.64809,72.164
0.62757,71.578
0.60508,71.186
0.58162,70.6
0.55816,70.013
0.53568,69.426
0.5132,68.84
0.49462,68.253
0.47898,67.666
0.46237,67.08
0.4477,66.493
0.43402,65.906
0.42229,65.515
0.41153,64.928
0.40274,64.342
0.39394,63.95
0.3871,63.364
0.38123,62.973
0.37537,62.582
0.37146,62.386
0.36755,62.582
0.36364,62.973
0.35875,64.733
0.35484,68.253
0.34995,74.316
0.34604,82.921
0.34213,93.09
0.33724,103.46
0.33236,113.23
0.32845,122.03
0.32356,129.07
0.31867,134.55
0.31574,138.27
0.31281,140.61
0.30987,141.59
0.30596,141.4
0.30205,140.22
0.29814,138.46
0.29423,136.31
0.29032,133.96
0.28641,131.42
0.2825,128.68
0.27859,125.55
0.27566,122.43
0.27273,118.71
0.27077,114.99
0.26784,110.69
0.26491,106.19
0.26197,101.69
0.25904,97.197
0.25513,93.286
0.2522,89.765
0.24927,86.832
0.24829,84.289
0.25024,82.529
0.25709,81.16
0.27077,80.183
0.28837,79.791
0.31183,79.4
0.34409,79.205
0.38416,79.009
0.42815,78.814
0.47507,78.814
0.52102,78.814
0.56403,78.814
0.60313,78.618
0.63636,78.422
0.66471,78.227
0.68622,78.031
0.6999,77.64
0.7087,77.249
0.71554,76.858
0.71848,76.271
0.71945,75.685
0.71652,75.098
0.71065,74.511
0.70088,73.729
0.68915,73.142
0.67449,72.555
0.65787,72.164
0.63832,71.578
0.61681,70.991
0.59726,70.404
0.57771,69.818
0.55621,69.231
0.53372,68.84
0.51222,68.253
0.49169,67.666
0.47312,67.08
0.45552,66.493
0.44086,65.906
0.42815,65.515
0.41642,64.928
0.40567,64.342
0.39785,63.95
0.39198,63.364
0.38612,62.973
0.38025,62.386
0.37537,61.995
0.37048,61.799
0.36559,61.604
0.36168,61.995
0.35777,63.168
0.35386,65.906
0.34897,70.991
0.34506,78.814
0.34115,88.396
0.33822,98.761
0.33529,108.74
0.33138,117.73
0.32747,125.55
0.32356,131.62
0.31965,136.11
0.31574,138.85
0.31183,140.42
0.30792,140.61
0.30401,139.83
0.3001,138.27
0.29619,136.31
0.29326,134.16
0.2913,131.62
0.28837,128.88
0.28543,125.95
0.28152,122.62
0.27859,119.3
0.27468,115.58
0.27175,111.47
0.26784,106.98
0.26491,102.48
0.261,97.979
0.25806,93.677
0.25513,89.961
0.25415,86.832
0.2522,84.289
0.2522,82.334
0.25611,80.769
0.26491,79.791
0.28152,79.009
0.30596,78.618
0.33822,78.422
0.37732,78.227
0.42229,78.227
0.46921,78.227
0.51613,78.227
0.55523,78.227
0.58847,78.227
0.6217,78.227
0.65103,78.031
0.67644,77.836
0.69697,77.64
0.71163,77.249
0.72239,76.858
0.72727,76.271
0.72923,75.685
0.72727,75.098
0.72239,74.511
0.71359,73.924
0.70381,73.338
0.6911,72.751
0.67546,72.164
0.65689,71.773
0.63636,71.186
0.61388,70.795
0.5914,70.209
0.56794,69.818
0.54448,69.231
0.52199,68.644
0.50049,68.057
0.48094,67.666
0.4653,67.275
0.45161,66.688
0.43891,66.102
0.42717,65.711
0.41642,65.124
0.40665,64.733
0.39785,64.342
0.39101,63.755
0.38416,63.364
0.37928,62.973
0.37439,62.582
0.3695,62.582
0.36755,62.777
0.36657,63.755
0.36461,65.906
0.36168,70.209
0.35777,77.054
0.35386,86.245
0.34995,96.61
0.34604,106.58
0.34213,115.97
0.33724,123.99
0.33333,130.83
0.32942,135.72
0.32551,138.85
0.32258,140.61
0.32063,141
0.31769,140.61
0.31378,139.24
0.31085,137.48
0.30694,135.33
0.30303,132.99
0.3001,130.44
0.29619,127.71
0.29326,124.77
0.29032,121.64
0.28739,118.12
0.28543,114.21
0.28348,109.91
0.28152,105.61
0.27859,101.11
0.27566,96.806
0.27273,92.894
0.26979,89.57
0.26784,86.832
0.26686,84.681
0.27077,83.116
0.27957,82.138
0.29619,81.356
0.32063,80.769
0.34702,80.574
0.3783,80.574
0.41838,80.574
0.46432,80.574
0.51124,80.574
0.55816,80.769
0.60215,80.769
0.64125,80.574
0.67449,80.378
0.70186,80.183
0.72336,79.791
0.739,79.4
0.74878,78.814
0.75367,78.227
0.75562,77.64
0.75562,77.054
0.75171,76.467
0.74585,75.88
0.73607,75.098
0.72434,74.511
0.7087,73.924
0.6911,73.533
0.67155,72.947
0.65005,72.36
0.62757,71.969
0.60704,71.382
0.58749,70.795
0.56598,70.404
0.54545,69.818
0.5259,69.231
0.50733,68.644
0.49071,68.253
0.47605,67.666
0.46334,67.08
0.45259,66.493
0.44379,65.906
0.435,65.515
0.42913,64.733
0.42424,64.342
0.41935,63.755
0.41447,63.168
0.40958,62.973
0.40567,63.168
0.40078,64.342
0.39687,66.884
0.39296,71.773
0.38905,79.4
0.38416,89.179
0.38025,99.935
0.37634,110.3
0.37243,119.69
0.3695,127.71
0.36559,134.16
0.36168,138.85
0.35777,141.79
0.35386,143.16
0.34995,143.55
0.34604,142.76
0.34213,141.4
0.33822,139.44
0.33431,137.48
0.3304,135.14
0.32845,132.59
0.32551,129.86
0.32258,127.12
0.31965,123.79
0.31574,120.47
0.31281,116.56
0.30987,112.45
0.30596,108.15
0.30205,103.65
0.29814,99.153
0.29423,95.046
0.29032,91.525
0.28837,88.396
0.28739,86.05
0.29032,84.094
0.29814,82.725
0.31281,81.747
0.33529,81.16
0.36657,80.574
0.40567,80.378
0.44966,80.378
0.49658,80.378
0.54448,80.183
0.58944,80.183
0.6305,80.183
0.66178,79.987
0.68622,79.791
0.7087,79.4
0.72727,79.009
0.74194,78.618
0.75171,78.227
0.7566,77.445
0.75855,76.858
0.7566,76.271
0.75171,75.489
0.74389,74.902
0.73314,74.12
0.71945,73.533
0.70479,72.947
0.68915,72.36
0.67058,71.773
0.64907,71.186
0.62659,70.795
0.60313,70.209
0.57967,69.622
0.55621,69.035
0.53275,68.644
0.51222,68.057
0.49267,67.471
0.47507,66.884
0.46041,66.297
0.44868,65.711
0.43793,65.124
0.42717,64.537
0.41838,64.146
0.40958,63.559
0.40274,63.168
0.39589,62.582
0.39003,62.19
0.38514,61.995
0.37928,61.995
0.37439,62.386
0.37048,63.95
0.36755,67.275
0.36364,73.142
0.35875,81.552
0.35386,91.917
0.34897,102.67
0.34409,112.65
0.3392,121.64
0.33431,129.27
0.32942,134.94
0.32454,139.05
0.32063,141.4
0.31574,142.37
0.31281,142.37
0.30987,141.2
0.30694,139.44
0.30303,137.48
0.29912,135.14
0.29521,132.59
0.2913,129.86
0.28739,126.92
0.28348,123.79
0.27957,120.47
0.27566,116.56
0.27273,112.65
0.27077,108.15
0.26882,103.65
0.26588,99.153
0.26295,94.85
0.25904,91.134
0.25611,87.81
0.25415,85.267
0.25415,83.116
0.25904,81.552
0.27077,80.378
0.29032,79.791
0.31867,79.205
0.35484,79.009
0.39198,78.814
0.43011,78.814
0.47507,78.814
0.52199,78.814
0.56794,78.618
0.61095,78.618
0.64712,78.422
0.6784,78.227
0.70283,78.031
0.72141,77.64
0.73412,77.249
0.74194,76.662
0.74487,76.076
0.74487,75.489
0.74096,74.902
0.73509,74.316
0.72727,73.533
0.71554,72.947
0.70186,72.36
0.68524,71.773
0.66569,71.186
0.64516,70.6
0.6217,70.209
0.59824,69.622
0.5738,69.035
0.5523,68.644
0.53275,68.057
0.51222,67.471
0.49267,66.884
0.4741,66.297
0.45748,65.711
0.44184,65.124
0.42913,64.537
0.4174,64.146
0.40762,63.559
0.3998,62.973
0.39198,62.582
0.38612,61.995
0.38123,61.604
0.37732,61.213
0.37243,61.017
0.36852,61.213
0.36364,61.995
0.35973,63.755
0.35484,67.666
0.35093,73.924
0.34604,82.725
0.34213,92.699
0.33724,103.06
0.33333,112.45
0.32942,120.86
0.32649,127.71
0.32258,132.79
0.31867,136.31
0.31476,138.27
0.31085,139.05
0.30596,138.66
0.30108,137.29
0.29619,135.53
0.29228,133.18
0.28837,130.83
0.28446,128.1
0.2825,125.36
0.28055,122.23
0.27761,118.71
0.27468,114.99
0.27175,110.89
0.26784,106.58
0.26491,102.09
0.261,97.588
0.25806,93.286
0.25415,89.57
0.25122,86.441
0.24829,83.703
0.24731,81.747
0.24927,80.183
0.25415,79.009
0.26588,78.227
0.28446,78.031
0.31085,77.64
0.34604,77.64
0.3871,77.445
0.43304,77.445
0.48094,77.445
0.52786,77.445
0.57185,77.445
0.61095,77.445
0.64125,77.249
0.66373,77.054
0.68426,76.662
0.70088,76.467
0.71359,76.076
0.72141,75.489
0.72434,74.902
0.72434,74.316
0.72141,73.729
0.71359,72.947
0.70381,72.36
0.69013,71.773
0.67449,71.186
0.65787,70.6
0.64027,70.013
0.61975,69.426
0.59726,69.035
0.5738,68.449
0.55132,67.862
0.52786,67.471
0.50635,66.884
0.48583,66.297
0.46823,65.711
0.45161,65.124
0.43695,64.537
0.42522,64.146
0.41642,63.559
0.40762,62.973
0.3998,62.582
0.39296,61.995
0.38612,61.604
0.38025,61.213
0.37537,60.821
0.37146,60.626
0.36755,60.626
0.36266,61.017
0.35875,62.386
0.35484,65.515
0.35191,70.795
0.34995,78.814
0.34604,88.396
0.34213,98.566
0.33822,108.34
0.33431,116.95
0.3304,124.19
0.32551,130.05
0.3216,134.16
0.31769,136.51
0.31378,137.68
0.3089,137.68
0.30596,136.7
0.30401,135.14
0.30108,132.99
0.29717,130.64
0.29423,128.1
0.29032,125.36
0.28641,122.43
0.2825,119.1
0.27957,115.38
0.27566,111.47
0.27273,107.17
0.26979,102.48
0.26588,97.979
0.26393,93.481
0.26197,89.765
0.26002,86.441
0.25611,83.703
0.25415,81.356
0.25415,79.791
0.25806,78.618
0.26784,77.836
0.28446,77.445
0.30987,77.054
0.34311,76.858
0.38416,76.858
0.42229,76.858
0.46139,76.858
0.5044,76.858
0.54936,76.858
0.59042,76.858
0.62757,76.662
0.65982,76.467
0.68524,76.271
0.70479,75.88
0.71945,75.489
0.72825,75.098
0.73314,74.511
0.73412,73.924
0.73118,73.338
0.72434,72.751
0.71554,72.164
0.70381,71.578
0.69013,70.991
0.67253,70.6
0.65298,70.013
0.63148,69.426
0.60899,69.035
0.58456,68.449
0.56109,68.057
0.53763,67.471
0.51711,67.08
0.49951,66.493
0.48192,65.906
0.4653,65.515
0.44966,64.928
0.43695,64.537
0.42522,63.95
0.41447,63.364
0.40567,62.973
0.39785,62.386
0.39101,61.995
0.38514,61.408
0.38025,61.213
0.37634,61.017
0.37243,61.017
0.36852,61.408
0.36461,62.777
0.3607,65.515
0.35679,70.6
0.35288,78.227
0.34897,87.81
0.34506,97.979
0.34115,107.56
0.33724,116.36
0.33236,123.99
0.32942,130.05
0.32649,134.55
0.32258,137.29
0.31965,138.66
0.31574,138.85
0.31183,138.07
0.30792,136.51
0.30401,134.55
0.30108,132.4
0.29717,129.86
0.29423,127.12
0.29032,124.38
0.28837,121.06
0.28641,117.73
0.28446,113.82
0.28152,109.71
0.27859,105.41
0.27468,100.91
0.27175,96.61
0.26882,92.503
0.26491,89.179
0.26197,86.245
0.26002,83.898
0.26002,82.138
0.26491,80.769
0.27273,79.987
0.28641,79.596
0.30792,79.205
0.33822,79.205
0.37634,79.205
0.41935,79.205
0.46725,79.4
0.51515,79.4
0.56207,79.596
0.60508,79.596
0.64223,79.4
0.67449,79.205
0.69697,79.009
0.71359,78.618
0.72727,78.227
0.73705,77.64
0.74389,77.054
0.74585,76.467
0.74487,75.88
0.74096,75.098
0.73314,74.511
0.72141,73.924
0.70772,73.338
0.6911,72.751
0.67253,72.164
0.65298,71.773
0.63441,71.186
0.6129,70.795
0.59042,70.209
0.56696,69.622
0.54448,69.231
0.52395,68.644
0.5044,68.057
0.4868,67.666
0.47214,67.08
0.45846,66.688
0.4477,66.102
0.43891,65.711
0.43206,65.319
0.4262,64.733
0.42033,64.342
0.41544,63.755
0.41056,63.364
0.40567,63.168
0.40176,63.168
0.39785,63.755
0.39492,65.124
0.39101,68.449
0.3871,74.12
0.38319,82.334
0.38025,91.917
0.37732,102.28
0.37439,111.86
0.37048,120.47
0.36559,127.9
0.36168,133.77
0.35777,137.68
0.35386,140.22
0.34995,141.4
0.34604,141.4
0.34311,140.61
0.3392,139.05
0.33627,137.09
0.33431,134.94
0.33138,132.59
0.32845,130.05
0.32454,127.31
0.3216,124.38
0.31867,121.06
0.31574,117.54
0.31183,113.43
0.3089,109.32
0.30596,104.82
0.30303,100.33
0.3001,96.219
0.29912,92.308
0.29912,88.983
0.29814,86.441
0.29814,84.289
0.30205,82.725
0.31183,81.552
0.32845,80.769
0.35288,80.378
0.38514,79.987
0.42424,79.987
0.46823,79.791
0.51417,79.791
0.55425,79.791
0.58944,79.791
0.62561,79.596
0.65982,79.4
0.68915,79.205
0.71261,78.814
0.73118,78.422
0.74487,78.031
0.75269,77.445
0.75758,76.858
0.75758,76.271
0.75464,75.489
0.74878,74.902
0.74096,74.12
0.73021,73.533
0.71652,72.947
0.70088,72.164
0.68328,71.773
0.66276,71.186
0.64125,70.6
0.61877,70.209
0.59433,69.622
0.57087,69.035
0.54839,68.449
0.52688,67.862
0.50831,67.471
0.49267,66.884
0.47703,66.297
0.46237,65.711
0.44868,65.124
0.43793,64.537
0.42717,64.146
0.41838,63.559
0.41153,63.168
0.40469,62.582
0.39883,62.19
0.39394,61.799
0.38905,61.604
0.38514,61.799
0.38123,62.973
0.37732,65.319
0.37243,70.209
0.36852,77.836
0.36364,87.614
0.35875,98.175
0.35386,108.54
0.34897,117.93
0.34409,125.95
0.3392,132.4
0.33431,137.09
0.33138,140.03
0.32845,141.4
0.32454,141.79
0.32063,140.81
0.31672,139.44
0.31281,137.48
0.30792,135.14
0.30401,132.79
0.3001,130.25
0.29619,127.51
0.29228,124.38
0.28837,121.25
0.28543,117.73
0.2825,113.82
0.28055,109.71
0.27761,105.22
0.27468,100.72
0.27175,96.219
0.26784,92.308
0.26491,88.983
0.26197,86.05
0.261,83.898
0.26393,82.138
0.27175,80.769
0.28641,79.987
0.30596,79.4
0.3304,79.205
0.36559,79.009
0.40762,79.009
0.45357,79.009
0.50244,78.814
0.54936,78.814
0.59335,78.814
0.63148,78.618
0.66471,78.422
0.6911,78.227
0.71163,77.836
0.7263,77.249
0.73412,76.662
0.73803,76.271
0.73998,75.685
0.73803,75.098
0.73412,74.316
0.7263,73.729
0.71652,73.142
0.70381,72.36
0.68817,71.969
0.67058,71.382
0.65103,70.795
0.62952,70.209
0.60899,69.622
0.58847,69.231
0.56696,68.644
0.5435,68.057
0.52199,67.471
0.50049,66.884
0.48094,66.297
0.46334,65.711
0.4477,65.124
0.435,64.537
0.42326,64.146
0.41251,63.559
0.40469,62.973
0.39883,62.582
0.39296,61.995
0.3871,61.604
0.38221,61.408
0.37732,61.213
0.37341,61.213
0.36852,61.799
0.36461,63.364
0.35973,66.884
0.35582,72.751
0.35093,81.16
0.34604,91.134
0.34311,101.3
0.34018,110.69
0.33627,119.3
0.33138,126.14
0.32747,131.62
0.32356,135.14
0.31867,137.29
0.31476,138.07
0.31085,137.68
0.30694,136.51
0.30303,134.75
0.29912,132.59
0.29619,130.05
0.29423,127.31
0.2913,124.38
0.28739,121.45
0.28446,117.93
0.28055,114.41
0.27664,110.5
0.2737,106.19
0.26979,101.69
0.26686,97.393
0.26295,93.09
0.26002,89.374
0.25611,86.245
0.25415,83.507
0.25415,81.552
0.25415,79.987
0.25806,78.814
0.26784,78.227
0.28446,77.64
0.3089,77.445
0.34213,77.249
0.38221,77.249
0.42717,77.249
0.47507,77.249
0.52199,77.249
0.56109,77.249
0.59433,77.054
0.62757,76.858
0.65689,76.662
0.68035,76.467
0.6999,76.076
0.71359,75.685
0.72141,75.098
0.7263,74.707
0.7263,74.12
0.72239,73.338
0.71554,72.751
0.70577,72.164
0.69404,71.578
0.68035,70.991
0.66471,70.404
0.64516,69.818
0.62463,69.231
0.60215,68.84
0.57869,68.253
0.55523,67.666
0.53177,67.08
0.51026,66.493
0.48974,65.906
0.47116,65.515
0.4565,64.928
0.44379,64.537
0.43206,63.95
0.42131,63.364
0.41153,62.973
0.40274,62.386
0.39589,61.995
0.38905,61.408
0.38416,61.017
0.3783,60.821
0.37439,60.626
0.37048,60.626
0.36559,61.213
0.36266,62.582
0.3607,65.711
0.35777,71.186
0.35386,79.205
0.34995,88.788
0.34604,98.957
0.34213,108.54
0.33724,116.95
0.33333,124.19
0.32942,129.86
0.32551,133.77
0.32063,136.11
0.31769,137.29
0.31574,137.29
0.31281,136.31
0.3089,134.55
0.30499,132.4
0.30108,130.05
0.29814,127.51
0.29423,124.58
0.29032,121.64
0.28641,118.32
0.28348,114.6
0.27957,110.69
0.27664,106.39
0.27468,101.89
0.27273,97.393
0.27077,93.09
0.26784,89.374
0.26491,86.245
0.26197,83.507
0.26002,81.356
0.26002,79.791
0.26295,78.618
0.27273,78.031
0.28935,77.445
0.31476,77.249
0.34213,77.249
0.37341,77.054
0.41447,77.054
0.46041,77.249
0.50733,77.249
0.55327,77.054
0.59629,77.054
0.63148,76.858
0.65982,76.662
0.68328,76.467
0.70186,76.076
0.71554,75.685
0.72434,75.098
0.72727,74.511
0.72727,73.924
0.72434,73.338
0.71945,72.751
0.71065,72.164
0.69892,71.382
0.68524,70.795
0.66862,70.209
0.64907,69.622
0.62854,69.231
0.60606,68.644
0.5826,68.057
0.56207,67.666
0.54252,67.08
0.52199,66.493
0.50244,65.906
0.48289,65.319
0.46628,64.733
0.45064,64.342
0.43695,63.755
0.4262,63.168
0.41544,62.777
0.40762,62.19
0.3998,61.799
0.39394,61.213
0.38905,60.821
0.38514,60.43
0.38123,60.039
0.37732,60.039
0.37341,60.43
0.3695,61.799
0.36559,64.537
0.36168,69.818
0.35777,77.445
0.35288,87.027
0.34897,97.197
0.34506,106.78
0.34115,115.58
0.33822,123.01
0.33529,128.68
0.33138,132.99
0.32747,135.53
0.32258,136.9
0.31867,136.9
0.31476,136.11
0.31085,134.55
0.30694,132.59
0.30303,130.44
0.3001,127.9
0.29619,125.36
0.29326,122.43
0.2913,119.3
0.28837,115.78
0.28446,111.86
0.28152,107.56
0.27859,103.26
0.27468,98.761
0.27175,94.263
0.26784,90.352
0.26491,86.832
0.261,84.094
0.25904,81.747
0.25806,79.987
0.261,78.814
0.26784,78.227
0.28152,77.64
0.30205,77.445
0.33138,77.249
0.36852,77.249
0.41153,77.445
0.45748,77.445
0.50538,77.445
0.55132,77.445
0.59335,77.64
0.62659,77.445
0.652,77.445
0.67546,77.249
0.69599,76.858
0.71163,76.662
0.72239,76.076
0.72923,75.489
0.73118,75.098
0.73021,74.316
0.72532,73.729
0.7175,73.142
0.70674,72.555
0.69208,71.969
0.67742,71.578
0.6608,70.991
0.64125,70.6
0.61975,70.013
0.59726,69.622
0.5738,69.035
0.55034,68.449
0.52786,68.057
0.50635,67.471
0.4868,67.08
0.46921,66.493
0.45357,66.102
0.44184,65.515
0.43206,65.124
0.42229,64.537
0.41349,64.146
0.40567,63.755
0.3998,63.168
0.39394,62.777
0.38905,62.386
0.38416,62.19
0.38025,62.386
0.37634,62.973
0.37243,64.733
0.3695,68.253
0.36657,74.316
0.36364,82.921
0.3607,92.894
0.35777,102.87
0.35386,112.26
0.34995,120.67
0.34604,127.9
0.34213,133.18
0.33822,137.09
0.33431,139.24
0.3304,140.22
0.32747,140.03
0.32454,139.05
0.32258,137.29
0.32063,135.53
0.31769,133.18
0.31476,130.83
0.31085,128.29
0.30792,125.55
0.30499,122.43
0.30205,119.1
0.29912,115.38
0.29619,111.28
0.29423,106.98
0.2913,102.67
0.28935,98.37
0.28837,94.263
0.28543,90.743
0.28348,88.005
0.28152,85.658
0.2825,83.703
0.28641,82.529
0.29619,81.552
0.31378,81.16
0.3392,80.769
0.37243,80.574
0.41251,80.574
0.45064,80.574
0.48876,80.769
0.53177,80.769
0.57478,80.769
0.61584,80.378
0.65298,80.183
0.68328,79.791
0.7087,79.596
0.72825,79.009
0.74194,78.422
0.75171,77.836
0.7566,77.054
0.75758,76.271
0.75464,75.685
0.74976,75.098
0.74194,74.316
0.73118,73.729
0.71848,73.142
0.70283,72.751
0.68524,72.164
0.66471,71.773
0.64321,71.186
0.62072,70.6
0.59824,70.209
0.57576,69.622
0.55523,69.035
0.53763,68.449
0.52004,67.666
0.50244,67.08
0.4868,66.493
0.47312,65.906
0.46041,65.319
0.44966,64.733
0.44086,64.342
0.43304,63.755
0.4262,63.168
0.42033,62.777
0.41447,62.386
0.41056,62.19
0.40665,62.19
0.40274,62.777
0.39883,64.733
0.39394,68.644
0.39003,75.098
0.38514,84.289
0.38025,94.459
0.37537,104.82
0.37146,114.6
0.36657,123.21
0.36168,130.05
0.35777,135.33
0.35484,138.66
0.35093,140.61
0.34604,141.2
0.34213,140.81
0.33822,139.44
0.33431,137.68
0.3304,135.72
0.32649,133.18
0.3216,130.83
0.31769,128.29
0.31281,125.55
0.3089,122.43
0.30596,118.9
0.30303,115.19
0.3001,111.08
0.29619,106.78
0.29228,102.28
0.28837,97.979
0.28446,93.677
0.28055,90.157
0.27664,87.223
0.2737,84.681
0.2737,82.921
0.27859,81.552
0.28641,80.574
0.30108,79.791
0.32356,79.596
0.35484,79.4
0.39394,79.205
0.43793,79.205
0.48485,79.205
0.53177,79.205
0.57576,79.205
0.61584,79.009
0.65005,78.814
0.6784,78.618
0.70088,78.227
0.71554,77.836
0.72434,77.249
0.73118,76.662
0.73509,76.271
0.73509,75.489
0.73216,74.902
0.7263,74.12
0.7175,73.533
0.70674,72.947
0.69208,72.36
0.67644,71.773
0.65787,70.991
0.6393,70.6
0.61779,70.013
0.59238,69.426
0.56794,69.035
0.54448,68.449
0.52199,67.862
0.50049,67.275
0.47996,66.688
0.46237,66.102
0.44575,65.711
0.43206,65.124
0.42033,64.537
0.40958,63.95
0.40176,63.559
0.39492,62.973
0.38905,62.386
0.38319,61.995
0.3783,61.604
0.37341,61.408
0.36852,61.408
0.36461,61.799
0.3607,62.973
0.35582,65.711
0.35191,70.795
0.348,78.422
0.34409,88.201
0.34115,98.761
0.33724,108.74
0.33333,117.54
0.32845,125.16
0.32454,131.23
0.31965,135.33
0.31574,137.87
0.31085,139.24
0.30694,139.24
0.30303,138.46
0.29912,136.7
0.29521,134.75
0.29228,132.2
0.28935,129.86
0.28641,127.12
0.28348,123.99
0.27957,120.86
0.27664,117.34
0.27273,113.43
0.26979,109.32
0.26588,105.02
0.26295,100.52
0.26002,96.024
0.25611,91.917
0.25415,88.396
0.2522,85.463
0.24927,83.116
0.24829,81.16
0.25024,79.987
0.25611,79.009
0.26882,78.422
0.28935,78.227
0.31867,78.031
0.35582,77.836
0.39883,77.836
0.44477,77.836
0.4868,77.836
0.52395,77.836
0.56305,77.836
0.6002,77.64
0.63343,77.445
0.65982,77.249
0.68231,76.858
0.69795,76.467
0.7087,75.88
0.71457,75.293
0.71652,74.902
0.71554,74.12
0.70968,73.533
0.70283,72.947
0.69306,72.164
0.68035,71.578
0.66471,70.991
0.64712,70.6
0.62659,70.013
0.60508,69.426
0.5826,69.035
0.55914,68.449
0.53666,67.862
0.51417,67.275
0.49267,66.688
0.47507,66.102
0.45943,65.711
0.44477,65.124
0.43109,64.537
0.41935,63.95
0.4086,63.364
0.39883,62.973
0.39101,62.386
0.38416,61.995
0.3783,61.604
0.37243,61.213
0.36852,60.821
0.36364,60.821
0.3607,61.017
0.35777,61.799
0.35484,63.755
0.35093,67.666
0.34702,74.12
0.34311,82.921
0.3392,92.699
0.33529,102.48
0.33138,111.47
0.32649,119.3
0.32258,125.75
0.31867,130.64
0.31574,133.77
0.31281,135.53
0.30987,136.11
0.30596,135.53
0.30205,134.16
0.29814,132.2
0.29521,129.86
0.2913,127.31
0.28739,124.58
0.28348,121.45
0.28055,118.32
0.27664,114.8
0.2737,110.69
0.27077,106.58
0.26882,102.09
0.26686,97.588
0.26393,93.286
0.26002,89.374
0.25709,86.05
0.25318,83.312
0.25024,81.16
0.24829,79.596
0.24927,78.422
0.25415,77.64
0.26491,77.054
0.27957,76.858
0.3001,76.662
0.32942,76.662
0.36755,76.662
0.40958,76.858
0.45552,76.858
0.50244,76.858
0.54643,76.662
0.58651,76.662
0.6217,76.467
0.65103,76.271
0.67351,75.88
0.6911,75.489
0.70186,75.098
0.70674,74.511
0.70968,73.924
0.7087,73.338
0.70577,72.751
0.69892,72.164
0.68915,71.578
0.67546,70.991
0.65982,70.404
0.64223,70.013
0.6217,69.426
0.59922,68.84
0.57869,68.253
0.55914,67.862
0.53861,67.275
0.51711,66.884
0.4956,66.297
0.47703,65.711
0.45943,65.124
0.44379,64.537
0.43011,64.146
0.4174,63.559
0.40762,62.973
0.39883,62.582
0.39198,61.995
0.38612,61.604
0.38123,61.017
0.37732,60.626
0.37243,60.43
0.36852,60.235
0.36461,60.43
0.3607,61.408
0.35679,63.364
0.35386,67.471
0.34995,74.12
0.34604,82.921
0.34213,92.894
0.3392,102.67
0.33627,111.86
0.33333,119.69
0.32942,126.34
0.32551,131.03
0.3216,134.35
0.31769,136.11
0.31378,136.51
0.31085,136.11
0.30694,134.75
0.30303,132.99
0.29912,130.64
0.29521,128.29
0.29326,125.55
0.29032,122.43
0.28739,119.3
0.28446,115.78
0.28055,111.86
0.27761,107.76
0.2737,103.46
0.27077,98.761
0.26686,94.459
0.26393,90.548
0.26002,87.223
0.25611,84.485
0.25415,82.138
0.25318,80.574
0.25415,79.4
0.25806,78.422
0.26686,78.031
0.28348,77.64
0.3089,77.64
0.34115,77.64
0.38123,77.64
0.4262,77.64
0.47312,77.836
0.52004,77.836
0.56403,77.836
0.6002,77.64
0.62854,77.64
0.65494,77.445
0.6784,77.054
0.69697,76.662
0.71065,76.271
0.71945,75.685
0.72336,75.098
0.72434,74.511
0.72043,73.924
0.71359,73.338
0.70283,72.751
0.6911,72.164
0.67742,71.773
0.6608,71.186
0.64125,70.6
0.61975,70.209
0.59726,69.818
0.5738,69.231
0.55034,68.84
0.52786,68.253
0.50635,67.862
0.48583,67.275
0.46823,66.884
0.45259,66.297
0.43988,65.906
0.43011,65.515
0.42033,64.928
0.41153,64.537
0.40469,64.146
0.39785,63.559
0.39198,63.168
0.38905,62.973
0.3871,62.777
0.38514,62.973
0.38123,63.364
0.37732,64.928
0.37439,68.057
0.37243,73.729
0.3695,81.747
0.36559,91.525
0.36168,101.5
0.35777,110.89
0.35386,119.3
0.34897,126.53
0.34506,132.2
0.34115,136.11
0.33724,138.46
0.33333,139.44
0.32942,139.44
0.32649,138.66
0.32454,137.09
0.3216,135.14
0.31867,132.99
0.31574,130.64
0.31281,128.1
0.30987,125.16
0.30596,122.03
0.30303,118.71
0.3001,114.8
0.29717,110.89
0.29423,106.58
0.29228,102.28
0.2913,97.979
0.28935,94.068
0.28641,90.548
0.28348,87.81
0.28152,85.658
0.28152,83.898
0.28446,82.725
0.29326,81.943
0.3089,81.552
0.33236,81.356
0.36461,81.16
0.39687,81.16
0.43206,81.16
0.47605,81.356
0.52199,81.356
0.56891,81.356
0.6129,81.16
0.652,80.965
0.68524,80.574
0.71261,80.183
0.73412,79.596
0.74976,79.009
0.76149,78.422
0.76735,77.64
0.76931,76.858
0.76637,76.271
0.76246,75.489
0.75464,74.902
0.74487,74.316
0.73118,73.729
0.71554,73.338
0.69697,72.751
0.67644,72.36
0.65494,71.969
0.63148,71.382
0.60802,70.795
0.58749,70.209
0.56794,69.622
0.54839,69.035
0.52884,68.253
0.51124,67.666
0.49462,67.08
0.48094,66.493
0.46823,65.906
0.45748,65.515
0.44868,64.928
0.44086,64.342
0.43402,63.755
0.42815,63.364
0.42326,62.973
0.41838,62.973
0.41447,63.168
0.40958,64.342
0.40567,66.884
0.40078,71.773
0.39589,79.4
0.39198,88.983
0.3871,99.544
0.38221,109.91
0.37732,119.49
0.37243,127.51
0.36852,133.77
0.36461,138.27
0.3607,141
0.35679,142.37
0.35191,142.76
0.348,141.98
0.34409,140.61
0.3392,138.85
0.33529,136.7
0.33138,134.35
0.32649,131.62
0.32258,128.88
0.31769,125.95
0.31378,122.82
0.31085,119.3
0.30792,115.38
0.30401,111.28
0.3001,106.78
0.29521,102.28
0.2913,97.784
0.28641,93.872
0.2825,90.548
0.27859,87.81
0.27566,85.658
0.27664,83.898
0.28152,82.725
0.2913,81.747
0.30792,81.356
0.33431,80.965
0.3695,80.965
0.41056,80.769
0.45748,80.769
0.50635,80.769
0.55425,80.574
0.59922,80.574
0.6393,80.378
0.67351,80.183
0.70186,79.791
0.72043,79.596
0.73314,79.009
0.74291,78.422
0.74976,78.031
0.75367,77.249
0.75269,76.662
0.74976,76.076
0.74291,75.293
0.73314,74.707
0.72141,74.12
0.70674,73.533
0.68915,72.947
0.67058,72.36
0.652,71.773
0.6305,71.186
0.60802,70.6
0.58358,70.209
0.56012,69.622
0.53666,69.035
0.51515,68.449
0.49462,67.862
0.47605,67.275
0.46041,66.688
0.44575,66.102
0.43402,65.711
0.42522,65.124
0.4174,64.733
0.40958,64.146
0.40274,63.755
0.39687,63.168
0.39101,62.973
0.38514,62.777
0.38025,62.973
0.37634,64.146
0.37146,66.493
0.36755,71.382
0.36266,78.814
0.35875,88.592
0.35582,99.153
0.35191,109.32
0.348,118.51
0.34311,126.53
0.33822,132.79
0.33333,137.29
0.32845,140.22
0.32454,141.79
0.31965,141.98
0.31574,141.2
0.31085,139.83
0.30694,137.68
0.30401,135.53
0.30108,132.99
0.29814,130.25
0.29423,127.51
0.29032,124.38
0.28641,121.06
0.2825,117.34
0.27859,113.23
0.27468,108.93
0.27175,104.43
0.26784,99.935
0.26491,95.437
0.26197,91.721
0.26002,88.592
0.25709,85.854
0.25513,83.898
0.25611,82.334
0.261,81.16
0.27175,80.574
0.29032,80.183
0.31867,79.987
0.35484,79.791
0.39687,79.791
0.44477,79.791
0.49365,79.791
0.53568,79.791
0.57283,79.596
0.61095,79.4
0.64516,79.205
0.67449,79.009
0.69795,78.618
0.71652,78.227
0.72923,77.836
0.73705,77.249
0.74096,76.662
0.73998,76.076
0.73607,75.489
0.72923,74.902
0.72043,74.12
0.70772,73.533
0.69306,72.947
0.67644,72.36
0.65689,71.773
0.63539,71.382
0.61193,70.795
0.58749,70.209
0.56403,69.622
0.53959,69.035
0.51711,68.449
0.4956,67.862
0.47801,67.275
0.46334,66.884
0.44868,66.297
0.43597,65.711
0.42424,65.319
0.41349,64.733
0.40469,64.146
0.39687,63.755
0.39101,63.168
0.38514,62.777
0.37928,62.582
0.37439,62.582
0.37048,62.973
0.36755,64.146
0.36364,66.884
0.35973,71.969
0.35582,79.596
0.35191,88.983
0.348,99.153
0.34311,108.93
0.3392,117.93
0.33431,125.55
0.3304,131.62
0.32551,135.72
0.32258,138.46
0.31965,139.83
0.31476,140.03
0.3089,139.24
0.30401,137.68
0.29912,135.72
0.29521,133.57
0.2913,131.03
0.28739,128.29
0.28348,125.16
0.27957,122.03
0.27664,118.32
0.27273,114.41
0.27077,110.1
0.26882,105.61
0.26588,100.91
0.26295,96.415
0.26002,92.503
0.25611,88.983
0.25318,86.245
0.25024,83.898
0.24829,82.138
0.25024,80.965
0.25611,80.183
0.26882,79.596
0.28446,79.4
0.30694,79.205
0.33724,79.009
0.37634,79.205
0.42033,79.205
0.46628,79.205
0.51124,79.009
0.55425,79.009
0.59335,78.814
0.62659,78.618
0.65494,78.422
0.67644,78.031
0.69208,77.64
0.70186,77.054
0.70674,76.662
0.70968,75.88
0.7087,75.293
0.70479,74.707
0.69795,74.12
0.68817,73.533
0.67546,72.947
0.6608,72.36
0.64223,71.773
0.62268,71.186
0.60117,70.6
0.58065,70.013
0.56109,69.622
0.53959,69.035
0.51808,68.449
0.49658,67.862
0.47703,67.275
0.45943,66.884
0.44282,66.297
0.42913,65.711
0.4174,65.319
0.40665,64.733
0.39785,64.342
0.39003,63.755
0.38416,63.168
0.37928,62.777
0.37439,62.386
0.37048,62.19
0.36559,62.386
0.36168,62.973
0.35777,64.733
0.35386,68.449
0.35093,74.511
0.34702,82.921
0.34311,92.894
0.3392,103.06
0.33529,112.65
0.33236,121.06
0.32942,128.1
0.32551,133.38
0.3216,137.09
0.31769,139.24
0.31378,140.22
0.30987,140.03
0.30596,138.85
0.30205,137.09
0.29814,134.94
0.29423,132.59
0.29032,129.86
0.28837,127.12
0.28543,123.99
0.2825,120.47
0.27957,116.75
0.27664,112.84
0.27273,108.34
0.26979,103.85
0.26686,99.348
0.26295,95.046
0.26002,91.134
0.25611,88.005
0.2522,85.267
0.25122,83.116
0.25122,81.552
0.25318,80.378
0.26002,79.791
0.2737,79.205
0.29423,79.009
0.32356,78.814
0.35973,78.814
0.40176,78.814
0.4477,78.618
0.49365,78.618
0.53861,78.618
0.57967,78.618
0.61095,78.422
0.63636,78.227
0.65982,78.031
0.67937,77.445
0.69501,77.054
0.70479,76.662
0.71163,76.076
0.71359,75.293
0.71163,74.707
0.70674,74.12
0.69892,73.533
0.68719,72.947
0.67449,72.36
0.6608,71.773
0.64321,71.186
0.62366,70.795
0.60215,70.209
0.57967,69.622
0.55621,69.035
0.53275,68.644
0.51124,68.057
0.48974,67.471
0.47116,67.08
0.45357,66.493
0.43891,66.102
0.4262,65.515
0.41642,65.124
0.40762,64.537
0.39883,64.146
0.39101,63.755
0.38416,63.168
0.3783,62.973
0.37243,62.582
0.36755,62.582
0.36266,62.973
0.35875,63.95
0.35484,66.493
0.35191,71.186
0.34897,78.422
0.34506,87.81
0.34213,98.175
0.33822,108.34
0.33333,117.54
0.32942,125.55
0.32551,132.01
0.3216,136.9
0.31672,139.83
0.31281,141.59
0.3089,141.98
0.30499,141.4
0.30205,140.22
0.29912,138.27
0.29619,136.31
0.29326,133.77
0.28935,131.23
0.28641,128.29
0.28348,125.16
0.27957,121.84
0.27664,118.12
0.27273,114.21
0.26979,109.91
0.26686,105.41
0.26491,100.91
0.26295,96.61
0.261,92.894
0.25806,89.765
0.25513,87.223
0.25318,85.072
0.25318,83.507
0.25806,82.529
0.26882,81.747
0.28641,81.356
0.31281,81.16
0.34702,81.16
0.3871,81.16
0.4262,81.16
0.46432,81.16
0.50635,81.16
0.54936,81.16
0.58944,80.965
0.62561,80.769
0.65591,80.574
0.68035,80.183
0.69892,79.791
0.71261,79.4
0.72141,78.814
0.7263,78.227
0.7263,77.64
0.72336,77.054
0.71848,76.467
0.71065,75.685
0.6999,75.098
0.68622,74.511
0.67058,73.924
0.652,73.338
0.63148,72.947
0.60997,72.36
0.58749,71.773
0.565,71.186
0.5435,70.795
0.52395,70.209
0.50635,69.622
0.48974,69.035
0.47312,68.644
0.45846,68.057
0.44477,67.471
0.43304,67.08
0.42424,66.493
0.41544,65.906
0.4086,65.515
0.40274,64.928
0.39687,64.733
0.39296,64.537
0.38905,64.733
0.38612,65.515
0.38221,67.666
0.37928,71.969
0.37537,79.009
0.37146,88.201
0.36755,98.761
0.36364,109.13
0.35973,118.71
0.35582,126.92
0.35191,133.77
0.34897,138.66
0.34604,141.98
0.34311,143.55
0.3392,143.94
0.33627,143.55
0.33236,142.18
0.32845,140.61
0.32551,138.46
0.3216,136.31
0.31867,133.96
0.31476,131.23
0.31183,128.49
0.30792,125.36
0.30596,122.03
0.30401,118.32
0.30108,114.6
0.29912,110.3
0.29619,105.8
0.29326,101.3
0.28935,97.197
0.28641,93.481
0.28446,90.157
0.28348,87.614
0.28446,85.658
0.28935,84.289
0.29717,83.116
0.31085,82.529
0.33236,81.943
0.36168,81.747
0.3998,81.552
0.44282,81.552
0.48876,81.356
0.53568,81.356
0.57967,81.16
0.62072,80.965
0.65591,80.769
0.68524,80.378
0.7087,79.987
0.72434,79.596
0.73412,79.205
0.74096,78.618
0.74585,78.031
0.74682,77.445
0.74585,76.662
0.74096,76.076
0.73314,75.489
0.72336,74.902
0.71065,74.316
0.69501,73.533
0.67742,73.142
0.65982,72.36
0.64125,71.969
0.61975,71.382
0.59726,70.795
0.57478,70.209
0.55132,69.622
0.52884,69.035
0.50831,68.449
0.48876,67.862
0.47116,67.275
0.45552,66.688
0.44184,66.102
0.43011,65.711
0.42131,65.124
0.41349,64.537
0.40665,64.146
0.3998,63.559
0.39394,63.364
0.38807,63.168
0.38319,63.364
0.37732,64.537
0.37243,67.08
0.36755,71.969
0.36266,79.791
0.35875,89.765
0.35484,100.72
0.35191,111.28
0.348,120.86
0.34311,129.07
0.33822,135.53
0.33333,140.03
0.32845,142.96
0.32454,144.33
0.31965,144.72
0.31574,143.94
0.31085,142.57
0.30694,140.61
0.30205,138.46
0.29912,136.11
0.29717,133.57
0.29326,130.64
0.28935,127.71
0.28543,124.38
0.28152,121.06
0.27859,117.14
0.27468,113.04
0.27077,108.54
0.26686,104.04
0.26393,99.544
0.26002,95.241
0.25709,91.721
0.25513,88.592
0.25318,86.05
0.25318,84.289
0.25611,82.725
0.26588,81.943
0.2825,81.16
0.30792,80.769
0.34213,80.574
0.38416,80.574
0.43011,80.574
0.47898,80.378
0.52688,80.378
0.56696,80.183
0.6002,79.987
0.63343,79.791
0.66178,79.596
0.68622,79.4
0.70479,79.009
0.71848,78.422
0.72727,77.836
0.73216,77.249
0.73314,76.662
0.73021,76.076
0.72434,75.293
0.71652,74.707
0.70674,74.12
0.69404,73.533
0.6784,72.947
0.6608,72.164
0.64125,71.773
0.61975,71.186
0.59629,70.6
0.57283,70.013
0.54936,69.426
0.5259,68.84
0.50342,68.253
0.48289,67.666
0.46628,67.08
0.45161,66.493
0.43793,65.906
0.42522,65.515
0.41349,64.928
0.40371,64.342
0.39492,63.95
0.38807,63.364
0.38123,62.973
0.37537,62.582
0.37048,62.582
0.36559,62.777
0.36168,63.755
0.35777,65.906
0.35484,70.404
0.34995,77.64
0.34604,86.832
0.34213,97.197
0.33822,107.37
0.33333,116.56
0.32942,124.77
0.32454,131.23
0.32063,135.92
0.31574,139.05
0.31183,140.81
0.3089,141.2
0.30596,140.81
0.30205,139.24
0.29814,137.48
0.29423,135.14
0.29032,132.79
0.28739,130.05
0.28348,127.12
0.27957,123.99
0.27566,120.47
0.27175,116.75
0.26784,112.65
0.26588,108.34
0.26393,103.85
0.261,99.348
0.25806,95.046
0.25513,91.134
0.25122,88.005
0.24829,85.267
0.24536,83.312
0.24536,81.747
0.24927,80.574
0.25806,79.791
0.27468,79.4
0.3001,79.009
0.32845,79.009
0.3607,78.814
0.40078,78.814
0.44673,78.814
0.49365,78.814
0.53959,78.814
0.58162,78.618
0.61779,78.422
0.64907,78.227
0.67449,77.836
0.69404,77.445
0.70772,77.054
0.71457,76.662
0.7175,76.076
0.71848,75.489
0.71652,74.902
0.71065,74.12
0.70283,73.533
0.6911,72.947
0.67742,72.36
0.6608,71.773
0.64223,71.186
0.6217,70.6
0.59922,70.209
0.57869,69.622
0.55816,69.035
0.53666,68.449
0.51417,67.862
0.49267,67.471
0.47312,66.884
0.45455,66.297
0.43891,65.906
0.42522,65.319
0.41251,64.733
0.40274,64.146
0.39394,63.559
0.38612,63.168
0.38025,62.582
0.37537,62.19
0.37048,61.995
0.36657,61.799
0.36168,62.19
0.35777,63.168
0.35386,65.906
0.34995,70.795
0.34604,78.227
0.34213,87.81
0.33822,98.175
0.33431,108.34
0.33138,117.54
0.32942,125.36
0.32551,131.62
0.3216,136.11
0.31769,139.05
0.31378,140.61
0.30987,140.81
0.30596,140.22
0.30205,138.66
0.29814,136.9
0.29423,134.55
0.2913,132.2
0.28739,129.47
0.28446,126.53
0.2825,123.4
0.28055,119.88
0.27664,116.17
0.2737,112.06
0.27077,107.56
0.26686,103.06
0.26393,98.37
0.26002,94.068
0.25611,90.352
0.25318,87.223
0.24927,84.681
0.24829,82.725
0.24829,81.16
0.2522,79.987
0.261,79.4
0.27664,79.009
0.30108,78.814
0.33333,78.618
0.37341,78.618
0.41838,78.618
0.46628,78.618
0.51417,78.618
0.56012,78.422
0.60117,78.422
0.63343,78.227
0.65787,78.031
0.68035,77.64
0.69892,77.249
0.71359,76.858
0.72239,76.271
0.72727,75.685
0.72923,75.098
0.7263,74.511
0.72043,73.924
0.71163,73.338
0.6999,72.751
0.68622,72.164
0.67155,71.578
0.65396,70.991
0.63441,70.404
0.61193,69.818
0.58944,69.426
0.56598,68.84
0.54252,68.253
0.52004,67.666
0.49853,67.08
0.47898,66.688
0.46139,66.102
0.44575,65.711
0.43304,65.124
0.42326,64.537
0.41349,64.146
0.40567,63.559
0.39785,62.973
0.39101,62.582
0.38514,62.19
0.38025,61.995
0.37537,61.995
0.37048,62.582
0.36657,63.95
0.36266,67.08
0.35973,72.555
0.35679,80.769
0.35386,90.548
0.34995,101.11
0.34506,110.89
0.34115,119.88
0.33724,127.31
0.33333,133.18
0.32942,137.48
0.32454,140.03
0.32063,141.2
0.31672,141.2
0.31281,140.42
0.30987,138.85
0.30792,136.9
0.30499,134.75
0.30108,132.2
0.29814,129.47
0.29423,126.53
0.29032,123.4
0.28641,119.88
0.28348,116.17
0.27957,112.06
0.27664,107.56
0.2737,103.06
0.27175,98.566
0.26979,94.459
0.26686,90.743
0.26295,87.81
0.26002,85.267
0.25806,83.507
0.25904,82.138
0.26393,81.16
0.27468,80.769
0.29423,80.378
0.32063,80.378
0.35582,80.378
0.39785,80.378
0.43695,80.378
0.47605,80.378
0.51906,80.378
0.56207,80.378
0.60215,80.183
0.63734,79.987
0.66764,79.791
0.6911,79.596
0.70968,79.009
0.72239,78.618
0.73118,78.031
0.73509,77.445
0.73412,76.858
0.73021,76.271
0.72434,75.685
0.71554,75.098
0.70479,74.511
0.69013,73.924
0.67351,73.338
0.65494,72.947
0.63441,72.36
0.61193,71.773
0.58847,71.186
0.565,70.795
0.54252,70.209
0.52297,69.818
0.50538,69.231
0.48876,68.644
0.47214,68.253
0.45748,67.666
0.44477,67.275
0.43304,66.688
0.42424,66.102
0.41544,65.711
0.4086,65.124
0.40371,64.733
0.39785,64.342
0.39394,64.342
0.39101,64.537
0.38807,65.319
0.38416,67.471
0.38123,71.969
0.37732,79.009
0.37439,88.396
0.37048,98.957
0.36755,109.32
0.36364,119.1
0.35973,127.51
0.35679,134.35
0.35288,139.44
0.34995,142.76
0.348,144.72
0.34506,145.31
0.34213,144.72
0.33822,143.35
0.33529,141.59
0.33236,139.44
0.32942,137.09
0.32649,134.75
0.32258,132.01
0.31965,129.27
0.31672,126.14
0.31476,123.01
0.31281,119.49
0.31085,115.38
0.30792,111.08
0.30596,106.78
0.30303,102.09
0.3001,97.979
0.29717,94.068
0.29326,90.939
0.2913,88.396
0.29032,86.245
0.29423,84.681
0.30303,83.507
0.31574,82.725
0.33333,82.334
0.3607,81.943
0.39589,81.747
0.43793,81.747
0.48289,81.552
0.52884,81.552
0.5738,81.356
0.61486,81.16
0.65103,80.965
0.68133,80.574
0.70577,80.183
0.72239,79.791
0.73216,79.205
0.74096,78.618
0.74585,78.031
0.7478,77.445
0.74585,76.858
0.74194,76.271
0.73509,75.489
0.72532,74.902
0.71359,74.316
0.69892,73.729
0.68231,73.142
0.66569,72.555
0.64809,71.969
0.62757,71.382
0.60508,70.795
0.5826,70.404
0.56012,69.622
0.53763,69.035
0.51711,68.449
0.49756,67.862
0.47996,67.471
0.46334,66.884
0.44966,66.297
0.43793,65.711
0.42815,65.124
0.42033,64.537
0.41349,64.146
0.40567,63.559
0.3998,63.168
0.39296,62.973
0.38807,63.168
0.38221,64.146
0.37732,66.297
0.37243,70.991
0.36852,78.227
0.36364,88.005
0.35973,98.761
0.35582,109.52
0.35191,119.49
0.34702,127.9
0.34311,134.55
0.33822,139.44
0.33333,142.57
0.32942,144.13
0.32454,144.72
0.32063,144.13
0.31672,142.76
0.31183,140.81
0.30792,138.66
0.30499,136.31
0.30205,133.77
0.29912,131.03
0.29521,128.29
0.2913,125.16
0.28837,121.64
0.28446,117.93
0.28055,114.02
0.27664,109.71
0.2737,105.02
0.26979,100.52
0.26588,96.219
0.26393,92.503
0.261,89.179
0.25904,86.636
0.25806,84.681
0.25904,83.116
0.26588,81.943
0.27957,81.16
0.30108,80.769
0.33138,80.574
0.3695,80.378
0.41251,80.183
0.45943,80.183
0.50635,79.987
0.54643,79.987
0.57967,79.791
0.61388,79.596
0.64418,79.4
0.6696,79.009
0.68915,78.618
0.70479,78.227
0.71457,77.64
0.72043,77.054
0.72239,76.271
0.72043,75.685
0.71652,75.098
0.70968,74.316
0.6999,73.729
0.68915,73.142
0.67449,72.555
0.65885,71.969
0.64027,71.382
0.61975,70.795
0.59824,70.404
0.57576,69.818
0.55132,69.231
0.52786,68.644
0.50538,68.057
0.48387,67.471
0.46725,66.884
0.45259,66.297
0.43793,65.906
0.42424,65.319
0.41251,64.733
0.40176,64.342
0.39198,63.755
0.38416,63.168
0.37732,62.777
0.37146,62.386
0.36559,62.19
0.3607,62.386
0.35679,62.973
0.35386,64.928
0.34995,68.84
0.34604,75.293
0.34213,84.289
0.33822,94.655
0.33333,105.22
0.32942,114.99
0.32454,123.6
0.32063,130.64
0.31574,136.11
0.31183,139.64
0.30792,141.79
0.30499,142.37
0.30205,142.18
0.29912,140.81
0.29619,139.24
0.29228,137.09
0.28837,134.75
0.28446,132.01
0.28152,129.27
0.27761,126.14
0.2737,123.01
0.27077,119.3
0.26686,115.38
0.26491,111.08
0.26295,106.58
0.261,101.89
0.25806,97.393
0.25513,93.481
0.25122,89.765
0.24829,86.832
0.24438,84.485
0.2434,82.725
0.24438,81.16
0.25122,80.378
0.26393,79.791
0.28446,79.4
0.3089,79.205
0.33822,79.205
0.37634,79.009
0.42131,79.009
0.46823,79.009
0.51417,79.009
0.55816,78.814
0.59824,78.618
0.63148,78.422
0.65982,78.227
0.68133,77.836
0.69795,77.445
0.70772,76.858
0.71261,76.271
0.71457,75.685
0.71457,75.098
0.71065,74.511
0.70381,73.729
0.69501,73.142
0.68231,72.555
0.66764,72.164
0.65005,71.578
0.6305,70.991
0.60997,70.404
0.58749,69.818
0.56696,69.231
0.54643,68.644
0.5259,68.057
0.5044,67.471
0.48387,67.08
0.46432,66.493
0.4477,65.906
0.43206,65.319
0.41935,64.928
0.40762,64.342
0.39785,63.755
0.38905,63.364
0.38221,62.777
0.37732,62.386
0.37146,61.995
0.36657,61.604
0.36266,61.799
0.35777,62.386
0.35386,63.95
0.34995,67.275
0.34604,73.142
0.34213,81.552
0.33822,91.525
0.33431,101.89
0.3304,111.67
0.32747,120.47
0.32454,127.71
0.3216,133.38
0.31769,137.29
0.31378,139.64
0.30987,140.81
0.30596,140.61
0.30205,139.64
0.29814,137.87
0.29521,135.92
0.2913,133.57
0.28739,130.83
0.28543,128.1
0.2825,124.97
0.28055,121.64
0.27664,118.12
0.2737,114.21
0.27077,109.91
0.26784,105.41
0.26393,100.72
0.261,96.415
0.25806,92.308
0.25415,88.788
0.25122,85.854
0.24829,83.703
0.24829,81.943
0.24829,80.574
0.2522,79.791
0.26197,79.205
0.27859,78.814
0.30303,78.618
0.33627,78.618
0.37634,78.422
0.42131,78.422
0.46823,78.422
0.51515,78.422
0.55914,78.227
0.59433,78.227
0.6217,78.031
0.64907,77.64
0.67155,77.249
0.69013,76.858
0.70381,76.467
0.71261,75.88
0.71652,75.293
0.7175,74.707
0.71359,73.924
0.70772,73.338
0.69795,72.751
0.68719,72.164
0.67449,71.578
0.65787,70.991
0.6393,70.6
0.61877,70.013
0.59726,69.426
0.5738,68.84
0.55034,68.253
0.52786,67.666
0.50538,67.275
0.48485,66.688
0.46628,66.102
0.44966,65.515
0.43597,65.124
0.42522,64.537
0.41447,64.146
0.40469,63.559
0.39687,62.973
0.38905,62.386
0.38221,61.995
0.37634,61.604
0.37146,61.408
0.36657,61.408
0.36266,61.995
0.35875,63.364
0.35484,66.688
0.35191,72.36
0.34897,80.769
0.34506,90.743
0.34213,101.11
0.33822,111.08
0.33333,120.08
0.32942,127.51
0.32551,133.38
0.32063,137.48
0.31672,140.03
0.31281,141
0.3089,141
0.30596,140.22
0.30401,138.46
0.30108,136.51
0.29814,134.16
0.29423,131.62
0.29032,128.68
0.28641,125.75
0.28348,122.62
0.27957,119.1
0.27664,115.38
0.27273,111.28
0.26979,106.78
0.26784,102.28
0.26588,97.784
0.26393,93.677
0.261,90.157
0.25709,87.027
0.25415,84.485
0.25122,82.725
0.25122,81.16
0.25513,80.183
0.26491,79.596
0.2825,79.205
0.3089,79.009
0.34213,79.009
0.37732,79.009
0.41349,79.009
0.4565,79.009
0.50244,79.009
0.54741,78.814
0.58944,78.814
0.62659,78.618
0.65689,78.227
0.68231,78.031
0.70088,77.64
0.71457,77.249
0.72336,76.662
0.7263,76.076
0.7263,75.489
0.72336,74.902
0.7175,74.316
0.70968,73.533
0.69795,72.947
0.68426,72.36
0.66862,71.773
0.65005,71.382
0.62952,70.795
0.60704,70.209
0.58456,69.622
0.56109,69.231
0.53959,68.644
0.52102,68.057
0.50147,67.666
0.48192,67.08
0.46432,66.688
0.44868,66.102
0.43402,65.711
0.42229,65.319
0.41153,64.733
0.40274,64.342
0.39492,63.755
0.38807,63.364
0.38319,62.973
0.3783,62.777
0.37439,62.973
0.37341,63.559
0.37341,65.124
0.37146,68.644
0.36852,74.902
0.36461,83.507
0.36168,93.481
0.35777,104.04
0.35386,113.82
0.34995,122.62
0.34506,129.86
0.34213,135.53
0.3392,139.44
0.33627,141.79
0.33236,142.76
0.32845,142.57
0.32551,141.59
0.3216,140.03
0.31769,138.07
0.31378,135.92
0.31085,133.38
0.30694,130.64
0.30401,127.9
0.30205,124.77
0.3001,121.45
0.29814,117.73
0.29521,113.82
0.29326,109.52
0.29032,105.02
0.28739,100.52
0.28446,96.415
0.28152,92.503
0.27859,89.374
0.27664,86.832
0.27468,84.876
0.27664,83.312
0.28055,82.334
0.29032,81.747
0.30694,81.356
0.33138,81.16
0.36364,81.16
0.40371,81.16
0.44966,81.16
0.49756,81.16
0.54448,81.16
0.59042,80.965
0.63148,80.769
0.66667,80.574
0.69306,80.378
0.71163,79.791
0.72825,79.4
0.74096,78.814
0.75073,78.031
0.75562,77.249
0.7566,76.662
0.75464,75.88
0.74976,75.098
0.74194,74.511
0.73021,73.729
0.7175,73.338
0.70088,72.751
0.68426,72.164
0.66667,71.578
0.64712,71.186
0.62561,70.6
0.60215,70.013
0.57967,69.426
0.55718,69.035
0.53568,68.449
0.51613,67.862
0.49853,67.275
0.48289,66.688
0.46921,66.102
0.45846,65.515
0.44966,64.928
0.44086,64.342
0.43304,63.755
0.4262,63.168
0.42033,62.777
0.41544,62.582
0.41056,62.582
0.40567,63.168
0.40078,64.928
0.39687,68.84
0.39296,75.489
0.38807,84.681
0.38514,95.241
0.38123,106
0.3783,116.17
0.37341,124.97
0.3695,132.2
0.36461,137.48
0.35973,141
0.35582,143.16
0.35093,143.94
0.34702,143.35
0.34311,142.18
0.3392,140.42
0.33627,138.27
0.33333,136.11
0.3304,133.38
0.32649,130.64
0.32258,127.71
0.31867,124.58
0.31476,121.25
0.30987,117.73
0.30596,113.62
0.30205,109.52
0.29814,105.02
0.29423,100.52
0.2913,96.219
0.28935,92.308
0.28543,89.179
0.28152,86.441
0.27859,84.289
0.27859,82.725
0.2825,81.552
0.29228,80.769
0.30987,80.378
0.33627,79.987
0.37048,79.987
0.41251,79.987
0.45846,79.987
0.49951,79.791
0.53763,79.791
0.57869,79.596
0.61779,79.4
0.652,79.205
0.68133,78.814
0.70479,78.422
0.72239,77.836
0.73509,77.445
0.74291,76.662
0.74585,76.076
0.74585,75.293
0.74194,74.707
0.73509,73.924
0.72727,73.338
0.71554,72.751
0.70283,72.164
0.68622,71.578
0.66862,70.991
0.64809,70.6
0.62659,70.013
0.60411,69.622
0.58065,69.035
0.55718,68.449
0.5347,67.862
0.51515,67.471
0.49756,66.884
0.48094,66.102
0.46432,65.711
0.44966,65.124
0.43597,64.537
0.42424,64.146
0.41447,63.559
0.40665,62.973
0.39883,62.582
0.39296,61.995
0.3871,61.799
0.38319,61.604
0.37928,61.799
0.37537,62.777
0.37146,65.124
0.36755,70.013
0.36266,77.445
0.35875,87.223
0.35386,97.784
0.34995,108.15
0.34506,117.73
0.34018,125.95
0.33529,132.4
0.33138,137.09
0.32747,140.03
0.32454,141.59
0.3216,141.98
0.31769,141.2
0.31378,139.64
0.30987,137.68
0.30596,135.53
0.30205,132.99
0.29912,130.25
0.29521,127.51
0.2913,124.38
0.28739,121.06
0.28446,117.54
0.2825,113.62
0.28055,109.32
0.27761,104.82
0.2737,100.33
0.27077,96.024
0.26784,91.917
0.26393,88.592
0.26002,85.658
0.25709,83.507
0.25611,81.747
0.25806,80.378
0.26491,79.596
0.27664,79.009
0.29326,78.618
0.31965,78.422
0.35484,78.422
0.39687,78.227
0.44379,78.227
0.49169,78.227
0.53959,78.227
0.58456,78.227
0.62366,78.031
0.65787,77.64
0.68524,77.445
0.70381,77.054
0.71652,76.467
0.7263,76.076
0.73314,75.293
0.73607,74.707
0.73607,74.12
0.73216,73.533
0.72532,72.947
0.71554,72.164
0.70283,71.578
0.68817,70.991
0.6696,70.6
0.65005,70.013
0.6305,69.426
0.61193,68.84
0.59042,68.449
0.56696,67.862
0.54448,67.275
0.52199,66.688
0.50049,66.102
0.48094,65.515
0.46334,65.124
0.4477,64.537
0.43402,63.95
0.42229,63.559
0.41251,62.973
0.40567,62.582
0.39883,61.995
0.39198,61.604
0.38612,61.213
0.38025,60.821
0.37537,60.821
0.37146,61.213
0.36755,62.19
0.36266,64.928
0.35875,69.818
0.35484,77.249
0.35093,86.832
0.348,97.001
0.34506,106.98
0.34213,115.97
0.33822,123.79
0.33333,130.05
0.32942,134.35
0.32551,137.29
0.32063,138.66
0.31672,139.05
0.31183,138.07
0.30596,136.51
0.30205,134.55
0.29814,132.2
0.29619,129.47
0.29326,126.73
0.28935,123.79
0.28641,120.47
0.2825,116.75
0.27957,112.84
0.27664,108.74
0.27273,104.24
0.26979,99.739
0.26686,95.437
0.26393,91.33
0.26002,87.81
0.25806,84.876
0.25611,82.725
0.25415,80.769
0.2522,79.596
0.25415,78.618
0.261,78.031
0.2737,77.64
0.29423,77.64
0.32356,77.445
0.35973,77.445
0.40274,77.445
0.44868,77.445
0.49071,77.445
0.52786,77.445
0.56794,77.249
0.60508,77.054
0.63832,76.858
0.66667,76.467
0.68817,76.076
0.70479,75.489
0.71554,75.098
0.72239,74.316
0.72532,73.729
0.72336,73.142
0.71848,72.36
0.71065,71.969
0.70088,71.186
0.68719,70.6
0.67155,70.209
0.65396,69.622
0.63441,69.035
0.61193,68.644
0.58944,68.057
0.56598,67.666
0.5435,67.08
0.52102,66.688
0.50049,66.102
0.48289,65.515
0.46823,64.928
0.45357,64.537
0.43988,63.95
0.42815,63.364
0.4174,62.973
0.4086,62.386
0.3998,61.995
0.39296,61.408
0.3871,61.017
0.38221,60.626
0.37732,60.43
0.37341,60.43
0.3695,61.017
0.36657,62.386
0.36364,65.711
0.35973,71.382
0.35582,79.596
0.35191,89.179
0.348,99.544
0.34409,109.13
0.34018,117.73
0.33529,125.16
0.33138,130.83
0.32747,134.75
0.32454,137.29
0.3216,138.27
0.31867,138.27
0.31476,137.29
0.31183,135.53
0.30792,133.18
0.30401,130.83
0.30108,128.1
0.29717,125.36
0.29423,122.23
0.29032,118.9
0.28641,115.19
0.28446,111.28
0.2825,107.17
0.27957,102.67
0.27761,98.175
0.27468,93.872
0.27077,89.961
0.26784,86.636
0.26491,83.898
0.261,81.552
0.25904,79.987
0.25806,78.814
0.26197,78.031
0.27077,77.445
0.28348,77.249
0.30205,77.054
0.3304,77.054
0.36657,77.054
0.4086,77.054
0.45552,77.054
0.50244,76.858
0.54839,76.858
0.5914,76.662
0.62952,76.467
0.6608,76.271
0.68719,75.88
0.70479,75.489
0.71554,74.902
0.72434,74.316
0.73021,73.729
0.73216,73.142
0.73021,72.555
0.72532,71.969
0.71652,71.186
0.70577,70.6
0.6911,70.013
0.67449,69.426
0.65591,69.035
0.63441,68.644
0.61486,68.057
0.59531,67.471
0.57283,67.08
0.55034,66.493
0.52884,65.906
0.50733,65.515
0.48778,64.928
0.47019,64.537
0.45455,63.95
0.44086,63.364
0.42815,62.973
0.41838,62.386
0.41056,61.799
0.40371,61.408
0.39785,60.821
0.39198,60.43
0.3871,60.039
0.38221,60.039
0.37732,60.235
0.37341,61.017
0.3695,63.168
0.36559,67.471
0.36168,74.316
0.35679,83.312
0.35288,93.481
0.34995,103.65
0.34702,113.04
0.34311,121.25
0.3392,128.1
0.33431,133.18
0.3304,136.51
0.32649,138.27
0.32258,138.85
0.31867,138.46
0.31476,137.09
0.31085,135.33
0.30694,133.18
0.30401,130.64
0.30205,128.1
0.29912,125.36
0.29619,122.23
0.29228,118.9
0.28935,115.19
0.28543,111.28
0.2825,107.17
0.27859,102.67
0.27566,98.175
0.27273,93.872
0.26882,90.157
0.26491,87.027
0.26295,84.289
0.261,82.334
0.25904,80.769
0.26002,79.596
0.26393,78.814
0.2737,78.422
0.2913,78.227
0.31769,78.227
0.35093,78.227
0.39198,78.227
0.43793,78.227
0.4868,78.227
0.52786,78.227
0.565,78.227
0.60313,78.031
0.63832,77.836
0.66862,77.445
0.69404,77.249
0.71359,76.662
0.72727,76.271
0.73705,75.685
0.74096,75.098
0.74194,74.511
0.739,73.729
0.73314,73.338
0.72434,72.555
0.71359,72.164
0.6999,71.578
0.68328,70.991
0.66471,70.404
0.64321,70.013
0.62072,69.426
0.59824,69.035
0.57478,68.449
0.5523,67.862
0.52981,67.471
0.50929,66.884
0.49267,66.297
0.47801,65.906
0.46334,65.515
0.45064,64.928
0.43891,64.537
0.42913,64.146
0.42033,63.559
0.41251,62.973
0.40567,62.582
0.40078,62.19
0.39589,61.995
0.39101,62.19
0.3871,62.973
0.38416,65.124
0.38123,69.035
0.3783,75.88
0.37537,84.876
0.37146,95.046
0.36852,105.22
0.36461,114.6
0.3607,122.82
0.35679,129.66
0.35288,134.94
0.34897,138.27
0.34506,140.22
0.34213,140.81
0.34018,140.42
0.33724,139.24
0.33431,137.68
0.33138,135.72
0.32845,133.38
0.32454,131.23
0.3216,128.68
0.31867,125.95
0.31574,123.01
0.31281,119.69
0.30987,116.17
0.30792,112.26
0.30596,108.15
0.30401,103.65
0.30205,99.348
0.3001,95.046
0.29717,91.525
0.29326,88.396
0.29032,85.854
0.28935,83.898
0.28935,82.334
0.29423,81.16
0.30499,80.378
0.32356,79.987
0.34506,79.596
0.37146,79.596
0.40762,79.4
0.44966,79.4
0.49658,79.4
0.5435,79.4
0.58847,79.205
0.62952,79.205
0.66569,78.814
0.69599,78.618
0.72043,78.227
0.739,77.836
0.75171,77.249
0.75855,76.662
0.76149,75.88
0.76149,75.293
0.75953,74.511
0.75562,73.729
0.7478,73.142
0.73705,72.555
0.72434,71.969
0.70968,71.186
0.69208,70.6
0.67155,70.013
0.65005,69.622
0.6305,69.035
0.60997,68.449
0.58847,67.862
0.56598,67.471
0.54448,66.884
0.52493,66.102
0.50538,65.711
0.48876,65.124
0.4741,64.537
0.46041,63.95
0.44868,63.559
0.43891,62.973
0.43109,62.582
0.42424,62.19
0.41838,61.604
0.41349,61.408
0.4086,61.408
0.40371,61.604
0.39883,62.777
0.39394,65.515
0.39003,70.6
0.38514,78.618
0.38025,88.592
0.37537,99.153
0.37048,109.32
0.36657,118.51
0.36266,126.53
0.35777,132.79
0.35288,137.29
0.348,140.03
0.34311,141.4
0.33822,141.59
0.33431,140.81
0.32942,139.24
0.32551,137.29
0.32063,135.14
0.31672,132.59
0.31281,130.05
0.31085,127.12
0.30694,123.99
0.30303,120.86
0.29912,117.34
0.29521,113.43
0.2913,109.32
0.28837,104.82
0.28446,100.33
0.28152,96.024
0.27761,92.112
0.2737,88.592
0.26979,85.854
0.26784,83.507
0.26686,81.747
0.26784,80.574
0.27273,79.596
0.28348,79.009
0.30303,78.814
0.3304,78.618
0.36559,78.422
0.40762,78.422
0.45455,78.422
0.50244,78.422
0.55034,78.422
0.58847,78.227
0.62072,78.031
0.652,77.836
0.68035,77.445
0.70283,76.858
0.72043,76.467
0.73216,75.88
0.73998,75.293
0.74291,74.511
0.74291,73.924
0.739,73.142
0.73216,72.555
0.72239,71.969
0.71065,71.382
0.69795,70.795
0.68231,70.209
0.66373,69.818
0.64321,69.231
0.6217,68.84
0.59824,68.253
0.57478,67.666
0.55132,67.08
0.52884,66.688
0.50733,66.102
0.48778,65.515
0.47116,64.928
0.45846,64.342
0.44477,63.755
0.43304,63.364
0.42229,62.777
0.41349,62.386
0.40469,61.799
0.39785,61.408
0.39198,61.017
0.38612,60.626
0.38123,60.43
0.37634,60.821
0.37146,61.799
0.36852,64.146
0.36559,68.84
0.36168,76.076
0.35777,85.463
0.35288,95.828
0.34897,105.8
0.34409,114.8
0.3392,122.82
0.33529,129.07
0.3304,133.38
0.32551,136.31
0.3216,137.68
0.31867,137.87
0.31574,137.29
0.31281,135.72
0.3089,133.57
0.30499,131.42
0.30108,128.88
0.29814,125.95
0.29423,123.01
0.29032,119.88
0.28641,116.36
0.28348,112.45
0.27957,108.54
0.27664,104.04
0.2737,99.544
0.27273,95.046
0.26979,91.134
0.26686,87.614
0.26393,84.681
0.261,82.334
0.25709,80.378
0.25513,79.009
0.25611,78.227
0.261,77.64
0.27273,77.249
0.29228,77.054
0.31476,77.054
0.34311,76.858
0.38025,76.858
0.42424,76.858
0.47116,76.858
0.51808,76.662
0.56305,76.662
0.60411,76.467
0.6393,76.271
0.66862,75.88
0.6911,75.489
0.7087,75.098
0.72141,74.511
0.72727,73.924
0.72923,73.338
0.72825,72.751
0.72434,72.164
0.7175,71.578
0.7087,70.795
0.69599,70.209
0.68133,69.622
0.66373,69.231
0.64321,68.644
0.6217,68.253
0.59922,67.666
0.57771,67.275
0.55816,66.688
0.53763,66.102
0.51613,65.711
0.4956,65.124
0.47703,64.537
0.45943,63.95
0.44477,63.364
0.43206,62.973
0.42033,62.386
0.41056,61.995
0.40274,61.408
0.39492,61.017
0.39003,60.43
0.38514,60.235
0.38123,60.039
0.37634,60.039
0.37243,60.626
0.36852,61.799
0.36461,64.928
0.3607,70.209
0.35679,78.031
0.35288,87.614
0.34897,97.393
0.34506,106.78
0.34115,115.38
0.3392,122.62
0.33529,128.29
0.33138,132.2
0.32747,134.75
0.32356,135.72
0.31965,135.72
0.31574,134.75
0.31183,132.99
0.30792,130.83
0.30401,128.49
0.3001,125.75
0.29717,123.01
0.29423,119.88
0.29228,116.56
0.28935,112.84
0.28641,108.74
0.28348,104.43
0.27957,99.739
0.27664,95.241
0.2737,91.134
0.26979,87.419
0.26686,84.289
0.26393,81.747
0.261,79.791
0.25904,78.422
0.25904,77.249
0.261,76.662
0.26588,76.076
0.27761,75.88
0.29717,75.88
0.32454,75.88
0.35973,75.88
0.40176,75.88
0.4477,75.88
0.49169,75.88
0.53372,75.88
0.5738,75.88
0.60606,75.685
0.63148,75.293
0.65591,75.098
0.67644,74.511
0.69306,74.12
0.70479,73.533
0.71163,72.947
0.71359,72.36
0.71261,71.773
0.7087,70.991
0.70088,70.404
0.68915,69.818
0.67742,69.231
0.66276,68.84
0.64614,68.253
0.62659,67.666
0.60508,67.275
0.5826,66.688
0.56012,66.102
0.53763,65.711
0.51515,65.124
0.49462,64.537
0.47605,64.146
0.45943,63.755
0.44575,63.168
0.43402,62.777
0.42326,62.19
0.41349,61.799
0.40469,61.408
0.39785,60.821
0.39101,60.43
0.38514,60.039
0.38025,59.844
0.37537,59.844
0.37146,60.039
0.36755,61.213
0.36364,63.559
0.3607,68.057
0.35875,75.098
0.35484,84.289
0.35191,94.263
0.348,104.04
0.34409,112.84
0.34018,120.47
0.33529,126.73
0.33138,131.23
0.32747,134.16
0.32356,135.72
0.31867,136.11
0.31574,135.33
0.31378,133.77
0.31085,131.81
0.30694,129.66
0.30303,127.12
0.29912,124.38
0.29619,121.45
0.29228,118.32
0.28935,114.8
0.28543,110.89
0.2825,106.78
0.27957,102.28
0.27664,97.784
0.2737,93.481
0.27273,89.765
0.26979,86.636
0.26686,83.898
0.26393,81.747
0.261,80.183
0.26002,79.009
0.26002,78.227
0.26491,77.836
0.27468,77.64
0.29228,77.64
0.31867,77.836
0.34604,77.836
0.37732,78.031
0.4174,78.031
0.46139,78.031
0.50733,78.031
0.55132,78.031
0.59238,77.836
0.62854,77.64
0.65787,77.249
0.68231,76.662
0.70088,76.271
0.71457,75.685
0.72239,75.098
0.72532,74.511
0.72532,73.924
0.72141,73.338
0.71554,72.751
0.70772,72.164
0.69599,71.578
0.68133,70.991
0.66471,70.6
0.64516,70.013
0.62463,69.622
0.60215,69.035
0.57967,68.644
0.56012,68.057
0.54154,67.471
0.52199,67.08
0.50342,66.493
0.48583,66.102
0.47019,65.711
0.4565,65.124
0.44477,64.733
0.435,64.146
0.4262,63.755
0.41838,63.364
0.41251,62.973
0.40665,62.386
0.40274,62.19
0.3998,62.19
0.39687,62.582
0.39296,63.755
0.39003,66.493
0.38612,71.578
0.38319,79.205
0.37928,88.592
0.37634,98.761
0.37243,108.74
0.36852,117.73
0.36559,125.36
0.36266,131.62
0.35973,135.92
0.35679,138.66
0.35288,139.83
0.34995,140.03
0.34604,139.24
0.34311,137.68
0.3392,135.53
0.33627,133.38
0.33333,131.03
0.32942,128.49
0.32551,125.75
0.32356,122.62
0.3216,119.49
0.32063,115.97
0.31769,112.26
0.31574,108.15
0.31281,104.04
0.30987,99.544
0.30792,95.437
0.30499,91.917
0.30205,88.788
0.29912,86.05
0.29619,84.094
0.29521,82.725
0.29619,81.552
0.30108,80.769
0.30987,80.183
0.32649,79.987
0.35093,79.791
0.38221,79.791
0.42131,79.596
0.46432,79.596
0.51026,79.4
0.55523,79.205
0.59824,79.009
0.63636,78.814
0.66862,78.422
0.69306,78.031
0.70968,77.445
0.72532,76.858
0.73705,76.271
0.74487,75.685
0.74878,75.098
0.74878,74.316
0.74585,73.729
0.73998,73.142
0.73118,72.555
0.71945,71.969
0.70577,71.382
0.6911,70.991
0.67449,70.404
0.65591,70.013
0.63539,69.426
0.61388,69.035
0.5914,68.449
0.56989,67.862
0.54741,67.275
0.52688,66.688
0.50831,66.102
0.49071,65.515
0.47507,64.928
0.46139,64.342
0.45064,63.95
0.44184,63.364
0.43402,62.777
0.4262,62.386
0.41838,61.995
0.41251,61.604
0.40665,61.408
0.40078,61.604
0.39492,62.582
0.39003,64.928
0.38514,69.426
0.38025,76.662
0.37634,86.05
0.37243,96.415
0.36852,106.58
0.36364,115.97
0.35875,124.19
0.35386,130.64
0.34897,135.33
0.34506,138.46
0.34018,139.83
0.33529,140.22
0.33138,139.44
0.32747,138.07
0.32258,136.11
0.31965,133.77
0.31769,131.42
0.31378,128.88
0.31085,126.14
0.30694,123.21
0.30303,120.08
0.29912,116.36
0.29521,112.65
0.2913,108.54
0.28739,104.04
0.28446,99.544
0.28055,95.241
0.27761,91.33
0.27566,88.201
0.27273,85.463
0.26882,83.312
0.26686,81.552
0.26588,80.378
0.26882,79.596
0.27664,79.009
0.29326,78.814
0.31672,78.618
0.34897,78.618
0.38905,78.618
0.43304,78.618
0.47312,78.422
0.51124,78.422
0.55132,78.227
0.5914,78.227
0.62659,77.836
0.65689,77.445
0.68133,77.054
0.70088,76.467
0.71457,75.88
0.72336,75.293
0.72727,74.707
0.72825,74.12
0.72532,73.533
0.71945,72.751
0.71163,72.164
0.70088,71.578
0.68719,70.991
0.6696,70.404
0.65103,69.818
0.6305,69.231
0.60899,68.84
0.58651,68.253
0.56403,67.666
0.54057,67.275
0.52102,66.688
0.49853,65.906
0.47801,65.515
0.46334,64.928
0.44966,64.342
0.43597,63.95
0.42424,63.364
0.41349,62.973
0.40371,62.386
0.39589,61.995
0.38905,61.408
0.38319,61.017
0.37732,60.821
0.37341,60.821
0.3695,61.408
0.36559,62.582
0.36168,65.711
0.35777,70.991
0.35386,79.009
0.34995,88.788
0.34506,98.957
0.34115,108.54
0.33627,117.34
0.33138,124.58
0.32747,130.25
0.32356,134.35
0.32063,136.7
0.31672,137.68
0.31281,137.68
0.3089,136.51
0.30499,134.75
0.30108,132.79
0.29717,130.44
0.29326,127.9
0.28935,124.97
0.28543,122.03
0.2825,118.71
0.27859,114.99
0.27566,111.08
0.2737,106.98
0.27175,102.48
0.26784,97.979
0.26491,93.677
0.26197,89.765
0.25904,86.441
0.25513,83.898
0.2522,81.747
0.24927,79.987
0.24731,78.814
0.24927,78.227
0.25318,77.64
0.26295,77.445
0.27957,77.249
0.30401,77.249
0.33724,77.249
0.37634,77.249
0.42131,77.249
0.46823,77.249
0.51417,77.249
0.55816,77.054
0.60313,76.858
0.64027,76.662
0.66471,76.271
0.68133,75.88
0.69306,75.293
0.70283,74.902
0.7087,74.316
0.71261,73.533
0.71065,72.947
0.70577,72.36
0.70088,71.773
0.69208,71.186
0.67937,70.6
0.66373,70.013
0.64614,69.622
0.62854,69.035
0.60997,68.449
0.58944,67.862
0.56696,67.471
0.54448,66.884
0.51711,66.297
0.49267,65.906
0.47605,65.319
0.46041,64.733
0.44184,64.146
0.42424,63.559
0.41349,63.168
0.40469,62.582
0.39589,62.19
0.38905,61.604
0.38221,61.213
0.37634,60.821
0.37146,60.626
0.36755,60.626
0.36266,61.017
0.35875,61.995
0.35484,64.537
0.35191,69.426
0.348,76.662
0.34506,85.854
0.34213,95.828
0.33822,105.41
0.33431,114.21
0.3304,121.64
0.32649,127.71
0.3216,132.01
0.31769,134.55
0.31378,135.92
0.3089,136.11
0.30499,135.33
0.30108,133.77
0.29717,131.62
0.29423,129.27
0.29228,126.73
0.28935,123.99
0.28543,120.86
0.28152,117.54
0.27859,113.82
0.27468,109.91
0.27175,105.61
0.26784,101.11
0.26491,96.61
0.26197,92.503
0.25806,88.788
0.25611,85.854
0.25415,83.116
0.25122,81.16
0.24927,79.596
0.24927,78.422
0.2522,77.64
0.261,77.249
0.27761,77.054
0.30108,76.858
0.33333,76.858
0.37243,76.858
0.41544,76.858
0.46139,76.858
0.50147,76.858
0.53763,76.858
0.5738,76.662
0.60802,76.467
0.63832,76.271
0.66276,75.88
0.68133,75.489
0.69599,75.098
0.70479,74.511
0.70968,73.924
0.70968,73.338
0.70674,72.751
0.70088,72.164
0.69208,71.578
0.68035,70.991
0.66667,70.404
0.64907,70.013
0.6305,69.426
0.60899,68.84
0.58749,68.449
0.55327,67.862
0.53079,67.275
0.50929,66.688
0.47898,66.102
0.46334,65.711
0.44966,65.124
0.43695,64.537
0.42522,64.146
0.41447,63.559
0.40469,62.973
0.39687,62.582
0.39003,61.995
0.38416,61.604
0.3783,61.213
0.37341,60.821
0.3695,60.626
0.36559,60.43
0.36266,60.821
0.35973,62.19
0.35582,64.928
0.35191,69.818
0.348,77.445
0.34409,86.832
0.34018,96.806
0.33627,106.58
0.33236,115.38
0.32747,123.01
0.32356,129.07
0.31965,133.38
0.31672,136.11
0.31378,137.48
0.3089,137.68
0.30499,136.9
0.30108,135.33
0.29619,133.38
0.29228,131.23
0.28837,128.68
0.28446,125.95
0.28055,123.01
0.27761,119.69
0.27468,116.36
0.27273,112.26
0.26979,108.15
0.26686,103.65
0.26393,99.153
0.26002,94.85
0.25513,91.134
0.2522,87.81
0.25122,85.072
0.25611,82.725
0.26588,81.16
0.28055,79.987
0.3001,79.4
0.32942,78.814
0.36657,78.618
0.4086,78.422
0.45455,78.422
0.50147,78.422
0.54545,78.618
0.58651,78.618
0.62268,78.618
0.66569,78.618
0.68719,78.422
0.70283,78.227
0.71554,78.031
0.71945,77.836
0.72141,77.445
0.71945,76.858
0.71457,76.467
0.70674,75.88
0.69501,75.293
0.68133,74.707
0.66373,74.12
0.64516,73.533
0.62366,72.947
0.60411,72.36
0.58456,71.969
0.56403,71.382
0.54154,70.795
0.52102,70.404
0.50049,69.818
0.48192,69.426
0.4653,68.84
0.45064,68.253
0.43793,67.862
0.4262,67.471
0.42033,66.884
0.41544,66.297
0.41153,65.906
0.40762,65.319
0.40274,64.928
0.39785,64.342
0.39394,63.95
0.38905,63.559
0.38514,63.168
0.38123,63.168
0.37732,63.364
0.37341,64.146
0.36852,66.102
0.36461,70.013
0.36168,76.467
0.35875,85.267
0.35484,95.241
0.35093,105.41
0.34702,114.8
0.34311,123.01
0.3392,129.86
0.33529,134.94
0.33138,138.46
0.32845,140.42
0.32454,141.2
0.32063,140.81
0.31769,139.83
0.31574,138.07
0.31378,136.11
0.31085,133.77
0.30792,131.42
0.30499,128.68
0.30205,125.95
0.29912,122.82
0.29619,119.49
0.29326,115.78
0.29032,111.67
0.28739,107.37
0.28446,103.06
0.2825,98.761
0.2825,94.85
0.28543,91.33
0.29228,88.592
0.30499,86.245
0.32551,84.485
0.35484,83.312
0.39101,82.529
0.43304,81.943
0.47996,81.552
0.52786,81.552
0.5738,81.356
0.61779,81.552
0.65103,81.552
0.6784,81.356
0.70381,81.356
0.72532,81.16
0.74291,80.965
0.75562,80.574
0.76344,80.183
0.76735,79.596
0.76735,79.009
0.76442,78.422
0.75758,77.836
0.74878,77.249
0.73705,76.662
0.72434,75.88
0.70772,75.293
0.68915,74.707
0.66862,74.12
0.64712,73.533
0.62366,73.142
0.60117,72.555
0.57771,71.969
0.55621,71.382
0.53568,70.795
0.51711,70.209
0.50049,69.622
0.48778,69.035
0.47605,68.449
0.4653,67.666
0.45552,67.08
0.44673,66.493
0.43891,65.906
0.43304,65.515
0.4262,64.928
0.42131,64.342
0.41544,63.755
0.41056,63.364
0.40567,62.973
0.40176,62.973
0.39785,63.168
0.39394,64.537
0.38905,67.275
0.38416,72.36
0.3783,80.378
0.37341,90.352
0.36852,100.91
0.36364,111.08
0.35875,120.47
0.35386,128.49
0.34897,134.75
0.34409,139.24
0.34018,142.18
0.33724,143.55
0.33333,143.74
0.32942,142.96
0.32454,141.4
0.31965,139.64
0.31574,137.48
0.31085,135.14
0.30694,132.59
0.30205,129.86
0.29814,126.92
0.29326,123.79
0.29032,120.47
0.28739,116.56
0.28348,112.45
0.27957,108.15
0.27566,103.65
0.27273,99.153
0.27175,95.046
0.27468,91.525
0.28348,88.592
0.3001,86.245
0.32454,84.289
0.35875,82.921
0.3998,82.138
0.43891,81.356
0.47703,81.16
0.52102,80.769
0.56598,80.769
0.60704,80.574
0.64418,80.574
0.67644,80.574
0.70186,80.378
0.72141,80.183
0.73607,79.987
0.74585,79.791
0.75073,79.4
0.75171,79.009
0.74976,78.422
0.74487,78.031
0.73803,77.445
0.72825,76.662
0.71554,76.076
0.6999,75.293
0.68231,74.707
0.66276,74.12
0.64125,73.533
0.61877,72.947
0.59433,72.36
0.57087,71.773
0.55034,71.382
0.53177,70.795
0.51222,70.209
0.49267,69.622
0.47507,69.035
0.45943,68.449
0.44575,67.862
0.43304,67.471
0.42326,66.884
0.41349,66.102
0.40567,65.711
0.39883,65.124
0.39296,64.537
0.38905,64.146
0.38416,63.755
0.37928,63.168
0.37439,62.777
0.37048,62.777
0.36559,62.973
0.3607,63.95
0.35582,66.102
0.35191,70.404
0.34702,77.445
0.34213,86.832
0.33724,97.393
0.33333,107.76
0.3304,117.34
0.32649,125.55
0.3216,132.2
0.31769,136.9
0.31281,140.03
0.3089,141.79
0.30401,142.37
0.3001,141.59
0.29619,140.22
0.29228,138.46
0.28837,136.31
0.28543,133.77
0.2825,131.23
0.27957,128.49
0.27664,125.36
0.27273,122.03
0.26979,118.32
0.26588,114.41
0.26295,110.3
0.25904,105.8
0.25513,101.3
0.2522,96.806
0.2522,92.894
0.25415,89.57
0.261,86.832
0.2737,84.485
0.29521,82.725
0.32356,81.552
0.3607,80.769
0.40469,80.378
0.45161,79.987
0.49951,79.791
0.54741,79.791
0.59042,79.791
0.62854,79.791
0.6608,79.791
0.68426,79.596
0.70088,79.4
0.71554,79.205
0.7263,79.009
0.73314,78.814
0.73705,78.422
0.73607,77.836
0.73216,77.249
0.72532,76.662
0.71457,76.076
0.70186,75.489
0.68622,74.902
0.67058,74.316
0.65298,73.533
0.63343,72.947
0.61095,72.36
0.58749,71.969
0.56403,71.382
0.54057,70.795
0.51808,70.209
0.49756,69.622
0.47801,69.035
0.46139,68.449
0.44673,67.862
0.43304,67.471
0.42326,66.884
0.41544,66.297
0.40665,65.711
0.3998,65.319
0.39296,64.733
0.3871,64.342
0.38123,63.755
0.37634,63.168
0.37243,62.777
0.36755,62.386
0.36266,62.386
0.35875,62.777
0.35484,63.559
0.35191,65.906
0.348,70.209
0.34409,77.054
0.34018,86.245
0.33431,96.415
0.32845,106.39
0.32356,115.78
0.31867,123.79
0.31476,130.25
0.31085,134.94
0.30596,138.07
0.30205,139.83
0.29912,140.42
0.29717,139.83
0.29423,138.46
0.29032,136.7
0.28739,134.55
0.28348,132.01
0.27957,129.47
0.27664,126.53
0.27273,123.4
0.26979,119.88
0.26588,116.17
0.26295,111.86
0.26002,107.37
0.25904,102.87
0.25611,98.175
0.25318,94.068
0.2522,90.352
0.25415,87.223
0.261,84.681
0.27468,82.725
0.29521,81.356
0.32454,80.378
0.3607,79.791
0.40176,79.4
0.44673,79.205
0.4868,79.205
0.52297,79.205
0.56109,79.205
0.59726,79.205
0.62854,79.205
0.65494,79.205
0.67644,79.009
0.69306,78.814
0.70381,78.618
0.71065,78.422
0.71359,78.031
0.71261,77.64
0.7087,77.054
0.70186,76.467
0.69208,75.685
0.67937,75.098
0.66471,74.511
0.64712,73.924
0.62757,73.338
0.60704,72.555
0.58456,72.164
0.56109,71.578
0.53861,70.991
0.51711,70.404
0.4956,70.013
0.47898,69.426
0.46432,68.84
0.44966,68.253
0.43695,67.666
0.42522,67.08
0.41447,66.493
0.40567,65.906
0.39785,65.515
0.39101,64.928
0.38514,64.342
0.38025,63.95
0.37537,63.364
0.37146,62.973
0.36852,62.386
0.36559,62.19
0.36168,61.995
0.35777,62.386
0.35386,63.364
0.34995,65.906
0.34604,70.6
0.34115,77.836
0.33724,87.223
0.33236,97.393
0.32845,107.37
0.32454,116.56
0.32063,124.58
0.31867,131.03
0.31476,135.72
0.31183,138.85
0.30792,140.61
0.30401,140.81
0.3001,140.22
0.29619,138.85
0.29228,137.09
0.28837,134.75
0.28543,132.4
0.28152,129.66
0.27859,126.92
0.27761,123.79
0.27468,120.27
0.27175,116.56
0.26784,112.45
0.26491,108.15
0.261,103.46
0.25806,98.957
0.25513,94.85
0.25415,91.134
0.25709,88.005
0.26491,85.658
0.28055,83.507
0.29912,82.138
0.32356,81.16
0.35679,80.378
0.39687,80.183
0.44184,79.987
0.48778,79.987
0.53275,79.987
0.57478,79.987
0.61193,79.987
0.64321,79.987
0.6696,79.987
0.69013,79.791
0.70283,79.791
0.71065,79.596
0.71652,79.205
0.71945,78.814
0.71945,78.227
0.71554,77.836
0.7087,77.249
0.69892,76.662
0.68622,76.076
0.67058,75.293
0.65298,74.707
0.63343,74.12
0.61193,73.533
0.5914,72.947
0.57185,72.36
0.55132,71.969
0.52981,71.382
0.50831,70.795
0.48876,70.209
0.47116,69.818
0.45552,69.231
0.44086,68.84
0.42913,68.253
0.41838,67.862
0.40958,67.275
0.40274,66.884
0.39785,66.297
0.39198,65.906
0.3871,65.319
0.38221,64.928
0.3783,64.342
0.37341,63.95
0.3695,63.95
0.36559,64.146
0.36168,64.733
0.35777,66.493
0.35386,70.209
0.34995,76.271
0.34604,84.876
0.34311,95.046
0.34018,105.61
0.33627,115.38
0.33236,123.99
0.32845,131.42
0.32454,136.9
0.32063,140.61
0.31672,142.76
0.31281,143.74
0.30987,143.55
0.30596,142.57
0.30401,141
0.30205,139.05
0.29912,136.9
0.29619,134.55
0.29326,132.01
0.29032,129.27
0.28739,126.14
0.28446,123.01
0.28152,119.3
0.27859,115.38
0.27566,111.08
0.27175,106.58
0.27077,102.09
0.26979,97.979
0.27077,94.263
0.27566,91.134
0.28543,88.592
0.30303,86.636
0.32845,85.072
0.3607,84.094
0.40078,83.507
0.44477,83.116
0.49071,82.921
0.53666,82.921
0.57967,82.921
0.6129,82.921
0.64027,82.921
0.66667,82.921
0.68915,82.921
0.70772,82.725
0.72141,82.529
0.73021,82.138
0.73509,81.747
0.73705,81.16
0.73509,80.574
0.72923,79.791
0.72141,79.205
0.71163,78.422
0.70088,77.64
0.68622,77.054
0.6696,76.271
0.65103,75.489
0.6305,75.098
0.60899,74.511
0.58651,73.924
0.565,73.533
0.5435,72.947
0.52297,72.36
0.5044,71.773
0.48778,71.186
0.4741,70.6
0.46334,70.013
0.45259,69.426
0.44282,68.84
0.43402,68.253
0.4262,67.666
0.42033,67.08
0.41447,66.493
0.40958,65.906
0.40469,65.319
0.3998,64.733
0.39492,64.537
0.39198,64.342
0.38905,64.733
0.38514,66.102
0.38123,69.231
0.37634,74.902
0.37243,83.116
0.36755,93.286
0.36266,104.04
0.35875,114.41
0.35386,123.6
0.34897,131.62
0.34506,137.68
0.34018,141.98
0.33724,144.52
0.33431,145.89
0.3304,145.89
0.32747,144.92
0.32356,143.55
0.31965,141.59
0.31574,139.44
0.31183,137.09
0.30694,134.55
0.30303,131.81
0.29912,128.88
0.29423,125.75
0.2913,122.23
0.28935,118.32
0.28543,114.21
0.28152,109.71
0.27664,105.22
0.2737,100.72
0.27175,96.61
0.27468,92.894
0.2825,89.961
0.29814,87.419
0.32258,85.658
0.35484,84.289
0.39394,83.507
0.43206,82.921
0.46921,82.529
0.51124,82.334
0.55425,82.138
0.59433,82.138
0.62952,82.138
0.65982,81.943
0.68426,81.943
0.70283,81.747
0.71652,81.356
0.72532,81.16
0.73021,80.769
0.73021,80.183
0.72727,79.791
0.72239,79.009
0.71554,78.422
0.70577,77.836
0.69404,77.054
0.67937,76.467
0.66276,75.88
0.64321,75.098
0.6217,74.511
0.6002,73.924
0.57674,73.338
0.55327,72.751
0.53372,72.164
0.51515,71.773
0.4956,71.186
0.47703,70.6
0.46041,70.013
0.44477,69.426
0.43109,68.84
0.41935,68.253
0.40958,67.471
0.40078,67.08
0.39296,66.493
0.38612,65.906
0.38123,65.515
0.37634,64.928
0.37243,64.537
0.36755,64.146
0.36364,63.755
0.35875,63.755
0.35484,64.146
0.34995,65.319
0.34506,68.253
0.34115,73.533
0.33627,81.747
0.33138,91.917
0.32747,102.87
0.32356,113.43
0.32063,123.01
0.31672,131.23
0.31281,137.48
0.3089,141.79
0.30499,144.72
0.30108,145.89
0.29717,146.09
0.29326,145.11
0.28935,143.55
0.28446,141.4
0.28055,139.05
0.27761,136.51
0.27566,133.96
0.27273,131.23
0.26979,128.1
0.26588,124.77
0.26295,121.25
0.25904,117.34
0.25611,113.04
0.2522,108.54
0.24829,103.85
0.24536,99.348
0.24536,95.241
0.24927,91.721
0.25709,88.983
0.26979,86.441
0.29032,84.681
0.32063,83.507
0.35777,82.529
0.40176,81.943
0.44868,81.552
0.49658,81.356
0.54252,81.356
0.58456,81.16
0.6217,81.16
0.652,81.16
0.67449,80.965
0.68915,80.769
0.70283,80.574
0.71261,80.378
0.71848,79.987
0.72043,79.596
0.71945,79.205
0.71554,78.618
0.70772,78.031
0.69795,77.249
0.68524,76.662
0.67058,76.076
0.65298,75.293
0.63636,74.707
0.61779,74.12
0.59726,73.533
0.57478,72.947
0.5523,72.36
0.52884,71.773
0.50733,71.186
0.48583,70.6
0.46725,70.013
0.44966,69.426
0.435,69.035
0.42131,68.253
0.41153,67.666
0.40274,67.275
0.39492,66.688
0.38807,66.102
0.38123,65.711
0.37537,65.124
0.3695,64.537
0.36461,64.146
0.35973,63.559
0.35484,63.364
0.35093,63.364
0.34604,63.559
0.34311,64.733
0.34018,67.275
0.33627,72.164
0.33236,79.596
0.32747,89.179
0.32356,99.739
0.31867,109.91
0.31476,119.3
0.30987,127.31
0.30596,133.77
0.30205,138.27
0.29814,141.2
0.29423,142.76
0.2913,143.16
0.28837,142.37
0.28543,141
0.2825,139.24
0.27859,136.9
0.27566,134.55
0.27175,131.81
0.26784,128.88
0.26491,125.75
0.261,122.43
0.25806,118.51
0.25415,114.41
0.2522,109.91
0.25024,105.22
0.24731,100.52
0.24536,96.219
0.2434,92.308
0.24536,89.179
0.2522,86.636
0.26491,84.485
0.28641,82.921
0.31574,81.747
0.35191,81.16
0.39492,80.769
0.44086,80.378
0.48192,80.378
0.51906,80.183
0.55816,80.183
0.59433,80.183
0.62757,80.183
0.65494,80.183
0.67644,79.987
0.69208,79.791
0.70381,79.596
0.71065,79.205
0.71359,78.814
0.71261,78.422
0.7087,77.836
0.70186,77.249
0.69208,76.662
0.68035,76.076
0.66569,75.293
0.64809,74.707
0.62952,74.12
0.60802,73.338
0.58553,72.751
0.56305,72.164
0.53959,71.578
0.51711,70.991
0.4956,70.6
0.47801,70.013
0.46334,69.426
0.4477,68.84
0.43402,68.253
0.42131,67.666
0.40958,67.275
0.3998,66.688
0.39198,66.102
0.38416,65.711
0.3783,65.124
0.37243,64.537
0.36755,63.95
0.36364,63.559
0.3607,63.168
0.35679,62.777
0.35386,62.777
0.34995,63.168
0.34604,64.537
0.34213,67.471
0.33724,72.947
0.33333,80.965
0.32845,90.743
0.32454,101.3
0.32063,111.47
0.31574,120.86
0.31281,128.68
0.31085,134.94
0.30694,139.24
0.30401,142.18
0.3001,143.55
0.29619,143.55
0.29228,142.76
0.28837,141.2
0.28446,139.24
0.28055,136.9
0.27761,134.35
0.2737,131.62
0.27175,128.68
0.26979,125.55
0.26686,122.03
0.26393,118.32
0.261,114.02
0.25709,109.52
0.25318,104.82
0.25024,100.13
0.24731,95.828
0.24633,92.112
0.25024,88.983
0.25806,86.245
0.27468,84.289
0.29423,82.725
0.31867,81.552
0.35288,80.965
0.39492,80.574
0.43988,80.183
0.49071,80.183
0.54154,80.183
0.58651,79.987
0.62561,79.987
0.65885,79.987
0.68524,79.791
0.70674,79.791
0.71945,79.596
0.72727,79.4
0.73314,79.009
0.73607,78.422
0.73509,78.031
0.73118,77.445
0.72434,76.662
0.71457,76.076
0.70186,75.489
0.68622,74.902
0.66764,74.316
0.64809,73.533
0.62561,72.947
0.60508,72.36
0.58553,71.773
0.56305,71.186
0.54154,70.795
0.51906,70.209
0.49853,69.622
0.47898,69.035
0.46237,68.644
0.4477,68.057
0.43402,67.471
0.42326,67.08
0.41349,66.493
0.40567,65.906
0.3998,65.515
0.39296,64.928
0.38807,64.537
0.38221,63.95
0.37732,63.559
0.37243,63.168
0.36852,62.973
0.36364,62.973
0.35973,63.559
0.35484,65.124
0.35093,68.253
0.34604,73.924
0.34311,82.138
0.3392,92.308
0.33529,102.87
0.33138,113.04
0.32747,122.23
0.32258,130.05
0.31867,136.11
0.31476,140.42
0.31085,142.96
0.30694,144.33
0.30303,144.33
0.29912,143.35
0.29619,141.59
0.29423,139.64
0.2913,137.29
0.28837,134.94
0.28446,132.4
0.28152,129.66
0.27761,126.53
0.27468,123.21
0.27077,119.49
0.26784,115.38
0.26393,111.08
0.261,106.58
0.25806,101.89
0.25611,97.588
0.25709,93.872
0.26002,90.548
0.26784,87.81
0.28152,85.854
0.30401,84.094
0.33529,82.921
0.37341,82.334
0.41838,81.747
0.4653,81.552
0.51417,81.356
0.56012,81.356
0.59824,81.356
0.62854,81.356
0.65787,81.356
0.68426,81.16
0.70577,81.16
0.72239,80.965
0.73412,80.769
0.74096,80.378
0.74389,79.987
0.74291,79.596
0.739,79.009
0.73216,78.227
0.72239,77.64
0.71065,77.054
0.69697,76.467
0.68035,75.88
0.66178,75.293
0.64125,74.707
0.61975,74.12
0.59629,73.533
0.5738,73.142
0.55132,72.555
0.52981,71.969
0.50929,71.578
0.49071,70.991
0.47605,70.404
0.46334,69.818
0.45161,69.231
0.44086,68.84
0.43109,68.253
0.42229,67.666
0.41544,67.275
0.4086,66.688
0.40371,66.102
0.39883,65.515
0.39394,65.124
0.39003,64.733
0.38612,64.537
0.38319,64.733
0.38025,65.515
0.37634,67.471
0.37243,71.382
0.36852,78.031
0.36461,87.223
0.3607,97.784
0.35679,108.34
0.35288,118.32
0.34897,127.12
0.34506,134.55
0.34115,140.22
0.3392,143.94
0.33627,146.09
0.33431,146.87
0.3304,146.48
0.32747,145.31
0.32454,143.35
0.3216,141.2
0.31769,138.85
0.31476,136.31
0.31183,133.57
0.3089,130.83
0.30596,127.71
0.30303,124.58
0.30205,121.06
0.29912,117.14
0.29619,113.04
0.29326,108.74
0.28935,104.04
0.28739,99.739
0.28739,95.632
0.29228,92.308
0.30303,89.374
0.32063,87.223
0.34702,85.463
0.38221,84.289
0.41642,83.312
0.45259,82.725
0.4956,82.334
0.54057,82.138
0.58553,81.943
0.62561,81.747
0.66178,81.747
0.69208,81.552
0.71554,81.356
0.73412,81.16
0.74682,80.769
0.75562,80.378
0.75855,79.987
0.75758,79.596
0.75464,79.009
0.74976,78.227
0.74194,77.64
0.73216,77.054
0.71945,76.467
0.70479,75.685
0.68719,75.098
0.66862,74.316
0.64712,73.729
0.62463,73.142
0.60117,72.555
0.58065,72.164
0.56109,71.578
0.54057,70.991
0.52102,70.404
0.50147,69.818
0.48387,69.231
0.46823,68.644
0.45455,68.057
0.44282,67.471
0.43206,66.884
0.42229,66.493
0.41447,65.906
0.40762,65.319
0.40274,64.733
0.39687,64.342
0.39101,63.755
0.38612,63.364
0.38025,62.973
0.37537,62.777
0.37048,63.168
0.36559,64.342
0.3607,67.275
0.35582,72.751
0.35093,81.16
0.34604,91.525
0.34213,102.48
0.33822,113.04
0.33431,122.62
0.3304,130.83
0.32551,137.09
0.3216,141.4
0.31769,144.13
0.31378,145.31
0.3089,145.31
0.30499,144.33
0.30108,142.76
0.29717,140.81
0.29423,138.46
0.2913,136.11
0.28837,133.38
0.28543,130.44
0.28152,127.31
0.27761,123.99
0.27468,120.47
0.27077,116.56
0.26686,112.45
0.26393,107.95
0.26002,103.46
0.25611,98.957
0.25513,94.85
0.25806,91.134
0.26393,88.201
0.27664,85.658
0.29717,83.898
0.32551,82.334
0.36266,81.356
0.40665,80.769
0.45455,80.378
0.50342,80.183
0.55132,79.987
0.59433,79.987
0.63343,79.987
0.66178,79.791
0.68328,79.791
0.70283,79.596
0.71848,79.4
0.72923,79.009
0.73607,78.618
0.739,78.227
0.739,77.64
0.73509,77.054
0.72825,76.467
0.71848,75.88
0.70577,75.293
0.68817,74.511
0.66764,73.924
0.64907,73.338
0.62952,72.751
0.60802,72.164
0.58456,71.578
0.56207,70.991
0.53861,70.6
0.51613,70.013
0.49462,69.426
0.47507,68.84
0.45748,68.253
0.44184,67.666
0.42913,67.08
0.41935,66.493
0.40958,65.906
0.40078,65.319
0.39296,64.928
0.38514,64.342
0.37928,63.95
0.37341,63.364
0.36852,62.777
0.36364,62.386
0.35875,61.995
0.35386,61.604
0.34995,61.604
0.34702,62.19
0.34409,63.559
0.34018,66.688
0.33627,72.36
0.33138,80.769
0.32747,90.939
0.32258,101.5
0.31867,111.67
0.31476,120.67
0.31085,128.29
0.30694,134.16
0.30303,138.27
0.3001,140.81
0.29814,141.79
0.29521,141.79
0.2913,140.61
0.28837,138.85
0.28446,136.7
0.28055,134.16
0.27664,131.62
0.2737,128.68
0.26979,125.75
0.26686,122.43
0.26295,118.9
0.26002,114.99
0.25806,110.89
0.25611,106.39
0.25318,101.89
0.25024,97.197
0.24731,93.09
0.24633,89.374
0.24927,86.441
0.25611,83.898
0.27077,81.943
0.29326,80.574
0.32356,79.596
0.36266,78.814
0.3998,78.422
0.43793,78.227
0.48192,78.227
0.52688,78.227
0.56989,78.227
0.60802,78.227
0.64125,78.227
0.66862,78.031
0.68915,77.836
0.70479,77.64
0.71554,77.445
0.72141,77.054
0.72239,76.662
0.72043,76.271
0.71554,75.685
0.70772,75.098
0.69795,74.511
0.68524,73.729
0.6696,73.142
0.652,72.555
0.63245,71.969
0.61095,71.186
0.58847,70.795
0.565,70.209
0.54154,69.622
0.52102,69.035
0.50342,68.644
0.48387,68.057
0.46628,67.471
0.44966,67.08
0.435,66.493
0.42229,65.906
0.41056,65.319
0.40078,64.733
0.39296,64.342
0.38514,63.755
0.37928,63.168
0.37439,62.777
0.37048,62.19
0.36657,61.799
0.36266,61.408
0.35875,61.017
0.35484,60.821
0.35093,61.017
0.34702,61.799
0.34311,63.95
0.3392,68.057
0.33529,74.902
0.33138,83.898
0.32747,94.068
0.32454,104.24
0.3216,113.82
0.31769,122.03
0.31378,128.68
0.31085,133.77
0.30694,137.09
0.30303,139.05
0.29912,139.64
0.29619,139.05
0.29228,137.68
0.28935,135.72
0.28543,133.57
0.28348,131.03
0.28152,128.29
0.27859,125.55
0.27566,122.23
0.27273,118.9
0.26979,114.99
0.26588,110.89
0.26295,106.58
0.25904,102.09
0.25611,97.393
0.25318,93.286
0.25024,89.374
0.25122,86.245
0.25513,83.703
0.26393,81.552
0.27957,80.183
0.30303,79.009
0.33431,78.227
0.37341,77.836
0.41838,77.64
0.4653,77.445
0.5132,77.445
0.55816,77.445
0.59922,77.445
0.63539,77.445
0.66178,77.445
0.68133,77.249
0.69795,77.054
0.71163,76.858
0.72043,76.662
0.72532,76.271
0.72727,75.685
0.72434,75.098
0.71848,74.511
0.70968,73.924
0.69795,73.338
0.68328,72.751
0.66667,72.164
0.64907,71.578
0.6305,70.991
0.60997,70.404
0.58749,69.818
0.56403,69.426
0.54057,68.84
0.51906,68.253
0.49756,67.862
0.47801,67.275
0.46139,66.688
0.44575,66.102
0.43206,65.711
0.42229,65.124
0.41349,64.537
0.40567,64.146
0.39785,63.559
0.39101,62.973
0.38514,62.582
0.37928,61.995
0.37439,61.408
0.37048,61.017
0.36559,60.626
0.36168,60.43
0.35777,60.43
0.35386,60.821
0.35093,62.386
0.348,65.515
0.34409,71.186
0.34018,79.4
0.33627,89.374
0.33236,99.739
0.32845,109.71
0.32454,118.51
0.32063,125.95
0.31574,131.81
0.31183,136.11
0.30792,138.66
0.30499,139.83
0.30303,139.83
0.3001,138.85
0.29717,137.29
0.29326,135.14
0.29032,132.99
0.28641,130.44
0.2825,127.71
0.27957,124.77
0.27566,121.45
0.27273,117.93
0.26979,114.02
0.26686,109.91
0.26393,105.41
0.26295,100.91
0.26002,96.415
0.25709,92.112
0.25513,88.592
0.25611,85.658
0.26295,83.116
0.27566,81.356
0.29717,79.987
0.32649,79.009
0.36461,78.618
0.40762,78.227
0.44868,78.227
0.48778,78.227
0.53177,78.227
0.57478,78.227
0.61388,78.422
0.64809,78.422
0.67742,78.422
0.6999,78.422
0.7175,78.227
0.72923,78.031
0.73607,77.836
0.739,77.249
0.73803,76.858
0.73314,76.271
0.7263,75.685
0.71652,75.098
0.70381,74.511
0.68915,73.729
0.67058,73.142
0.65103,72.555
0.62854,72.164
0.60606,71.578
0.5826,70.991
0.55816,70.6
0.53568,70.013
0.51613,69.426
0.49853,69.035
0.48094,68.449
0.4653,68.057
0.45064,67.471
0.43695,67.08
0.42717,66.493
0.42033,66.102
0.41349,65.515
0.40665,65.124
0.40078,64.537
0.39589,64.146
0.39101,63.559
0.3871,63.168
0.38416,62.777
0.38123,62.386
0.37732,62.386
0.37439,62.973
0.37048,64.342
0.36657,67.471
0.36266,72.947
0.35875,81.16
0.35484,91.134
