0.33822,55.346
0.33529,57.692
0.33236,61.604
0.32942,66.884
0.32649,73.142
0.32356,79.596
0.32063,85.854
0.31867,91.917
0.31672,97.197
0.31476,101.69
0.31183,105.41
0.3089,107.95
0.30596,109.52
0.30303,110.1
0.3001,109.91
0.29717,108.93
0.29423,107.56
0.29032,105.61
0.28739,103.26
0.28446,100.72
0.28152,97.784
0.27957,94.459
0.27761,90.743
0.27468,87.223
0.27077,83.507
0.26784,80.183
0.26393,77.249
0.261,74.707
0.25806,72.751
0.25415,70.991
0.25122,69.622
0.24829,68.644
0.24731,67.666
0.24731,67.08
0.24927,66.688
0.25611,66.297
0.26784,66.102
0.28739,65.906
0.31476,65.906
0.34897,65.711
0.39003,65.711
0.43402,65.711
0.47996,65.515
0.52395,65.515
0.565,65.319
0.59726,65.124
0.62268,64.928
0.64712,64.733
0.66667,64.342
0.68133,64.146
0.69013,63.755
0.69404,63.364
0.69404,62.973
0.68915,62.582
0.68035,62.19
0.66667,61.799
0.65103,61.408
0.63343,61.213
0.61486,60.821
0.59433,60.43
0.57087,60.039
0.54741,59.648
0.52395,59.257
0.50147,58.866
0.47996,58.279
0.46041,57.888
0.44282,57.497
0.42717,56.91
0.41349,56.519
0.40176,55.932
0.39296,55.541
0.38612,55.15
0.37928,54.759
0.37243,54.368
0.36657,53.977
0.36168,53.781
0.35777,53.585
0.35386,53.585
0.34995,53.781
0.34702,54.563
0.34409,56.128
0.34115,59.061
0.3392,63.559
0.33724,69.426
0.33431,76.076
0.33138,82.529
0.32845,88.788
0.32551,94.459
0.32258,99.544
0.31965,103.65
0.31574,106.78
0.31281,108.93
0.30987,110.3
0.30694,110.5
0.30401,110.1
0.30205,108.93
0.3001,107.17
0.29717,105.22
0.29423,102.87
0.2913,100.13
0.28837,97.001
0.28446,93.677
0.28152,90.157
0.27761,86.441
0.2737,82.725
0.27077,79.596
0.26686,76.662
0.26491,74.316
0.26295,72.164
0.26002,70.6
0.25709,69.231
0.25415,68.253
0.2522,67.471
0.2522,66.884
0.25611,66.493
0.26588,66.102
0.28152,65.906
0.30596,65.906
0.33822,65.711
0.37732,65.711
0.41447,65.711
0.45161,65.711
0.49365,65.515
0.53666,65.515
0.57674,65.319
0.6129,65.124
0.64321,64.928
0.66764,64.733
0.68622,64.342
0.69892,63.95
0.70577,63.559
0.70772,63.364
0.70479,62.973
0.69795,62.582
0.68817,62.19
0.67546,61.799
0.65885,61.408
0.6393,61.017
0.61779,60.821
0.59433,60.43
0.57087,59.844
0.54643,59.648
0.52297,59.061
0.49951,58.67
0.47898,58.279
0.46139,57.692
0.44673,57.301
0.43304,56.91
0.41935,56.323
0.40762,55.932
0.39785,55.541
0.38905,55.15
0.38123,54.759
0.37439,54.172
0.36852,53.977
0.36364,53.781
0.35973,53.585
0.3607,53.781
0.36461,54.172
0.36559,55.541
0.36364,58.083
0.36168,62.386
0.35875,68.057
0.35582,74.511
0.35288,81.356
0.34897,88.005
0.34604,93.872
0.34213,99.348
0.3392,104.04
0.33529,107.56
0.33333,110.3
0.33138,111.86
0.32845,112.45
0.32551,112.26
0.32258,111.28
0.31965,109.91
0.31574,107.95
0.31281,105.8
0.3089,103.26
0.30499,100.33
0.30205,97.197
0.29814,93.677
0.29521,89.961
0.29228,86.245
0.28935,82.725
0.28641,79.596
0.2825,76.858
0.27859,74.511
0.27468,72.555
0.27175,70.991
0.26784,69.818
0.26491,68.84
0.26491,68.253
0.26784,67.666
0.27468,67.471
0.28739,67.275
0.30792,67.08
0.33724,67.08
0.37439,67.08
0.41935,67.08
0.46823,67.08
0.51906,67.08
0.56794,67.08
0.61388,66.884
0.65396,66.884
0.68817,66.688
0.71554,66.493
0.73412,66.102
0.74585,65.906
0.75464,65.515
0.75953,65.124
0.75953,64.733
0.75562,64.537
0.74682,64.146
0.73412,63.755
0.7175,63.364
0.69795,63.168
0.67546,62.777
0.65103,62.386
0.62854,61.995
0.60606,61.604
0.58162,61.213
0.55718,60.821
0.53372,60.43
0.51124,59.844
0.49071,59.452
0.47312,58.866
0.4565,58.475
0.44282,58.083
0.43109,57.692
0.42033,57.301
0.41153,56.91
0.40567,56.323
0.3998,56.128
0.39492,55.737
0.39101,55.737
0.3871,55.737
0.38319,56.128
0.38025,57.301
0.37732,59.648
0.37439,63.755
0.37146,69.231
0.36852,75.685
0.36559,82.725
0.36266,89.374
0.3607,95.632
0.35875,101.11
0.35582,106
0.35288,109.91
0.34995,112.65
0.34702,114.41
0.34409,114.99
0.34115,114.99
0.3392,114.21
0.33627,112.84
0.33333,111.28
0.3304,109.13
0.32747,106.78
0.32551,104.24
0.32356,101.11
0.32063,97.784
0.31672,94.263
0.31378,90.548
0.31085,87.027
0.30792,83.703
0.30401,80.769
0.30108,78.227
0.29814,76.271
0.29521,74.511
0.29326,73.142
0.29228,72.164
0.2913,71.382
0.29423,70.991
0.3001,70.6
0.31378,70.404
0.33431,70.404
0.36461,70.209
0.40176,70.209
0.44673,70.209
0.49462,70.209
0.54448,70.209
0.59238,70.013
0.63245,69.818
0.66471,69.818
0.69697,69.426
0.72532,69.231
0.7478,68.84
0.7654,68.449
0.77713,68.057
0.78397,67.666
0.78495,67.275
0.78201,66.884
0.77419,66.493
0.76344,66.102
0.74976,65.711
0.73412,65.319
0.71457,64.928
0.69306,64.537
0.6696,64.146
0.64516,63.559
0.61975,62.973
0.59531,62.386
0.57185,61.799
0.55034,61.408
0.52981,60.626
0.51222,60.039
0.49658,59.648
0.48387,59.061
0.4741,58.67
0.46432,58.279
0.4565,57.692
0.44868,57.301
0.44282,56.91
0.43695,56.715
0.43304,56.519
0.42815,56.519
0.42522,56.91
0.42131,58.083
0.41838,60.626
0.41544,64.733
0.41251,70.6
0.40958,77.249
0.40567,84.485
0.40274,91.525
0.39883,97.979
0.39492,103.85
0.39101,108.74
0.3871,112.65
0.38319,115.38
0.37928,117.14
0.37537,117.73
0.37146,117.34
0.36852,116.36
0.36559,114.99
0.36266,113.23
0.35875,111.08
0.35484,108.74
0.35093,105.8
0.34702,102.87
0.34213,99.544
0.33724,95.828
0.33236,91.917
0.32845,88.201
0.32356,84.681
0.31965,81.552
0.31672,78.814
0.31281,76.662
0.30792,74.902
0.30401,73.338
0.3001,72.164
0.29717,71.382
0.29814,70.795
0.30401,70.404
0.31769,70.209
0.3392,70.013
0.36852,69.818
0.40665,69.818
0.44379,69.622
0.48192,69.622
0.5259,69.426
0.57185,69.426
0.61584,69.231
0.65494,69.035
0.68817,68.84
0.71554,68.449
0.73705,68.253
0.75171,67.862
0.76051,67.471
0.76442,66.884
0.76344,66.493
0.75758,65.906
0.74976,65.515
0.73803,64.928
0.72336,64.537
0.70577,64.146
0.68524,63.755
0.66178,63.364
0.63636,62.973
0.61095,62.582
0.58456,62.19
0.55914,61.604
0.5347,61.213
0.51417,60.821
0.49658,60.235
0.47801,59.648
0.46139,59.257
0.44673,58.67
0.43402,58.279
0.42229,57.692
0.41251,57.301
0.40469,56.91
0.39785,56.519
0.39101,56.128
0.38612,55.932
0.38221,55.737
0.37928,55.932
0.37537,56.519
0.37243,57.692
0.36852,60.43
0.36461,64.537
0.3607,70.404
0.35679,77.054
0.35288,84.094
0.348,90.743
0.34409,97.001
0.34018,102.48
0.33724,107.17
0.33431,110.69
0.33138,113.04
0.32747,114.41
0.32356,114.8
0.31965,114.6
0.31574,113.43
0.30792,111.86
0.29912,109.71
0.29228,107.17
0.28739,104.43
0.28348,101.3
0.27957,97.979
0.27664,94.263
0.27468,90.352
0.27175,86.636
0.26784,83.116
0.26491,79.987
0.261,77.249
0.25806,75.098
0.25415,73.338
0.25122,71.969
0.24731,70.795
0.24536,70.013
0.24438,69.231
0.24731,68.84
0.25318,68.644
0.26491,68.253
0.28446,68.253
0.31183,68.057
0.34604,68.057
0.3871,67.862
0.43206,67.862
0.47898,67.862
0.52395,67.666
0.565,67.471
0.60215,67.471
0.63245,67.08
0.65396,66.884
0.66862,66.493
0.68133,66.102
0.68915,65.906
0.69306,65.515
0.69208,65.124
0.68719,64.733
0.6784,64.342
0.66569,63.95
0.64907,63.559
0.62952,63.168
0.60802,62.777
0.58749,62.386
0.56696,61.995
0.54448,61.604
0.52102,61.213
0.49853,60.626
0.47703,60.039
0.4565,59.648
0.43793,59.061
0.42131,58.67
0.40762,58.083
0.39492,57.692
0.38416,57.301
0.37537,56.91
0.3695,56.323
0.36364,55.932
0.35875,55.541
0.35386,55.346
0.34995,55.15
0.34604,55.15
0.34213,55.346
0.3392,56.128
0.33627,57.692
0.33333,60.43
0.33138,64.733
0.32845,70.404
0.32551,76.858
0.32356,83.312
0.3216,89.374
0.31769,95.046
0.31476,99.935
0.31085,104.24
0.30792,107.17
0.30499,109.32
0.30205,110.5
0.29814,110.89
0.29521,110.3
0.29228,109.13
0.28935,107.37
0.28739,105.22
0.28543,102.67
0.2825,99.544
0.27957,96.219
0.27664,92.503
0.27273,88.788
0.26979,85.072
0.26588,81.552
0.26197,78.618
0.25904,75.88
0.25513,73.729
0.2522,71.969
0.24927,70.6
0.24829,69.231
0.24536,68.449
0.24438,67.862
0.24438,67.471
0.24731,67.08
0.25415,66.884
0.26882,66.688
0.28935,66.493
0.31867,66.493
0.35386,66.493
0.39492,66.493
0.43891,66.493
0.47703,66.493
0.51222,66.297
0.54839,66.297
0.5826,66.102
0.61193,65.906
0.63636,65.515
0.65396,65.319
0.66667,64.928
0.67449,64.537
0.67644,64.146
0.67351,63.755
0.66667,63.364
0.65689,62.973
0.64418,62.777
0.62854,62.386
0.60899,61.995
0.58847,61.604
0.565,61.213
0.54154,60.821
0.51808,60.43
0.4956,59.844
0.47312,59.452
0.45357,59.061
0.43597,58.475
0.41935,58.083
0.40665,57.497
0.39687,57.106
0.3871,56.715
0.3783,56.323
0.37146,55.932
0.36461,55.541
0.35973,55.15
0.35484,54.954
0.35093,54.759
0.34702,54.759
0.34409,54.954
0.34115,55.541
0.3392,56.91
0.33822,59.648
0.33529,63.95
0.33333,69.426
0.3304,75.685
0.32845,82.334
0.32551,88.396
0.32258,94.263
0.31965,99.348
0.31672,103.65
0.31378,106.98
0.31085,109.32
0.30792,110.5
0.30499,111.08
0.30401,110.5
0.30108,109.52
0.29912,107.76
0.29619,105.61
0.29326,103.26
0.28935,100.33
0.28641,97.001
0.2825,93.481
0.27957,89.765
0.27566,86.05
0.27273,82.725
0.26979,79.4
0.26784,76.662
0.26491,74.316
0.26197,72.36
0.25904,70.991
0.25611,69.622
0.25318,68.84
0.25122,68.057
0.25122,67.471
0.25415,67.275
0.26197,66.884
0.27566,66.884
0.29717,66.688
0.3216,66.688
0.34995,66.688
0.38612,66.493
0.42815,66.493
0.47312,66.493
0.51711,66.297
0.55816,66.297
0.59531,66.102
0.62659,65.906
0.65103,65.711
0.67058,65.319
0.68328,64.928
0.69013,64.537
0.69208,64.342
0.69013,63.95
0.68426,63.559
0.67546,63.168
0.66178,62.777
0.64516,62.386
0.62561,61.995
0.60411,61.604
0.58065,61.408
0.55718,61.017
0.53372,60.626
0.51026,60.039
0.49071,59.648
0.47312,59.257
0.45552,58.67
0.43891,58.279
0.42424,57.888
0.41056,57.497
0.39883,57.106
0.38905,56.715
0.38025,56.128
0.37341,55.737
0.36755,55.541
0.36168,55.346
0.35875,55.15
0.35582,55.15
0.35288,55.346
0.34995,55.932
0.34702,57.497
0.34409,60.235
0.34213,64.733
0.3392,70.404
0.33627,76.858
0.33333,83.507
0.3304,89.961
0.32747,95.828
0.32454,101.11
0.32258,105.61
0.31965,108.93
0.31672,111.47
0.31378,112.84
0.31085,113.23
0.30792,112.84
0.30499,111.86
0.30205,110.3
0.29912,108.15
0.29521,105.61
0.29228,102.87
0.28837,99.544
0.28641,96.024
0.28446,92.308
0.28152,88.396
0.27859,84.681
0.27566,81.356
0.27175,78.227
0.26882,75.88
0.26491,73.729
0.26197,72.164
0.25806,70.795
0.25415,69.818
0.2522,69.035
0.25318,68.449
0.26295,68.057
0.27664,67.862
0.29521,67.666
0.33724,67.666
0.37537,67.666
0.42033,67.666
0.46921,67.666
0.54448,67.471
0.59238,67.471
0.63539,67.471
0.68622,67.471
0.7087,67.275
0.72825,67.08
0.74389,66.688
0.7566,66.493
0.75855,66.102
0.7566,65.711
0.74389,65.319
0.72923,64.928
0.71163,64.537
0.69013,64.146
0.66862,63.755
0.64614,63.364
0.62072,62.973
0.59433,62.777
0.56794,62.19
0.53666,61.799
0.51026,61.408
0.49169,61.017
0.4741,60.43
0.45748,59.844
0.44282,59.452
0.42913,58.866
0.41349,58.475
0.40469,58.083
0.39883,57.692
0.39003,57.106
0.38416,56.715
0.38025,56.323
0.37732,55.932
0.37439,55.737
0.37146,55.541
0.36755,55.541
0.36559,55.932
0.36266,56.715
0.3607,58.67
0.35875,61.995
0.35582,66.884
0.35288,73.142
0.34897,79.791
0.34506,86.636
0.34213,93.09
0.33822,98.957
0.33431,104.24
0.33138,108.54
0.32845,111.67
0.32551,113.82
0.32258,114.99
0.31965,115.19
0.31769,114.8
0.31476,113.62
0.31085,112.06
0.30694,109.91
0.30205,107.56
0.29717,104.82
0.29326,101.69
0.28837,98.175
0.28446,94.655
0.28055,90.743
0.27761,87.027
0.27566,83.507
0.27273,80.574
0.26979,78.031
0.26882,75.685
0.26979,73.924
0.27761,72.555
0.29619,71.578
0.31281,70.795
0.3304,70.404
0.37341,70.013
0.43402,69.818
0.49169,69.622
0.53959,69.622
0.58065,69.426
0.62366,69.622
0.66373,69.622
0.69795,69.622
0.7263,69.622
0.7478,69.622
0.76344,69.622
0.77224,69.426
0.77615,69.231
0.77517,69.035
0.76833,68.644
0.75855,68.253
0.74585,67.862
0.72923,67.471
0.70968,67.08
0.68622,66.688
0.66178,66.297
0.63539,65.906
0.60802,65.515
0.58749,65.124
0.565,64.733
0.53568,64.342
0.51124,63.95
0.48974,63.559
0.47312,62.973
0.45943,62.582
0.44673,61.995
0.43597,61.604
0.4262,61.213
0.41838,60.821
0.41153,60.235
0.40567,59.844
0.40078,59.452
0.39687,59.061
0.39394,58.67
0.39101,58.279
0.38807,58.083
0.3871,57.888
0.38416,58.083
0.38221,58.67
0.37928,60.039
0.37634,62.973
0.37439,67.471
0.37146,73.338
0.36755,80.378
0.36461,87.419
0.36168,94.459
0.35875,100.72
0.35484,106.58
0.35288,111.28
0.35093,114.99
0.348,117.54
0.34604,119.1
0.34311,119.49
0.34018,119.1
0.33724,117.93
0.33431,116.56
0.33138,114.8
0.32747,112.45
0.32454,110.1
0.32063,107.17
0.31867,104.04
0.31672,100.52
0.31378,96.806
0.31085,93.09
0.30792,89.374
0.30499,86.05
0.30303,83.116
0.30205,80.574
0.30499,78.618
0.31281,76.858
0.32845,75.489
0.35191,74.707
0.38416,73.924
0.41838,73.533
0.45552,73.142
0.50049,72.947
0.54936,72.947
0.59922,72.751
0.64516,72.947
0.68719,72.947
0.72336,72.751
0.75269,72.751
0.77615,72.36
0.79179,72.164
0.80254,71.773
0.80645,71.382
0.80547,70.991
0.80156,70.404
0.79472,70.013
0.78299,69.426
0.76833,69.035
0.74976,68.449
0.72825,68.057
0.70479,67.471
0.68035,67.08
0.65396,66.688
0.62757,66.297
0.60215,65.906
0.57967,65.515
0.56012,65.124
0.54057,64.537
0.52199,64.146
0.50538,63.559
0.49071,62.973
0.47801,62.582
0.46725,61.995
0.45846,61.408
0.45064,60.821
0.44379,60.43
0.43793,59.844
0.43402,59.452
0.43011,58.866
0.42717,58.475
0.42326,58.083
0.41935,57.888
0.41447,57.888
0.41056,58.083
0.40567,58.866
0.40078,60.626
0.39589,63.95
0.39101,69.035
0.38612,75.489
0.38221,82.725
0.3783,89.765
0.37439,96.61
0.3695,102.87
0.36559,108.34
0.3607,112.84
0.35582,116.17
0.35093,118.12
0.34604,119.1
0.34115,119.3
0.33529,118.51
0.3304,117.14
0.32454,115.38
0.32063,113.23
0.31672,110.89
0.31183,107.95
0.30694,104.82
0.30205,101.5
0.29619,97.784
0.2913,93.872
0.28641,90.157
0.28152,86.441
0.27664,83.116
0.27273,80.378
0.27175,78.031
0.2737,76.076
0.28055,74.511
0.29423,73.533
0.31574,72.555
0.34702,71.969
0.38612,71.578
0.43109,71.382
0.48094,70.991
0.53079,70.991
0.57967,70.795
0.62366,70.795
0.66276,70.795
0.69501,70.795
0.7175,70.6
0.73216,70.6
0.74487,70.404
0.75171,70.013
0.75562,69.818
0.75367,69.426
0.7478,69.035
0.72336,68.644
0.68915,68.057
0.66276,67.666
0.63832,67.275
0.61388,66.688
0.59238,66.297
0.57185,65.906
0.54839,65.515
0.52493,64.928
0.50147,64.537
0.47898,64.146
0.45846,63.755
0.43891,63.168
0.42229,62.777
0.40762,62.19
0.39492,61.799
0.38416,61.213
0.37537,60.626
0.36852,60.039
0.36364,59.648
0.35875,59.061
0.35386,58.67
0.34995,58.279
0.34604,57.888
0.34311,57.497
0.34018,57.106
0.33724,56.91
0.33333,56.91
0.3304,56.91
0.32747,57.497
0.32454,58.67
0.32258,61.213
0.31965,65.124
0.31574,70.6
0.31281,77.054
0.3089,83.898
0.30499,90.548
0.30108,96.806
0.29717,102.28
0.29423,107.17
0.29032,110.89
0.28739,113.43
0.28348,114.99
0.28055,115.58
0.27859,115.19
0.27566,114.21
0.27175,112.65
0.26882,110.5
0.26491,108.15
0.261,105.41
0.25709,102.09
0.25318,98.566
0.24927,94.85
0.24536,90.939
0.24145,87.223
0.23949,83.703
0.23754,80.574
0.23558,77.836
0.2346,75.685
0.23558,73.729
0.24047,72.36
0.25122,71.382
0.26784,70.6
0.29326,70.013
0.32551,69.622
0.36461,69.231
0.4086,69.035
0.45357,69.035
0.49365,69.035
0.52786,68.84
0.56305,68.84
0.59531,68.84
0.62268,68.84
0.64418,68.84
0.6608,68.644
0.67155,68.449
0.67644,68.057
0.67742,67.862
0.67351,67.471
0.66471,67.08
0.65298,66.688
0.64027,66.297
0.62268,65.906
0.60313,65.515
0.58065,64.928
0.55718,64.537
0.53372,64.146
0.50929,63.755
0.48583,63.364
0.46432,62.973
0.44379,62.582
0.42522,62.19
0.40958,61.604
0.39687,61.213
0.3871,60.821
0.37732,60.235
0.36852,59.844
0.36168,59.257
0.35484,58.67
0.34995,58.279
0.34506,57.888
0.34115,57.497
0.33724,56.91
0.33431,56.715
0.33236,56.323
0.32942,56.128
0.32845,56.128
0.32551,56.128
0.32356,56.519
0.32063,57.301
0.31769,59.257
0.31378,62.386
0.31085,67.08
0.30792,72.947
0.30401,79.205
0.30108,85.463
0.29717,91.33
0.29423,96.806
0.29228,101.5
0.29032,105.41
0.28739,108.34
0.28446,110.1
0.28152,110.89
0.27859,110.89
0.27468,110.3
0.27175,108.74
0.26784,106.98
0.26393,104.43
0.261,101.69
0.25709,98.37
0.25513,95.046
0.25318,91.33
0.25024,87.419
0.24731,83.898
0.2434,80.574
0.24047,77.64
0.23851,75.293
0.23656,73.338
0.23656,71.578
0.24047,70.404
0.24927,69.426
0.26393,68.644
0.28641,68.253
0.31085,67.862
0.3392,67.471
0.37537,67.275
0.41642,67.275
0.45943,67.08
0.50147,67.08
0.54057,67.08
0.57478,67.08
0.60411,67.08
0.62757,66.884
0.64418,66.688
0.65591,66.688
0.66178,66.493
0.66178,66.102
0.65885,65.906
0.652,65.515
0.64223,65.124
0.62757,64.733
0.61095,64.342
0.59042,63.95
0.56891,63.559
0.54545,63.168
0.52199,62.973
0.49951,62.582
0.47898,62.19
0.46139,61.799
0.44379,61.408
0.4262,61.017
0.41153,60.626
0.39785,60.039
0.38514,59.648
0.37537,59.257
0.36657,58.67
0.35875,58.279
0.35288,57.888
0.34702,57.497
0.34311,56.91
0.3392,56.519
0.33724,56.128
0.33529,55.737
0.33236,55.346
0.3304,55.346
0.32845,55.15
0.32551,55.346
0.32356,55.737
0.32063,56.91
0.31769,58.866
0.31476,62.582
0.31183,67.666
0.30987,73.729
0.30792,80.378
0.30596,86.832
0.30303,92.894
0.3001,98.37
0.29814,103.06
0.29521,106.78
0.29228,109.71
0.28935,111.47
0.28641,112.26
0.2825,112.06
0.27957,111.28
0.27664,109.71
0.2737,107.76
0.27175,105.41
0.26882,102.67
0.26588,99.544
0.26295,96.024
0.25904,92.308
0.25611,88.592
0.25318,84.876
0.24927,81.552
0.24633,78.618
0.2434,76.076
0.24242,73.924
0.24242,72.164
0.24633,70.795
0.25415,69.818
0.26882,69.035
0.29032,68.449
0.31867,68.057
0.35484,67.862
0.39687,67.666
0.44086,67.471
0.4868,67.471
0.52981,67.471
0.56989,67.471
0.60411,67.471
0.62952,67.471
0.64809,67.471
0.66471,67.275
0.67644,67.08
0.68328,66.884
0.68524,66.688
0.68328,66.297
0.67644,65.906
0.66471,65.515
0.65005,65.124
0.63245,64.733
0.61193,64.342
0.59238,63.95
0.57185,63.559
0.54936,63.168
0.52688,62.973
0.50342,62.582
0.48192,62.19
0.46139,61.799
0.44282,61.408
0.4262,60.821
0.41153,60.43
0.39883,59.844
0.38807,59.452
0.37928,59.061
0.37243,58.475
0.37439,58.083
0.37928,57.692
0.38025,57.106
0.3783,56.715
0.37537,56.323
0.37243,55.932
0.3695,55.541
0.36657,55.346
0.36461,55.346
0.36168,55.541
0.35875,56.128
0.35582,57.692
0.35386,60.235
0.35093,64.537
0.348,70.209
0.34506,76.662
0.34115,83.312
0.33822,89.57
0.33431,95.632
0.33138,100.91
0.32845,105.61
0.32454,109.13
0.3216,111.47
0.31769,112.84
0.31574,113.43
0.31281,113.04
0.30987,112.06
0.30694,110.5
0.30303,108.54
0.29912,106
0.29521,103.26
0.2913,100.13
0.28739,96.61
0.28348,93.09
0.27957,89.374
0.27566,85.658
0.27273,82.138
0.27077,79.205
0.26882,76.662
0.26686,74.511
0.26784,72.751
0.27273,71.382
0.28446,70.404
0.30303,69.622
0.3304,69.035
0.36657,68.644
0.40958,68.253
0.45748,68.057
0.50733,67.862
0.55132,67.862
0.58847,67.862
0.62757,67.666
0.66373,67.666
0.69501,67.666
0.71945,67.666
0.73803,67.471
0.74976,67.471
0.75562,67.275
0.7566,66.884
0.75269,66.688
0.74389,66.297
0.73216,65.906
0.7175,65.515
0.69892,65.124
0.67742,64.733
0.65396,64.342
0.62757,63.95
0.60117,63.559
0.57478,63.168
0.54839,62.777
0.52395,62.386
0.50147,61.995
0.48094,61.604
0.46237,61.213
0.4477,60.626
0.43597,60.235
0.42522,59.648
0.41544,59.257
0.40665,58.67
0.39883,58.083
0.39198,57.692
0.38612,57.301
0.38123,56.91
0.37732,56.519
0.37341,56.128
0.37048,55.737
0.36755,55.541
0.36559,55.541
0.36364,55.932
0.3607,56.91
0.35777,58.67
0.35484,61.995
0.35093,67.08
0.348,73.338
0.34409,80.183
0.34018,87.027
0.33724,93.677
0.33333,99.739
0.3304,105.02
0.32747,109.32
0.32551,112.65
0.32258,114.8
0.31965,116.17
0.31574,116.36
0.31183,115.78
0.30792,114.8
0.30401,113.23
0.3001,111.08
0.29619,108.74
0.29228,106
0.28837,103.06
0.28543,99.544
0.28348,96.024
0.27957,92.112
0.27664,88.396
0.27273,84.876
0.26979,81.552
0.26686,79.009
0.26588,76.662
0.26784,74.902
0.27566,73.533
0.2913,72.36
0.31476,71.578
0.348,70.991
0.38221,70.6
0.41935,70.404
0.46628,70.209
0.51613,70.209
0.56696,70.013
0.61486,70.013
0.65787,70.013
0.69501,70.209
0.72532,70.209
0.74878,70.209
0.7654,70.013
0.77615,69.818
0.78104,69.426
0.78006,69.231
0.77615,69.035
0.76833,68.644
0.75562,68.253
0.73998,67.862
0.72141,67.471
0.69892,67.08
0.67449,66.688
0.64809,66.297
0.6217,65.906
0.59531,65.515
0.57185,65.124
0.55034,64.733
0.52884,64.342
0.50831,63.755
0.48974,63.364
0.47312,62.973
0.45943,62.386
0.44673,61.995
0.43695,61.408
0.42815,61.017
0.42131,60.626
0.41544,60.039
0.41056,59.844
0.40665,59.257
0.40469,58.866
0.40176,58.475
0.39883,58.279
0.39589,58.083
0.39296,58.083
0.39101,58.475
0.38807,59.648
0.38514,61.995
0.38221,65.906
0.37928,71.578
0.37634,78.422
0.37439,85.658
0.37243,92.503
0.3695,99.153
0.36755,105.02
0.36461,110.1
0.36168,114.21
0.35875,116.95
0.35484,118.71
0.35191,119.49
0.34897,119.49
0.34604,118.51
0.34213,116.95
0.3392,115.19
0.33627,113.04
0.33431,110.69
0.33138,107.95
0.32845,104.82
0.32551,101.5
0.3216,97.979
0.31867,94.068
0.31476,90.352
0.31183,86.832
0.3089,83.507
0.30694,80.769
0.30694,78.422
0.31085,76.662
0.31867,75.098
0.33431,73.924
0.35679,73.142
0.38905,72.555
0.42913,72.164
0.47507,72.164
0.52493,71.969
0.57576,71.969
0.62366,71.969
0.66764,71.969
0.70577,71.969
0.73803,71.773
0.75953,71.578
0.77419,71.382
0.7869,71.186
0.79472,70.795
0.79765,70.404
0.79668,70.013
0.79179,69.426
0.78201,69.035
0.76931,68.644
0.75269,68.057
0.73314,67.471
0.71065,67.08
0.68817,66.688
0.66569,66.102
0.64125,65.711
0.61584,65.319
0.59042,64.928
0.56598,64.537
0.5435,63.95
0.52297,63.559
0.5044,62.973
0.48778,62.582
0.4741,61.995
0.46237,61.604
0.45259,61.017
0.44477,60.626
0.43793,60.039
0.43206,59.648
0.42717,59.061
0.42229,58.67
0.41642,58.279
0.41153,57.888
0.40665,57.497
0.40274,57.301
0.39785,57.497
0.39198,57.888
0.3871,59.061
0.38319,61.604
0.37928,65.906
0.37439,71.773
0.3695,78.618
0.36461,85.854
0.35875,92.699
0.35386,99.348
0.34897,105.22
0.3392,110.3
0.32747,114.21
0.31867,116.95
0.31281,118.71
0.30792,119.3
0.30401,118.9
0.30108,117.93
0.29717,116.36
0.29326,114.6
0.28837,112.26
0.28446,109.71
0.27957,106.78
0.27566,103.46
0.27175,99.739
0.26784,96.024
0.26393,92.112
0.26002,88.201
0.25709,84.876
0.25513,81.747
0.25318,79.205
0.2522,76.858
0.25513,75.098
0.26393,73.729
0.27859,72.751
0.30205,71.969
0.33333,71.382
0.37243,70.991
0.41642,70.795
0.46237,70.6
0.50929,70.6
0.54839,70.6
0.58162,70.6
0.61388,70.6
0.64321,70.404
0.66667,70.404
0.68426,70.013
0.69697,69.818
0.70381,69.622
0.70577,69.231
0.70381,68.84
0.69795,68.449
0.68719,68.057
0.67546,67.471
0.6608,67.08
0.64321,66.688
0.62268,66.297
0.6002,65.906
0.57576,65.515
0.55132,64.928
0.52688,64.537
0.50342,64.146
0.48094,63.755
0.46041,63.168
0.44184,62.777
0.42522,62.386
0.41251,61.799
0.40274,61.213
0.39296,60.626
0.38416,60.235
0.37634,59.844
0.3695,59.257
0.36364,58.67
0.35875,58.279
0.35386,57.888
0.34995,57.497
0.34702,57.106
0.34311,56.91
0.34018,56.715
0.33822,56.715
0.33529,57.106
0.33236,58.083
0.32845,60.039
0.32454,63.559
0.32063,68.644
0.31672,75.098
0.31281,81.747
0.3089,88.592
0.30499,94.85
0.30108,100.72
0.29814,105.61
0.29521,109.71
0.29326,112.65
0.29032,114.6
0.28739,115.38
0.28348,115.19
0.28055,114.41
0.27664,113.04
0.27273,111.08
0.26979,108.93
0.26588,106.19
0.26197,103.26
0.25806,99.935
0.25611,96.415
0.25415,92.503
0.25122,88.788
0.24731,85.072
0.24438,81.747
0.24145,79.009
0.23851,76.662
0.23754,74.707
0.24047,73.142
0.24731,71.773
0.26197,70.795
0.28348,70.209
0.30792,69.622
0.33627,69.231
0.37341,69.035
0.4174,68.84
0.46237,68.84
0.50733,68.84
0.55034,68.84
0.58749,68.644
0.61877,68.644
0.64418,68.644
0.66373,68.449
0.67742,68.449
0.68524,68.253
0.68719,67.862
0.68524,67.471
0.67937,67.08
0.67058,66.688
0.65885,66.297
0.64223,65.906
0.62366,65.515
0.60313,64.928
0.57967,64.537
0.55621,64.146
0.53177,63.755
0.50733,63.364
0.4868,62.973
0.46921,62.582
0.45064,62.19
0.43304,61.604
0.4174,61.213
0.40274,60.626
0.39101,60.235
0.38025,59.844
0.37146,59.257
0.36461,58.866
0.35777,58.279
0.35288,57.888
0.348,57.301
0.34506,56.91
0.34311,56.519
0.34018,56.323
0.33724,55.932
0.33431,55.737
0.33236,55.737
0.32942,56.128
0.32649,56.91
0.32258,58.67
0.31965,61.799
0.31574,66.493
0.31281,72.36
0.30987,79.009
0.30694,85.658
0.30401,92.112
0.30108,97.979
0.29814,103.26
0.29423,107.37
0.2913,110.69
0.28837,112.65
0.28543,113.62
0.28152,113.82
0.27859,113.23
0.27468,111.86
0.27175,110.1
0.26882,107.76
0.26686,105.22
0.26393,102.28
0.261,98.957
0.25806,95.241
0.25415,91.525
0.25122,87.614
0.24731,84.094
0.24438,80.769
0.24047,78.031
0.23851,75.489
0.23754,73.729
0.23949,72.164
0.24438,70.795
0.25513,70.013
0.27175,69.231
0.29619,68.84
0.32942,68.449
0.36852,68.253
0.41251,68.057
0.45846,67.862
0.5044,67.862
0.54741,67.862
0.58553,67.862
0.61877,67.862
0.64223,67.862
0.65885,67.666
0.67351,67.471
0.68328,67.471
0.68817,67.08
0.68915,66.884
0.68524,66.493
0.67644,66.102
0.66471,65.711
0.64809,65.319
0.62952,64.928
0.60899,64.537
0.58847,64.146
0.56794,63.755
0.54545,63.364
0.52199,62.973
0.49853,62.582
0.47605,62.19
0.45552,61.799
0.43695,61.408
0.42033,61.017
0.40665,60.43
0.39394,60.039
0.38319,59.452
0.37439,59.061
0.36755,58.475
0.36266,58.083
0.35679,57.692
0.35288,57.106
0.34897,56.91
0.34506,56.323
0.34213,55.932
0.34018,55.737
0.33724,55.541
0.33431,55.541
0.33138,55.737
0.32845,56.715
0.32551,58.279
0.32356,61.408
0.3216,66.102
0.31867,72.164
0.31476,79.009
0.31183,85.658
0.3089,91.917
0.30596,97.979
0.30303,103.06
0.29912,107.37
0.29619,110.5
0.29326,112.65
0.29032,113.82
0.28739,114.02
0.28543,113.43
0.28348,112.26
0.27957,110.5
0.27664,108.34
0.27273,105.8
0.26882,102.87
0.26588,99.544
0.26197,96.024
0.25806,92.308
0.25513,88.396
0.25122,84.876
0.24927,81.552
0.24731,78.618
0.24927,76.271
0.25318,74.316
0.25709,72.555
0.26393,71.186
0.27566,70.209
0.29521,69.622
0.32258,69.035
0.35777,68.644
0.3998,68.449
0.44673,68.057
0.4956,68.057
0.53763,67.862
0.57478,67.862
0.6129,67.862
0.64809,67.862
0.6784,67.666
0.70186,67.666
0.71945,67.471
0.73118,67.275
0.73705,67.08
0.73803,66.688
0.73314,66.493
0.72434,66.102
0.71359,65.711
0.69892,65.319
0.68133,64.928
0.65982,64.537
0.63636,64.146
0.61193,63.755
0.58651,63.364
0.56012,62.973
0.53568,62.582
0.51222,62.19
0.48974,61.799
0.47019,61.408
0.45259,60.821
0.43891,60.43
0.42717,59.844
0.41642,59.452
0.40665,58.866
0.39785,58.475
0.39003,58.083
0.38416,57.692
0.3783,57.106
0.37341,56.715
0.36852,56.323
0.36461,55.932
0.36168,55.541
0.35875,55.541
0.35679,55.541
0.35386,55.737
0.35191,56.715
0.34897,58.475
0.34506,61.995
0.34213,67.08
0.33822,73.533
0.33529,80.574
0.33236,87.419
0.32845,94.068
0.32454,99.935
0.3216,105.22
0.31867,109.71
0.31672,113.04
0.31378,115.19
0.31085,116.36
0.30792,116.36
0.30401,115.97
0.3001,114.6
0.29717,113.04
0.29326,110.89
0.28935,108.54
0.28543,105.61
0.28152,102.67
0.27859,99.153
0.27664,95.437
0.2737,91.525
0.27077,87.81
0.26686,84.094
0.26295,80.965
0.26002,78.031
0.25904,75.685
0.26002,73.729
0.26588,72.36
0.27957,71.186
0.3001,70.404
0.32454,69.622
0.35484,69.231
0.39492,69.035
0.44086,68.84
0.49071,68.644
0.54154,68.644
0.58944,68.644
0.63245,68.644
0.67058,68.644
0.70088,68.449
0.72532,68.449
0.74291,68.253
0.75464,68.057
0.75953,67.862
0.75953,67.471
0.75562,67.275
0.74878,66.884
0.73705,66.493
0.72141,65.906
0.70283,65.515
0.68231,65.124
0.65787,64.733
0.63245,64.342
0.60606,63.95
0.57869,63.559
0.55523,63.168
0.53372,62.973
0.51124,62.386
0.49071,61.995
0.47019,61.604
0.45259,61.213
0.43793,60.821
0.42424,60.235
0.41251,59.844
0.40274,59.452
0.39492,59.061
0.38807,58.475
0.38221,58.279
0.37732,57.692
0.37439,57.301
0.37048,56.91
0.36755,56.715
0.36461,56.519
0.3607,56.323
0.35777,56.715
0.35484,57.301
0.35191,59.061
0.34897,62.386
0.34506,67.275
0.34115,73.533
0.3392,80.574
0.33627,87.81
0.33333,94.459
0.3304,100.72
0.32649,106.19
0.32356,110.69
0.31965,114.21
0.31672,116.36
0.31378,117.73
0.30987,118.12
0.30694,117.73
0.30303,116.56
0.3001,114.99
0.29717,113.04
0.29521,110.89
0.29228,108.34
0.28935,105.41
0.28641,102.28
0.2825,98.761
0.27957,95.046
0.27566,91.134
0.27273,87.419
0.26882,84.094
0.26686,81.16
0.26491,78.618
0.26686,76.662
0.27077,75.098
0.28152,73.729
0.29912,72.751
0.32551,72.164
0.35973,71.578
0.40176,71.382
0.44966,70.991
0.50049,70.991
0.55132,70.795
0.6002,70.795
0.64321,70.795
0.68035,70.795
0.70772,70.6
0.72825,70.6
0.74487,70.6
0.75758,70.404
0.76637,70.013
0.76931,69.818
0.76833,69.426
0.76246,69.035
0.75367,68.644
0.73998,68.253
0.72336,67.862
0.70381,67.471
0.68328,67.08
0.66276,66.688
0.6393,66.297
0.61388,65.906
0.58944,65.515
0.56403,65.124
0.54154,64.733
0.52004,64.342
0.50049,63.755
0.48289,63.364
0.46725,62.777
0.45455,62.386
0.44282,61.799
0.435,61.408
0.42815,61.017
0.42229,60.43
0.41642,60.039
0.41153,59.648
0.40762,59.257
0.40371,58.866
0.40078,58.475
0.39785,58.279
0.39492,58.083
0.39198,58.279
0.38905,59.061
0.3871,60.821
0.38514,64.146
0.38221,69.035
0.37928,75.685
0.37634,82.921
0.37341,90.352
0.37048,97.393
0.36755,103.85
0.36461,109.52
0.3607,114.02
0.35777,117.54
0.35484,119.69
0.35191,120.86
0.34897,121.06
0.34702,120.47
0.34409,119.3
0.34115,117.73
0.33724,115.97
0.33431,113.62
0.3304,111.28
0.32649,108.54
0.32258,105.41
0.31965,101.89
0.31574,98.175
0.31281,94.459
0.30987,90.548
0.30694,87.027
0.30401,83.703
0.30205,80.965
0.30205,78.618
0.30596,76.662
0.31672,75.098
0.33431,73.924
0.3607,73.142
0.39687,72.555
0.43891,72.164
0.4868,71.773
0.53666,71.578
0.57967,71.382
0.61681,71.186
0.65591,71.186
0.6911,71.186
0.72141,70.991
0.74487,70.795
0.76344,70.6
0.77517,70.404
0.77224,70.209
0.75953,69.818
0.75073,69.231
0.74096,69.035
0.73021,68.449
0.71848,67.862
0.70283,67.471
0.68524,66.884
0.66569,66.493
0.64321,65.906
0.61975,65.515
0.59433,65.124
0.56989,64.733
0.54545,64.342
0.52199,63.95
0.49951,63.364
0.47996,62.973
0.46334,62.582
0.44966,61.995
0.43597,61.408
0.42424,61.017
0.41349,60.43
0.40371,59.844
0.39589,59.452
0.38807,59.061
0.38221,58.475
0.37634,58.083
0.37146,57.692
0.36657,57.301
0.36364,56.91
0.3607,56.519
0.35679,56.519
0.35288,56.715
0.34897,57.301
0.34506,59.061
0.34018,62.19
0.33627,67.275
0.33138,73.729
0.32747,80.965
0.32258,88.201
0.31867,95.241
0.31476,101.5
0.31183,107.17
0.3089,111.86
0.30596,115.19
0.30205,117.54
0.29814,118.51
0.29521,118.71
0.2913,118.12
0.28739,116.95
0.28348,115.19
0.27957,113.23
0.27566,110.89
0.27175,108.15
0.26882,105.02
0.26686,101.69
0.26393,97.979
0.261,94.263
0.25709,90.352
0.25318,86.636
0.24927,83.116
0.24633,80.183
0.2434,77.64
0.2434,75.489
0.24829,73.729
0.25806,72.555
0.27273,71.578
0.29228,70.795
0.32258,70.404
0.35973,70.013
0.40371,69.622
0.45064,69.426
0.49853,69.426
0.5435,69.231
0.58456,69.231
0.62072,69.231
0.65005,69.035
0.67253,69.035
0.68915,68.84
0.69892,68.644
0.70283,68.449
0.70381,68.057
0.70186,67.666
0.69599,67.471
0.68622,66.884
0.67351,66.493
0.65787,65.906
0.6393,65.515
0.61877,64.928
0.59531,64.537
0.57087,64.146
0.54936,63.755
0.52884,63.364
0.50635,62.973
0.48387,62.386
0.46334,61.995
0.44379,61.604
0.42717,61.213
0.41153,60.626
0.39883,60.235
0.3871,59.648
0.37732,59.257
0.3695,58.67
0.36266,58.279
0.35777,57.692
0.35386,57.301
0.34995,56.91
0.34604,56.519
0.34311,56.128
0.34018,55.737
0.33724,55.541
0.33333,55.346
0.3304,55.541
0.32747,55.932
0.32454,57.301
0.32063,59.844
0.31769,63.95
0.31574,69.622
0.31281,76.271
0.3089,83.116
0.30596,89.765
0.30205,96.024
0.29912,101.5
0.29521,106.39
0.29228,110.1
0.28837,112.65
0.28543,114.02
0.28152,114.6
0.27859,114.21
0.27566,113.23
0.27468,111.47
0.27175,109.32
0.26882,106.98
0.26491,104.24
0.26197,101.11
0.25806,97.784
0.25415,94.068
0.25122,90.157
0.24731,86.441
0.24438,82.725
0.24145,79.596
0.23949,76.858
0.23851,74.707
0.23754,72.751
0.23949,71.186
0.24633,70.013
0.25904,69.035
0.27859,68.449
0.30694,67.862
0.34311,67.471
0.38416,67.275
0.43011,67.08
0.47605,67.08
0.52102,66.884
0.55718,66.884
0.58749,66.884
0.61584,66.884
0.64125,66.688
0.6608,66.688
0.67546,66.493
0.68426,66.297
0.68817,65.906
0.68719,65.711
0.68133,65.319
0.67253,64.928
0.65885,64.537
0.64516,64.146
0.62854,63.755
0.60899,63.364
0.58651,62.973
0.56305,62.582
0.53959,62.19
0.51515,61.799
0.49169,61.408
0.47019,61.017
0.44966,60.626
0.43109,60.235
0.41447,59.844
0.40078,59.257
0.38905,58.866
0.38025,58.279
0.37243,57.888
0.36461,57.301
0.35777,56.91
0.35191,56.519
0.34702,56.128
0.34311,55.541
0.3392,55.15
0.33627,54.759
0.33333,54.368
0.3304,54.172
0.32845,54.172
0.32747,54.368
0.32454,54.954
0.32258,56.323
0.31965,59.061
0.31672,63.364
0.31378,69.035
0.31085,75.489
0.30792,82.138
0.30499,88.396
0.30108,94.263
0.29814,99.544
0.29521,104.04
0.29326,107.37
0.2913,109.71
0.28935,111.08
0.28641,111.47
0.28348,110.89
0.28055,109.91
0.27761,108.34
0.27468,106.19
0.27077,103.85
0.26784,100.91
0.26393,97.979
0.261,94.459
0.25806,90.743
0.25709,87.027
0.25415,83.507
0.25122,80.183
0.24829,77.249
0.24438,74.707
0.24242,72.555
0.24145,70.795
0.24438,69.426
0.25122,68.449
0.26588,67.471
0.28739,66.884
0.31672,66.493
0.348,66.102
0.38123,65.906
0.42229,65.906
0.46725,65.711
0.51124,65.711
0.55327,65.711
0.59042,65.515
0.6217,65.515
0.64614,65.319
0.66569,65.319
0.6784,65.124
0.68622,64.928
0.68915,64.537
0.68622,64.342
0.68133,63.95
0.67155,63.559
0.65982,63.168
0.64418,62.777
0.62561,62.386
0.60411,61.995
0.58162,61.604
0.55816,61.408
0.53372,61.017
0.51026,60.626
0.48876,60.235
0.46921,59.844
0.45357,59.452
0.43988,59.061
0.42815,58.475
0.41544,58.083
0.40469,57.692
0.39492,57.106
0.38612,56.715
0.3783,56.323
0.37146,55.737
0.36657,55.346
0.36168,54.954
0.35875,54.563
0.35582,53.977
0.35386,53.781
0.35093,53.39
0.348,53.39
0.34506,53.194
0.34311,53.585
0.34018,54.368
0.33724,55.932
0.33431,59.061
0.33138,63.755
0.32747,69.818
0.32551,76.467
0.32356,83.116
0.3216,89.374
0.31867,95.241
0.31574,100.33
0.31281,104.63
0.30987,107.95
0.30694,110.3
0.30401,111.47
0.30108,111.67
0.29814,111.08
0.29423,110.1
0.2913,108.34
0.28935,106.19
0.28739,103.85
0.28446,101.11
0.28152,97.979
0.27859,94.459
0.27566,90.743
0.27273,87.027
0.26882,83.507
0.26588,79.987
0.26197,77.249
0.25904,74.707
0.25709,72.555
0.25806,70.795
0.261,69.426
0.26784,68.449
0.28152,67.471
0.30303,66.884
0.33138,66.493
0.36755,66.102
0.40958,65.906
0.45552,65.711
0.50049,65.711
0.54448,65.711
0.58553,65.515
0.62072,65.515
0.64614,65.515
0.66569,65.319
0.68231,65.319
0.69501,65.124
0.70283,64.928
0.70577,64.537
0.70479,64.342
0.6999,63.95
0.6911,63.559
0.6784,63.168
0.66178,62.777
0.64321,62.386
0.62366,61.995
0.60508,61.408
0.58358,61.213
0.56012,60.821
0.53666,60.43
0.51417,60.039
0.49267,59.648
0.47312,59.257
0.45455,58.866
0.43891,58.279
0.42522,57.888
0.41251,57.497
0.40274,57.106
0.39492,56.519
0.38807,56.128
0.38221,55.737
0.37634,55.346
0.37146,54.759
0.36755,54.368
0.36364,53.977
0.3607,53.781
0.35777,53.39
0.35484,53.194
0.35191,53.194
0.34897,53.39
0.34702,54.172
0.34506,56.128
0.34213,59.648
0.3392,64.537
0.33627,70.795
0.33333,77.64
0.3304,84.289
0.32649,90.548
0.32356,96.219
0.32063,101.3
0.31769,105.41
0.31476,108.54
0.31183,110.69
0.3089,111.86
0.30694,111.86
0.30499,111.28
0.30205,110.1
0.29814,108.54
0.29521,106.39
0.2913,104.04
0.28837,101.3
0.28543,98.37
0.28152,95.046
0.27859,91.33
0.27566,87.614
0.2737,83.898
0.27175,80.574
0.26882,77.64
0.26588,74.902
0.26295,72.751
0.26295,70.991
0.26588,69.426
0.27468,68.449
0.29032,67.471
0.31378,66.884
0.34604,66.493
0.38416,66.102
0.42815,65.906
0.46823,65.906
0.50538,65.711
0.54643,65.711
0.58553,65.711
0.62072,65.711
0.65103,65.711
0.67644,65.711
0.69501,65.515
0.70772,65.319
0.71554,65.124
0.7175,64.928
0.71554,64.537
0.71065,64.342
0.70186,63.95
0.69013,63.559
0.67449,63.168
0.65689,62.777
0.63636,62.386
0.61388,61.995
0.59042,61.799
0.56696,61.408
0.54252,61.017
0.51906,60.821
0.49756,60.43
0.47801,60.039
0.46139,59.648
0.4477,59.257
0.43402,58.866
0.42131,58.475
0.41056,58.083
0.40078,57.497
0.39296,57.106
0.38612,56.715
0.38025,56.323
0.37537,55.932
0.37146,55.541
0.36755,55.15
0.36461,54.759
0.36266,54.368
0.3607,54.172
0.35875,54.172
0.35582,54.759
0.35386,55.737
0.35093,58.279
0.348,62.386
0.34506,67.862
0.34213,74.511
0.33822,81.552
0.33529,88.201
0.33333,94.459
0.3304,100.13
0.32942,104.82
0.32649,108.74
0.32454,111.47
0.3216,113.04
0.31965,113.62
0.31672,113.43
0.31378,112.65
0.31085,111.28
0.3089,109.52
0.30596,107.37
0.30303,105.02
0.30108,102.28
0.3001,99.153
0.29814,95.828
0.29521,92.308
0.29326,88.788
0.29032,85.072
0.28739,81.943
0.28446,79.009
0.2825,76.467
0.28152,74.511
0.2825,72.751
0.28935,71.382
0.30205,70.404
0.31867,69.622
0.34018,69.231
0.37048,68.84
0.40958,68.644
0.45259,68.449
0.49951,68.449
0.54545,68.253
0.58847,68.253
0.62757,68.253
0.6608,68.253
0.68817,68.057
0.70968,68.057
0.72336,67.666
0.73216,67.471
0.73705,67.275
0.739,66.884
0.73705,66.493
0.73118,66.102
0.72239,65.711
0.70968,65.319
0.69404,64.733
0.67644,64.342
0.65591,63.95
0.63441,63.559
0.61095,63.168
0.59042,62.973
0.57087,62.386
0.55132,61.995
0.53079,61.604
0.51222,61.408
0.4956,60.821
0.47996,60.43
0.46628,59.844
0.45552,59.452
0.44477,58.866
0.43695,58.279
0.43011,57.692
0.42424,57.301
0.42033,56.715
0.41642,56.128
0.41251,55.737
0.40958,55.346
0.40567,54.954
0.40274,54.563
0.3998,54.368
0.39687,54.368
0.39296,54.759
0.38905,56.128
0.38514,58.67
0.38221,62.973
0.37928,69.035
0.37634,75.88
0.37243,82.921
0.3695,89.765
0.36559,95.828
0.36168,101.5
0.35875,106.19
0.35484,109.91
0.35191,112.26
0.348,113.82
0.34506,114.21
0.34115,113.82
0.3392,112.84
0.33627,111.28
0.33333,109.52
0.3304,107.37
0.32649,104.82
0.32258,102.28
0.31867,99.153
0.31476,95.828
0.31085,92.112
0.30694,88.396
0.30205,84.681
0.29814,81.356
0.29521,78.422
0.29228,75.88
0.29032,73.729
0.29032,71.969
0.29423,70.6
0.30499,69.622
0.32258,68.84
0.348,68.057
0.38221,67.666
0.42229,67.471
0.46628,67.275
0.51222,67.08
0.55718,66.884
0.59433,66.884
0.62366,66.884
0.65298,66.688
0.6784,66.493
0.69795,66.297
0.71261,66.102
0.72239,65.906
0.7263,65.711
0.7263,65.319
0.72239,64.733
0.71457,64.342
0.70381,63.95
0.69013,63.364
0.67546,62.973
0.65787,62.582
0.63636,61.995
0.61388,61.604
0.59042,61.408
0.56598,61.017
0.54252,60.626
0.51906,60.039
0.49658,59.844
0.47703,59.452
0.45846,59.061
0.44184,58.475
0.42913,58.083
0.41838,57.692
0.4086,57.106
0.3998,56.715
0.39198,56.128
0.38514,55.737
0.37928,55.346
0.37439,54.759
0.3695,54.368
0.36559,53.977
0.36168,53.585
0.35777,53.39
0.35484,52.999
0.35191,52.803
0.34897,52.999
0.34604,53.39
0.34213,54.563
0.33822,57.106
0.33431,61.213
0.32942,66.884
0.32551,73.533
0.3216,80.378
0.31769,87.027
0.31476,93.09
0.31085,98.37
0.30792,102.87
0.30596,106.58
0.30303,109.13
0.3001,110.5
0.29717,111.08
0.29423,110.89
0.2913,109.91
0.28739,108.34
0.28446,106.39
0.28055,104.04
0.27761,101.3
0.2737,98.175
0.27175,94.85
0.26979,91.33
0.26686,87.614
0.26393,84.094
0.261,80.574
0.25806,77.64
0.25415,74.902
0.25122,72.751
0.24927,70.795
0.25024,69.426
0.25611,68.253
0.26784,67.471
0.28739,66.884
0.30987,66.297
0.33822,66.102
0.37439,65.711
0.41838,65.515
0.46432,65.319
0.51026,65.319
0.55425,65.319
0.59433,65.124
0.62854,65.124
0.65591,64.928
0.6784,64.733
0.69306,64.537
0.70186,64.342
0.70577,63.95
0.70577,63.755
0.70283,63.364
0.69501,62.973
0.68426,62.582
0.6696,61.995
0.652,61.604
0.63245,61.213
0.60997,60.821
0.58749,60.43
0.56403,60.039
0.53959,59.844
0.51906,59.452
0.50049,59.061
0.48192,58.67
0.46334,58.279
0.44673,57.692
0.43206,57.301
0.41838,56.91
0.40665,56.323
0.39687,55.932
0.38905,55.346
0.38123,54.954
0.37537,54.563
0.37048,53.977
0.36755,53.781
0.36364,53.194
0.35973,52.803
0.35582,52.608
0.35191,52.216
0.34897,52.216
0.34506,52.021
0.34213,52.216
0.33822,52.803
0.33529,53.977
0.33138,56.519
0.32747,60.626
0.32551,65.906
0.32258,72.164
0.31965,78.227
0.31574,84.289
0.31281,89.765
0.30987,94.459
0.30596,98.566
0.30303,101.5
0.3001,103.85
0.29619,105.02
0.29326,105.41
0.29032,104.82
0.28837,103.85
0.28641,102.09
0.28348,100.13
0.28055,97.588
0.27761,94.85
0.2737,91.721
0.27077,88.201
0.26686,84.681
0.26393,81.16
0.26002,77.836
0.25709,75.098
0.25318,72.555
0.25024,70.404
0.24829,68.644
0.24829,67.275
0.25024,66.102
0.25513,65.124
0.26588,64.537
0.28348,63.95
0.30792,63.559
0.34018,63.364
0.37928,63.168
0.42229,62.973
0.46628,62.973
0.51026,62.973
0.54643,62.777
0.57576,62.777
0.60508,62.582
0.6305,62.582
0.65103,62.386
0.66569,62.19
0.67546,61.995
0.68035,61.604
0.68035,61.408
0.67546,61.017
0.66667,60.626
0.65396,60.235
0.63832,59.844
0.6217,59.648
0.60411,59.257
0.58358,58.866
0.56207,58.67
0.53959,58.279
0.51711,58.083
0.4956,57.692
0.47605,57.301
0.45748,56.91
0.44086,56.519
0.4262,56.128
0.41349,55.737
0.40274,55.346
0.39492,54.954
0.3871,54.563
0.38025,53.977
0.37341,53.585
0.36852,53.194
0.36364,52.803
0.35875,52.412
0.35582,52.021
0.35191,51.63
0.34897,51.434
0.34604,51.239
0.34409,51.239
0.34213,51.434
0.34018,52.021
0.33724,53.585
0.33431,56.323
0.3304,60.626
0.32747,66.102
0.32454,72.164
0.3216,78.422
0.31867,84.289
0.31574,89.765
0.31378,94.459
0.31085,98.37
0.3089,101.5
0.30694,103.46
0.30499,104.63
0.30401,105.02
0.30303,104.63
0.30108,103.46
0.29814,101.89
0.29521,99.739
0.29228,97.393
0.28935,94.459
0.28543,91.33
0.2825,87.81
0.28055,84.289
0.27859,80.769
0.27566,77.64
0.27273,74.707
0.26979,72.164
0.26686,70.209
0.26393,68.449
0.26295,67.08
0.26393,65.906
0.27077,65.124
0.28348,64.342
0.30401,63.95
0.33236,63.559
0.36266,63.168
0.39492,62.973
0.43597,62.973
0.48094,62.777
0.5259,62.777
0.56891,62.777
0.60802,62.777
0.64125,62.582
0.6696,62.582
0.69013,62.386
0.70577,62.19
0.71554,61.995
0.71848,61.604
0.7175,61.408
0.71261,61.017
0.70479,60.626
0.69208,60.235
0.67644,59.844
0.65787,59.648
0.63636,59.257
0.61388,58.866
0.59042,58.67
0.56696,58.279
0.5435,57.888
0.52102,57.692
0.50244,57.301
0.48583,56.91
0.47019,56.519
0.45455,56.128
0.44086,55.541
0.42815,55.15
0.4174,54.759
0.4086,54.368
0.3998,53.977
0.39296,53.585
0.3871,53.194
0.38221,52.803
0.3783,52.412
0.37537,52.021
0.37243,51.825
0.36852,51.434
0.36559,51.239
0.36266,51.434
0.35875,51.63
0.35582,52.608
0.35288,54.563
0.34995,57.888
0.34702,62.777
0.34409,68.644
0.34018,74.902
0.33822,81.16
0.33529,86.832
0.33333,91.917
0.3304,96.61
0.32747,100.13
0.32454,102.87
0.32063,104.63
0.31769,105.61
0.31476,105.61
0.31183,104.82
0.30792,103.65
0.30499,101.89
0.30205,99.739
0.3001,97.197
0.29717,94.459
0.29423,91.33
0.2913,87.81
0.28739,84.289
0.28446,80.769
0.28055,77.445
0.27761,74.707
0.2737,72.164
0.27077,70.209
0.26784,68.449
0.26784,67.08
0.27077,66.102
0.27761,65.124
0.2913,64.537
0.31183,64.146
0.34018,63.755
0.37634,63.364
0.41935,63.364
0.4653,63.168
0.51222,62.973
0.55816,62.973
0.59922,62.973
0.63636,62.973
0.66373,62.973
0.68426,62.777
0.70186,62.777
0.71554,62.582
0.72434,62.19
0.72825,61.995
0.72727,61.604
0.72239,61.408
0.71261,61.017
0.69892,60.626
0.68231,60.43
0.66276,60.039
0.64027,59.648
0.61975,59.452
0.59922,59.061
0.57674,58.67
0.55327,58.279
0.53079,58.083
0.50929,57.692
0.48974,57.301
0.47214,56.91
0.45552,56.519
0.44184,56.128
0.43011,55.541
0.41935,55.15
0.41153,54.759
0.40469,54.368
0.39883,53.781
0.39296,53.585
0.38807,52.999
0.38319,52.608
0.37928,52.216
0.37634,51.825
0.37243,51.63
0.3695,51.434
0.36657,51.63
0.36364,52.216
0.3607,53.39
0.35777,55.932
0.35582,60.039
0.35288,65.515
0.34995,71.969
0.34702,78.618
0.34409,84.876
0.34018,90.548
0.33724,95.828
0.33431,100.33
0.33138,103.65
0.32845,106.19
0.32454,107.76
0.32258,108.54
0.32063,108.34
0.31769,107.37
0.31476,106
0.31183,104.24
0.3089,102.09
0.30499,99.544
0.30205,96.61
0.29814,93.481
0.29423,90.157
0.29032,86.441
0.28739,82.921
0.28348,79.596
0.28055,76.662
0.27859,74.12
0.27566,71.969
0.2737,70.209
0.2737,68.84
0.27761,67.666
0.28739,66.884
0.30499,66.297
0.33138,65.906
0.36559,65.711
0.40665,65.515
0.45259,65.319
0.49462,65.319
0.53372,65.319
0.57576,65.319
0.61681,65.319
0.65396,65.319
0.68524,65.319
0.71163,65.319
0.73021,65.124
0.74389,64.928
0.75171,64.733
0.75464,64.537
0.75269,64.146
0.74585,63.755
0.73705,63.364
0.72336,62.973
0.70772,62.777
0.68817,62.386
0.66569,61.995
0.64223,61.604
0.61779,61.408
0.59335,61.017
0.56891,60.626
0.54545,60.235
0.52395,59.844
0.50342,59.452
0.4868,59.061
0.4741,58.67
0.46041,58.279
0.44868,57.888
0.43793,57.301
0.42913,56.91
0.42229,56.519
0.41544,56.128
0.41056,55.737
0.40567,55.346
0.40176,54.954
0.39883,54.759
0.39589,54.368
0.39394,54.172
0.39198,54.172
0.38905,54.368
0.3871,55.346
0.38416,57.301
0.38123,60.821
0.3783,65.906
0.37537,72.164
0.37243,79.009
0.3695,85.854
0.36657,91.917
0.36364,97.393
0.3607,102.28
0.35875,106.19
0.35679,108.93
0.35386,110.89
0.35191,111.67
0.34897,111.67
0.34604,110.89
0.34409,109.71
0.34115,108.15
0.33822,106.19
0.33529,104.04
0.33236,101.3
0.3304,98.566
0.32845,95.437
0.32551,92.112
0.32356,88.592
0.32063,85.267
0.31769,82.138
0.31476,79.4
0.31183,76.858
0.30987,74.902
0.30987,73.338
0.31085,71.969
0.31574,70.795
0.32942,70.013
0.348,69.426
0.37146,69.035
0.40567,68.84
0.44673,68.644
0.49267,68.449
0.54057,68.253
0.58651,68.253
0.62952,68.057
0.66764,67.862
0.6999,67.666
0.72532,67.471
0.74487,67.08
0.75758,66.688
0.76344,66.297
0.76637,65.906
0.76637,65.515
0.76246,65.124
0.75562,64.733
0.74389,64.342
0.73021,63.95
0.71261,63.559
0.69208,63.168
0.67058,62.777
0.64809,62.386
0.62463,61.995
0.60313,61.604
0.58358,61.213
0.56305,60.821
0.5435,60.43
0.52493,60.039
0.50831,59.648
0.49267,59.061
0.47898,58.475
0.46725,58.083
0.45748,57.692
0.44868,57.106
0.44086,56.715
0.435,56.128
0.43011,55.737
0.4262,55.346
0.42131,54.759
0.41642,54.368
0.41251,54.172
0.40762,53.781
0.40274,53.781
0.39883,54.172
0.39394,55.15
0.39003,57.106
0.38514,60.626
0.38025,65.906
0.37634,72.555
0.37341,79.596
0.3695,86.441
0.36559,92.894
0.3607,98.566
0.35679,103.65
0.35191,107.56
0.348,110.5
0.34311,112.26
0.33822,112.84
0.33431,112.65
0.32942,111.86
0.32551,110.5
0.32258,108.74
0.31867,106.58
0.31378,104.24
0.30987,101.5
0.30499,98.566
0.3001,95.241
0.29521,91.721
0.29032,88.201
0.28641,84.485
0.28152,81.356
0.27664,78.422
0.27273,75.88
0.26979,73.729
0.26882,72.164
0.27077,70.795
0.27664,69.622
0.29032,68.84
0.31183,68.253
0.34115,67.666
0.37928,67.471
0.42326,67.275
0.47116,67.08
0.51906,66.884
0.56598,66.884
0.60313,66.884
0.63343,66.688
0.66276,66.493
0.68719,66.297
0.70674,66.297
0.72043,65.906
0.72923,65.711
0.73314,65.319
0.73216,64.928
0.7263,64.537
0.7175,64.146
0.70479,63.755
0.68817,63.364
0.67155,62.973
0.65298,62.386
0.63148,61.995
0.60802,61.799
0.58358,61.408
0.55914,61.017
0.53568,60.626
0.51222,60.235
0.49071,59.844
0.47116,59.452
0.45357,59.061
0.43891,58.475
0.4262,58.083
0.41642,57.692
0.40762,57.106
0.39883,56.715
0.39198,56.128
0.38514,55.737
0.38025,55.346
0.37537,54.954
0.37048,54.563
0.36559,54.172
0.36168,53.781
0.35777,53.781
0.35386,53.585
0.35093,53.781
0.34897,54.172
0.34506,55.541
0.34213,57.888
0.33822,61.799
0.33333,67.275
0.32942,73.338
0.32551,79.791
0.3216,86.05
0.31867,91.721
0.31476,96.806
0.31085,100.91
0.3089,104.24
0.30596,106.39
0.30303,107.76
0.3001,108.15
0.29717,107.76
0.29326,106.78
0.28935,105.22
0.28641,103.26
0.2825,100.91
0.27859,98.175
0.27468,95.046
0.27077,91.721
0.26686,88.201
0.26491,84.681
0.26295,81.16
0.26002,78.227
0.25709,75.489
0.25415,73.338
0.25122,71.382
0.24927,69.818
0.25024,68.644
0.25415,67.666
0.26393,67.08
0.28152,66.493
0.30694,65.906
0.33431,65.711
0.36559,65.515
0.40567,65.319
0.44966,65.319
0.4956,65.124
0.53959,64.928
0.58065,64.928
0.61584,64.928
0.64516,64.733
0.66862,64.537
0.68524,64.342
0.69697,64.146
0.70186,63.95
0.70186,63.559
0.69795,63.168
0.6911,62.973
0.68035,62.582
0.66667,62.19
0.64907,61.799
0.62952,61.408
0.60704,61.213
0.58456,60.821
0.56109,60.43
0.53763,60.039
0.51417,59.844
0.4956,59.452
0.47801,59.061
0.46139,58.67
0.44477,58.279
0.43109,57.692
0.41838,57.301
0.40665,56.91
0.39785,56.323
0.38905,55.932
0.38221,55.541
0.37634,55.15
0.37048,54.759
0.36657,54.368
0.36364,53.977
0.3607,53.585
0.35679,53.39
0.35386,53.194
0.35093,53.39
0.348,53.585
0.34506,54.368
0.34115,55.737
0.33822,58.67
0.33529,62.777
0.33236,68.253
0.32845,74.316
0.32649,80.378
0.32454,86.05
0.3216,91.33
0.31867,95.828
0.31574,99.739
0.31281,102.67
0.30987,104.43
0.30694,105.61
0.30401,105.61
0.30108,105.22
0.29717,104.04
0.29423,102.28
0.2913,100.13
0.28935,97.588
0.28739,94.655
0.28348,91.33
0.28055,87.81
0.27664,84.289
0.2737,80.769
0.27077,77.64
0.26686,74.902
0.26393,72.555
0.261,70.6
0.25904,69.035
0.25806,67.862
0.26002,66.884
0.26491,66.102
0.27566,65.515
0.29228,65.124
0.31672,64.733
0.34897,64.537
0.3871,64.342
0.43011,64.342
0.47507,64.146
0.51906,64.146
0.56109,64.146
0.59922,64.146
0.62757,63.95
0.64907,63.755
0.66862,63.559
0.68328,63.364
0.68915,63.168
0.68719,62.973
0.68426,62.777
0.6784,62.386
0.6696,61.995
0.65689,61.604
0.64125,61.408
0.62268,61.017
0.60215,60.626
0.5826,60.43
0.56403,60.039
0.54252,59.844
0.52102,59.452
0.50049,59.061
0.48094,58.67
0.46237,58.279
0.44575,57.888
0.43109,57.497
0.41838,57.106
0.40762,56.715
0.39785,56.128
0.39101,55.737
0.38514,55.346
0.37928,54.954
0.37439,54.563
0.37048,54.172
0.36657,53.781
0.36266,53.39
0.35973,53.194
0.35679,52.999
0.35386,53.194
0.35093,53.585
0.348,54.368
0.34506,56.128
0.34311,59.061
0.34018,63.559
0.33822,69.231
0.33529,75.489
0.33236,81.552
0.32942,87.419
0.32649,92.503
0.32454,97.001
0.3216,100.72
0.31867,103.46
0.31574,105.22
0.31281,106
0.31085,106.19
0.3089,105.61
0.30694,104.24
0.30401,102.48
0.3001,100.13
0.29717,97.588
0.29326,94.655
0.29032,91.33
0.28641,87.81
0.28348,84.289
0.27957,80.965
0.27664,77.836
0.27273,75.098
0.27077,72.751
0.26882,70.795
0.26686,69.231
0.26588,68.057
0.26784,67.08
0.27273,66.297
0.28446,65.711
0.30303,65.319
0.32845,64.928
0.36168,64.733
0.3998,64.537
0.44184,64.537
0.47996,64.342
0.51417,64.342
0.55132,64.342
0.58651,64.146
0.61681,64.146
0.64321,64.146
0.66373,63.95
0.6784,63.755
0.68817,63.364
0.69208,63.168
0.6911,62.973
0.68622,62.582
0.67742,62.386
0.66569,61.995
0.65103,61.604
0.63441,61.408
0.61388,61.017
0.59238,60.626
0.56989,60.43
0.54741,60.039
0.52493,59.648
0.50342,59.257
0.48387,58.866
0.4653,58.475
0.44966,58.083
0.43597,57.692
0.42522,57.106
0.41544,56.715
0.40567,56.128
0.39687,55.737
0.39003,55.346
0.38319,54.954
0.37732,54.563
0.37243,54.172
0.36852,53.781
0.36461,53.585
0.36168,53.39
0.35875,53.39
0.35679,53.585
0.35484,54.172
0.35191,55.541
0.34995,58.279
0.34702,62.582
0.34409,68.057
0.34115,74.316
0.33822,80.769
0.33529,86.832
0.33236,92.503
0.32942,97.588
0.32649,101.89
0.32454,105.22
0.32258,107.56
0.31965,108.93
0.31769,109.32
0.31476,108.93
0.31085,107.95
0.30792,106.58
0.30401,104.43
0.3001,102.28
0.29717,99.544
0.29326,96.61
0.29032,93.286
0.28739,89.765
0.28543,86.05
0.2825,82.529
0.27957,79.4
0.27664,76.467
0.27273,74.12
0.26979,72.164
0.26784,70.404
0.26784,69.035
0.27273,68.057
0.2825,67.275
0.29912,66.688
0.32356,66.297
0.34995,66.102
0.38025,65.906
0.41838,65.711
0.46237,65.515
0.50635,65.515
0.55034,65.515
0.58944,65.515
0.62463,65.319
0.65396,65.319
0.67742,65.124
0.69501,65.124
0.70674,64.928
0.71261,64.537
0.71261,64.342
0.71065,63.95
0.70479,63.559
0.69501,63.364
0.68133,62.973
0.66569,62.582
0.64614,62.19
0.62561,61.799
0.60215,61.408
0.57869,61.213
0.55523,60.821
0.53177,60.43
0.51222,60.039
0.49462,59.648
0.47703,59.257
0.45943,58.67
0.44477,58.279
0.43109,57.888
0.41935,57.301
0.40958,56.91
0.40078,56.519
0.39296,55.932
0.38612,55.541
0.38123,55.15
0.37634,54.759
0.37341,54.368
0.37048,54.172
0.36755,54.172
0.36364,54.368
0.3607,54.954
0.35777,56.128
0.35484,58.475
0.35191,62.386
0.34897,67.666
0.34604,74.12
0.34311,80.769
0.3392,87.223
0.33724,93.09
0.33529,98.566
0.33236,103.26
0.32942,106.98
0.32649,109.52
0.32356,111.08
0.32063,111.86
0.31672,111.86
0.31378,111.08
0.31085,109.71
0.30694,107.76
0.30401,105.61
0.30108,103.26
0.29912,100.52
0.29521,97.393
0.29228,94.068
0.28837,90.352
0.28446,86.832
0.28152,83.507
0.27761,80.378
0.2737,77.836
0.27077,75.489
0.26882,73.729
0.26882,72.164
0.27273,70.991
0.27957,70.013
0.29228,69.426
0.31183,68.84
0.3392,68.449
0.37439,68.253
0.41544,68.057
0.46041,67.862
0.50635,67.862
0.55034,67.862
0.5914,67.862
0.62757,67.862
0.65787,67.666
0.68035,67.666
0.69501,67.471
0.70772,67.471
0.71652,67.275
0.72141,66.884
0.72141,66.493
0.7175,66.297
0.71065,65.906
0.69892,65.711
0.68426,65.319
0.66667,64.928
0.64712,64.537
0.62463,64.146
0.60411,63.755
0.58456,63.364
0.56305,62.973
0.54154,62.582
0.52102,62.19
0.50147,61.799
0.48387,61.408
0.46823,60.821
0.45455,60.43
0.44184,59.844
0.43109,59.452
0.42229,59.061
0.41447,58.67
0.4086,58.279
0.40274,57.888
0.39785,57.301
0.39394,56.91
0.39003,56.715
0.38612,56.519
0.38319,56.519
0.38025,56.91
0.37732,57.888
0.37537,60.235
0.37243,63.95
0.3695,69.426
0.36755,75.88
0.36559,82.921
0.36364,89.765
0.3607,96.024
0.35777,101.69
0.35484,106.58
0.35191,110.5
0.34897,113.43
0.34604,114.99
0.34311,115.78
0.3392,115.58
0.33627,114.8
0.33431,113.43
0.33236,111.67
0.32942,109.71
0.32551,107.17
0.32258,104.63
0.31867,101.5
0.31574,98.175
0.31183,94.655
0.30792,90.939
0.30401,87.419
0.30108,83.898
0.29717,80.965
0.29326,78.227
0.2913,76.076
0.2913,74.316
0.29326,72.947
0.3001,71.969
0.31378,70.991
0.33529,70.6
0.36461,70.209
0.40274,70.013
0.44673,69.818
0.49462,69.622
0.5435,69.622
0.59042,69.622
0.62854,69.426
0.65885,69.231
0.68915,69.035
0.71554,68.84
0.73607,68.644
0.75171,68.253
0.76149,68.057
0.76637,67.666
0.76637,67.275
0.76246,66.884
0.75367,66.297
0.74194,65.906
0.7263,65.515
0.70968,64.928
0.6911,64.537
0.6696,64.146
0.64614,63.755
0.6217,63.364
0.59726,62.973
0.57283,62.582
0.54839,62.19
0.52688,61.604
0.50635,61.213
0.48876,60.626
0.47214,60.235
0.45943,59.648
0.44868,59.257
0.43891,58.67
0.42913,58.279
0.42131,57.692
0.41447,57.301
0.40762,56.91
0.40176,56.519
0.39589,56.128
0.39101,55.737
0.38612,55.541
0.38025,55.737
0.37537,56.128
0.37146,57.301
0.36755,59.648
0.36364,63.559
0.35875,69.035
0.35386,75.685
0.34897,82.529
0.34409,89.374
0.3392,95.632
0.33431,101.11
0.32942,105.8
0.32454,109.52
0.31965,112.06
0.31672,113.62
0.31378,114.21
0.30987,113.82
0.30596,112.84
0.30205,111.28
0.29717,109.32
0.29326,107.17
0.28837,104.43
0.28446,101.69
0.27957,98.37
0.27566,95.046
0.27077,91.33
0.26784,87.614
0.26491,84.289
0.26197,80.965
0.25806,78.227
0.25318,75.685
0.25024,73.729
0.24829,72.164
0.25024,70.991
0.25806,70.013
0.27273,69.231
0.29521,68.644
0.32747,68.253
0.36657,68.057
0.40469,67.862
0.44379,67.666
0.48778,67.666
0.53372,67.471
0.57674,67.471
0.61584,67.471
0.64809,67.275
0.67449,67.275
0.69404,67.08
0.70772,66.688
0.71554,66.493
0.71848,66.102
0.71652,65.906
0.71065,65.515
0.70186,65.124
0.69013,64.537
0.67449,64.146
0.65591,63.755
0.63441,63.364
0.61193,63.168
0.58749,62.777
0.56207,62.386
0.53763,61.995
0.5132,61.604
0.49071,61.213
0.47214,60.626
0.45552,60.235
0.43891,59.648
0.42424,59.257
0.41056,58.67
0.39883,58.279
0.38905,57.692
0.38025,57.301
0.37341,56.91
0.36657,56.519
0.36168,55.932
0.35679,55.541
0.35386,55.15
0.35093,54.954
0.348,54.759
0.34409,54.954
0.34018,55.346
0.33724,56.128
0.33333,58.083
0.32942,61.408
0.32551,66.297
0.32258,72.164
0.31867,78.618
0.31476,84.876
0.31085,90.939
0.3089,96.219
0.30596,100.91
0.30303,104.82
0.3001,107.56
0.29717,109.32
0.29423,110.1
0.29032,110.1
0.28739,109.32
0.28348,107.76
0.27957,106
0.27566,103.65
0.27175,100.91
0.26882,97.784
0.26588,94.459
0.26295,90.939
0.25904,87.419
0.25513,83.703
0.25122,80.378
0.24829,77.445
0.24438,75.098
0.24047,72.751
0.23754,70.991
0.23656,69.622
0.23851,68.644
0.24536,67.666
0.25611,67.08
0.27273,66.688
0.29717,66.297
0.3304,66.102
0.37048,65.906
0.41544,65.906
0.46237,65.711
0.50929,65.711
0.55327,65.711
0.5914,65.711
0.62463,65.515
0.652,65.515
0.67058,65.319
0.68231,65.124
0.69013,64.928
0.69501,64.733
0.69501,64.537
0.69013,64.146
0.68133,63.755
0.66862,63.364
0.652,62.973
0.63245,62.777
0.61095,62.386
0.58749,61.995
0.56305,61.604
0.54057,61.213
0.52004,60.821
0.49853,60.43
0.47703,60.039
0.45748,59.648
0.43891,59.257
0.42229,58.67
0.4086,58.279
0.39589,57.888
0.38514,57.301
0.37537,56.91
0.36755,56.519
0.36168,56.128
0.35777,55.541
0.35288,55.15
0.34897,54.759
0.34506,54.368
0.34213,54.172
0.3392,54.172
0.33627,54.172
0.33333,54.759
0.33138,55.541
0.32845,57.692
0.32551,61.017
0.3216,65.906
0.31965,71.773
0.31769,78.031
0.31476,84.094
0.31183,89.765
0.31183,94.85
0.31281,99.348
0.31183,102.87
0.30987,105.61
0.30694,107.17
0.30401,107.95
0.30108,107.76
0.29814,106.98
0.29619,105.61
0.29423,103.65
0.2913,101.3
0.28837,98.566
0.28543,95.437
0.2825,92.112
0.27957,88.592
0.27566,85.072
0.27273,81.552
0.26882,78.422
0.26588,75.685
0.26197,73.533
0.25904,71.578
0.25709,70.013
0.25709,68.644
0.25904,67.666
0.26491,67.08
0.27566,66.493
0.29326,65.906
0.31769,65.711
0.34995,65.515
0.38807,65.319
0.43011,65.124
0.47312,65.124
0.51613,65.124
0.55034,65.124
0.57967,65.124
0.60704,64.928
0.63245,64.928
0.652,64.733
0.66667,64.537
0.67546,64.342
0.68035,64.146
0.67937,63.755
0.67546,63.364
0.66569,62.973
0.65298,62.777
0.63734,62.386
0.62072,62.19
0.60313,61.799
0.5826,61.408
0.56109,61.213
0.53861,60.821
0.51613,60.43
0.4956,60.039
0.47507,59.648
0.45748,59.257
0.44086,58.866
0.4262,58.279
0.41349,57.888
0.40371,57.497
0.39589,56.91
0.38807,56.519
0.38123,56.128
0.37537,55.541
0.37048,55.15
0.36657,54.759
0.36266,54.368
0.35875,54.172
0.35582,53.977
0.35288,53.977
0.35093,54.172
0.348,54.954
0.34604,56.519
0.34506,59.452
0.34213,63.755
0.34018,69.426
0.33724,75.685
0.33431,81.943
0.33138,88.005
0.32845,93.677
0.32551,98.566
0.32258,102.67
0.31965,105.8
0.31672,107.95
0.31476,109.13
0.31281,109.32
0.31085,108.93
0.30792,107.76
0.30499,106.19
0.30205,104.04
0.29814,101.69
0.29521,98.761
0.2913,95.632
0.28837,92.112
0.28446,88.592
0.28055,84.876
0.27859,81.552
0.27664,78.422
0.2737,75.685
0.27077,73.533
0.26784,71.578
0.26588,70.013
0.26588,68.84
0.26882,67.862
0.27761,67.08
0.29326,66.688
0.31672,66.102
0.34702,65.906
0.38514,65.711
0.42033,65.711
0.4565,65.515
0.49658,65.515
0.53861,65.515
0.57674,65.319
0.61193,65.319
0.64027,65.319
0.66373,65.124
0.68133,64.928
0.69306,64.733
0.6999,64.537
0.70088,64.146
0.69795,63.95
0.69208,63.559
0.68231,63.168
0.66862,62.973
0.65298,62.582
0.63343,62.19
0.6129,61.799
0.59042,61.408
0.56696,61.213
0.5435,60.821
0.52004,60.43
0.49853,60.039
0.47801,59.648
0.46139,59.257
0.4477,58.67
0.43402,58.279
0.42131,57.888
0.41056,57.301
0.40078,56.91
0.39296,56.519
0.38612,56.128
0.37928,55.541
0.37439,55.15
0.37048,54.759
0.36657,54.368
0.36364,53.977
0.36168,53.977
0.35875,53.977
0.35582,54.563
0.35386,55.541
0.35093,57.888
0.348,61.799
0.34506,67.275
0.34213,73.533
0.3392,80.183
0.33529,86.636
0.33236,92.699
0.32942,98.175
0.32649,102.67
0.32454,106.39
0.32258,109.13
0.31965,110.89
0.31672,111.47
0.31378,111.47
0.31085,110.5
0.30694,109.13
0.30303,107.37
0.3001,105.22
0.29619,102.67
0.29228,99.739
0.29032,96.61
0.28739,93.286
0.28543,89.765
0.28152,86.05
0.27859,82.725
0.27468,79.791
0.27077,77.249
0.26686,74.902
0.26393,73.142
0.26295,71.773
0.26491,70.6
0.27175,69.622
0.28543,69.035
0.30205,68.449
0.32454,68.057
0.35679,67.862
0.39589,67.862
0.43988,67.666
0.48485,67.666
0.53079,67.666
0.57283,67.666
0.61095,67.666
0.64321,67.471
0.66862,67.471
0.68915,67.471
0.70088,67.275
0.70772,67.08
0.71163,66.688
0.71261,66.493
0.7087,66.102
0.70186,65.906
0.6911,65.515
0.67644,65.124
0.65885,64.733
0.6393,64.537
0.61779,64.146
0.59433,63.755
0.57087,63.559
0.55034,63.168
0.53079,62.777
0.51124,62.386
0.49267,61.799
0.4741,61.408
0.45846,61.017
0.44379,60.626
0.43109,60.235
0.42033,59.844
0.41153,59.257
0.40371,58.866
0.39785,58.475
0.39296,58.083
0.38905,57.497
0.38514,57.106
0.38221,56.91
0.37928,56.715
0.37634,56.715
0.37439,56.91
0.37243,58.083
0.3695,60.235
0.36755,63.95
0.36461,69.426
0.36266,75.88
0.35973,82.921
0.35777,89.765
0.35679,96.024
0.35484,101.89
0.35288,106.78
0.35093,110.69
0.348,113.43
0.34604,115.19
0.34311,115.97
0.34115,115.97
0.3392,115.19
0.33627,114.02
0.33431,112.26
0.33236,110.3
0.3304,107.95
0.32747,105.22
0.32551,102.48
0.32258,99.153
0.32063,95.632
0.31769,92.112
0.31476,88.592
0.31183,85.267
0.3089,82.138
0.30499,79.596
0.30303,77.445
0.30108,75.685
0.30303,74.316
0.30792,73.142
0.31965,72.36
0.3392,71.773
0.36657,71.382
0.40274,70.991
0.44575,70.6
0.49267,70.6
0.54252,70.404
0.59042,70.209
0.63539,70.209
0.67546,70.013
0.70577,69.818
0.72825,69.622
0.74878,69.426
0.76442,69.231
0.77615,68.84
0.78299,68.644
0.78495,68.253
0.78201,67.862
0.77517,67.471
0.7654,67.08
0.75073,66.688
0.73314,66.102
0.71359,65.906
0.69306,65.319
0.67253,64.928
0.65005,64.537
0.62561,63.95
0.6002,63.559
0.57674,62.973
0.55425,62.582
0.53372,61.995
0.51417,61.604
0.49756,61.017
0.48289,60.626
0.47019,60.039
0.45943,59.452
0.45161,59.061
0.44379,58.67
0.43597,58.083
0.43011,57.692
0.42424,57.106
0.41838,56.91
0.41349,56.519
0.40958,56.323
0.40567,56.323
0.40078,56.519
0.39687,57.497
0.39296,59.648
0.38905,63.364
0.38514,68.84
0.38025,75.489
0.37537,82.725
0.37048,89.57
0.36559,96.219
0.3607,102.09
0.35582,107.17
0.35093,111.28
0.34604,114.21
0.34115,115.97
0.33627,116.75
0.33236,116.56
0.32845,115.78
0.32454,114.41
0.31965,112.65
0.31476,110.5
0.30987,108.34
0.30499,105.61
0.29912,102.67
0.29423,99.348
0.28935,95.828
0.28446,91.917
0.27957,88.201
0.27664,84.681
0.2737,81.552
0.26979,79.009
0.26588,76.662
0.26295,74.707
0.26295,73.338
0.26784,72.164
0.27859,71.186
0.29814,70.6
0.32649,70.209
0.36364,69.818
0.40762,69.426
0.45552,69.231
0.49951,69.231
0.53861,69.231
0.58162,69.035
0.6217,69.035
0.65689,69.035
0.68622,68.84
0.70968,68.644
0.7263,68.449
0.73705,68.253
0.74291,67.862
0.74389,67.471
0.73998,67.275
0.73314,66.688
0.72336,66.297
0.70968,65.906
0.69306,65.515
0.67351,65.124
0.652,64.733
0.62854,64.342
0.60313,63.95
0.57771,63.559
0.55132,62.973
0.52688,62.777
0.50342,62.19
0.48192,61.799
0.46432,61.408
0.44966,60.821
0.43597,60.235
0.42326,59.844
0.41153,59.257
0.40176,58.67
0.39394,58.279
0.38612,57.888
0.38025,57.301
0.37537,56.91
0.37048,56.519
0.36559,56.128
0.36266,55.932
0.3607,55.932
0.35777,56.128
0.35386,56.715
0.35093,58.083
0.348,60.626
0.34409,64.928
0.34018,70.6
0.33627,77.054
0.33236,83.898
0.32845,90.352
0.32454,96.219
0.32063,101.5
0.31769,106
0.31574,109.52
0.31281,111.86
0.3089,113.23
0.30499,113.62
0.30108,113.23
0.29814,112.06
0.29423,110.3
0.29032,108.34
0.28641,106
0.28152,103.46
0.27761,100.52
0.27468,97.197
0.27273,93.481
0.26882,89.765
0.26588,86.245
0.26197,82.725
0.25806,79.791
0.25415,77.249
0.25024,75.098
0.24829,73.142
0.24731,71.773
0.25122,70.6
0.25904,69.818
0.27566,69.035
0.29521,68.644
0.31965,68.449
0.35484,68.057
0.39687,67.862
0.44379,67.666
0.49267,67.666
0.54057,67.666
0.58456,67.471
0.62366,67.471
0.65689,67.471
0.68328,67.471
0.70283,67.275
0.71457,67.08
0.72043,66.688
0.72336,66.493
0.72239,66.102
0.7175,65.711
0.7087,65.319
0.69599,64.928
0.67937,64.537
0.65982,64.342
0.63832,63.95
0.61486,63.559
0.58944,63.168
0.56403,62.777
0.54154,62.386
0.52004,61.995
0.49853,61.408
0.47801,61.017
0.45846,60.626
0.44184,60.039
0.4262,59.648
0.41349,59.257
0.40176,58.67
0.39198,58.279
0.38416,57.692
0.37732,57.301
0.37146,56.91
0.36755,56.519
0.36364,55.932
0.35973,55.737
0.35582,55.541
0.35288,55.346
0.34995,55.541
0.34702,55.932
0.34409,57.106
0.34115,59.452
0.33822,63.168
0.33529,68.449
0.33138,74.511
0.32942,80.965
0.32747,87.223
0.32454,93.09
0.3216,98.175
0.31769,102.67
0.31476,106.19
0.31085,108.74
0.30792,110.3
0.30401,110.69
0.30108,110.5
0.29717,109.52
0.29326,108.15
0.2913,106.39
0.28837,104.24
0.28543,101.5
0.2825,98.566
0.27859,95.241
0.27468,91.721
0.27077,88.201
0.26686,84.681
0.26295,81.356
0.26002,78.618
0.25611,76.271
0.25318,74.12
0.25024,72.36
0.24927,70.991
0.2522,70.013
0.25709,69.035
0.26882,68.449
0.28739,67.862
0.31476,67.471
0.34897,67.275
0.39101,67.08
0.43695,66.884
0.48485,66.884
0.53177,66.884
0.57576,66.688
0.61095,66.688
0.63832,66.493
0.66373,66.493
0.68524,66.297
0.70088,66.102
0.70283,65.906
0.69599,65.515
0.69013,65.319
0.68231,64.928
0.67351,64.537
0.6608,64.146
0.64614,63.755
0.62757,63.559
0.60997,63.168
0.5914,62.973
0.57087,62.582
0.54936,62.19
0.52688,61.799
0.5044,61.408
0.48387,61.017
0.4653,60.43
0.4477,60.039
0.43206,59.648
0.41838,59.061
0.40665,58.67
0.39687,58.279
0.39003,57.692
0.38319,57.301
0.37634,56.91
0.37048,56.323
0.36559,55.932
0.36168,55.541
0.35777,55.346
0.35484,55.15
0.35191,54.954
0.34897,55.15
0.34604,55.932
0.34409,57.301
0.34213,60.039
0.34018,64.342
0.33724,70.013
0.33431,76.271
0.33138,82.725
0.32845,88.983
0.32551,94.655
0.32258,99.739
0.31965,104.04
0.31672,107.37
0.31378,109.71
0.30987,111.08
0.30792,111.47
0.30596,111.28
0.30401,110.3
0.30108,108.74
0.29814,106.98
0.29423,104.63
0.2913,102.09
0.28739,99.153
0.28348,95.828
0.28055,92.112
0.27664,88.592
0.2737,84.876
0.27077,81.552
0.26882,78.814
0.26588,76.271
0.26295,74.12
0.26002,72.555
0.25904,71.186
0.261,70.209
0.26784,69.231
0.28152,68.84
0.30205,68.449
0.3304,68.057
0.36559,67.862
0.40665,67.862
0.44575,67.862
0.48192,67.666
0.52199,67.666
0.56109,67.666
0.59726,67.862
0.62854,67.666
0.65396,67.666
0.67351,67.471
0.68817,67.471
0.69599,67.275
0.6999,66.884
0.69892,66.688
0.69501,66.297
0.68622,65.906
0.67546,65.711
0.6608,65.319
0.64321,64.928
0.62268,64.733
0.60117,64.342
0.57771,63.95
0.55425,63.559
0.53079,63.168
0.50831,62.973
0.4868,62.582
0.46725,61.995
0.45161,61.604
0.43891,61.213
0.4262,60.821
0.41447,60.235
0.40469,59.844
0.39589,59.452
0.38807,59.061
0.38221,58.67
0.37634,58.279
0.37243,57.888
0.36852,57.497
0.36559,57.106
0.36364,57.106
0.36168,57.106
0.35973,57.692
0.35777,59.061
0.35582,61.604
0.35386,65.711
0.35093,71.382
0.34897,77.836
0.34604,84.485
0.34409,90.939
0.34115,97.001
0.3392,102.28
0.33627,106.78
0.33529,110.5
0.33333,113.04
0.33138,114.41
0.32942,114.99
0.32649,114.8
0.32356,113.82
0.3216,112.45
0.31867,110.69
0.31574,108.74
0.31281,106.39
0.30987,103.65
0.30694,100.72
0.30499,97.393
0.30303,93.677
0.30108,90.157
0.29912,86.636
0.29619,83.507
0.29326,80.769
0.29032,78.422
0.28837,76.662
0.28739,75.098
0.28935,73.924
0.29717,72.947
0.30987,72.36
0.33138,71.773
0.35484,71.578
0.38221,71.382
0.41838,71.186
0.45943,71.186
0.50342,71.186
0.54741,70.991
0.58944,70.991
0.62659,70.795
0.65787,70.795
0.68426,70.6
0.70381,70.209
0.7175,69.818
0.72532,69.426
0.72825,69.035
0.72825,68.644
0.72532,68.057
0.71945,67.666
0.70968,67.08
0.69697,66.688
0.68133,66.102
0.66276,65.711
0.64223,65.124
0.62072,64.733
0.59824,64.537
0.57576,64.146
0.55523,63.559
0.53763,63.168
0.51906,62.777
0.50147,62.386
0.48583,61.799
0.47116,61.408
0.45846,60.821
0.4477,60.43
0.43891,59.844
0.43109,59.257
0.42522,58.866
0.41935,58.279
0.41447,57.888
0.41153,57.497
0.40762,57.106
0.40371,56.91
0.3998,56.715
0.39589,56.91
0.39296,57.692
0.38905,59.648
0.38514,63.168
0.38123,68.253
0.37732,74.707
0.37341,81.747
0.36852,88.788
0.36461,95.437
0.36168,101.5
0.35777,106.78
0.35484,111.08
0.35093,114.41
0.34604,116.36
0.34213,117.54
0.33822,117.54
0.33431,116.95
0.3304,115.78
0.32551,114.21
0.3216,112.26
0.31769,109.91
0.31476,107.37
0.31085,104.63
0.30596,101.3
0.30108,97.784
0.29619,94.068
0.29228,90.157
0.28739,86.636
0.2825,83.312
0.27761,80.378
0.27273,78.031
0.26979,76.076
0.26882,74.511
0.27175,73.338
0.27761,72.164
0.2913,71.578
0.31281,70.991
0.34213,70.795
0.37928,70.6
0.42131,70.404
0.46628,70.209
0.51222,70.209
0.55621,70.013
0.59531,70.013
0.62854,69.818
0.65396,69.622
0.67155,69.426
0.68719,69.231
0.69795,68.84
0.70479,68.644
0.70772,68.057
0.70674,67.666
0.70186,67.275
0.69306,66.884
0.68133,66.493
0.66569,65.906
0.64809,65.515
0.62757,65.124
0.60704,64.733
0.58749,64.342
0.565,63.95
0.54154,63.559
0.51906,62.973
0.49658,62.582
0.47507,62.19
0.4565,61.604
0.43891,61.213
0.42424,60.626
0.41056,60.039
0.3998,59.648
0.39101,59.061
0.38416,58.67
0.37732,58.083
0.37146,57.692
0.36657,57.301
0.36168,56.91
0.35679,56.715
0.35288,56.323
0.34995,56.323
0.34604,56.519
0.34311,57.301
0.3392,59.061
0.33627,61.995
0.33431,66.493
0.3304,72.555
0.32747,79.4
0.32356,86.05
0.31965,92.503
0.31574,98.37
0.31183,103.46
0.30792,107.76
0.30401,111.08
0.3001,113.23
0.29717,114.21
0.29326,114.6
0.29032,114.02
0.28837,112.84
0.28543,111.28
0.28152,109.13
0.27859,106.98
0.27468,104.24
0.26979,101.11
0.26588,97.784
0.26197,94.068
0.25806,90.352
0.25415,86.636
0.25024,83.116
0.24731,80.183
0.24536,77.64
0.24242,75.293
0.23949,73.533
0.23949,72.164
0.24145,71.186
0.24927,70.404
0.26295,69.622
0.28543,69.231
0.31574,69.035
0.35386,68.84
0.39785,68.644
0.44477,68.449
0.48583,68.449
0.52199,68.253
0.56109,68.253
0.59726,68.253
0.62952,68.057
0.65494,67.862
0.67449,67.666
0.68915,67.471
0.69795,67.275
0.70088,66.884
0.6999,66.493
0.69501,66.102
0.68622,65.711
0.67449,65.319
0.65982,64.928
0.64125,64.537
0.62072,64.146
0.59824,63.755
0.5738,63.364
0.54936,62.973
0.52395,62.582
0.50049,62.19
0.47703,61.799
0.4565,61.213
0.43793,60.821
0.42229,60.235
0.41056,59.844
0.39883,59.257
0.38807,58.866
0.3783,58.279
0.37048,57.888
0.36364,57.497
0.35777,56.91
0.35288,56.519
0.34897,56.128
0.34506,55.737
0.34213,55.541
0.3392,55.541
0.33724,55.932
0.33529,56.715
0.33236,58.279
0.32942,61.213
0.32649,65.515
0.32356,71.382
0.32063,77.64
0.31672,84.094
0.31378,90.157
0.30987,95.828
0.30694,100.72
0.30401,104.82
0.30205,108.15
0.3001,110.3
0.29717,111.47
0.29423,111.67
0.29032,111.28
0.28739,110.1
0.28446,108.54
0.28055,106.39
0.27664,104.04
0.27273,101.11
0.26882,97.979
0.26491,94.655
0.26295,90.939
0.26002,87.223
0.25709,83.703
0.25415,80.574
0.25024,77.64
0.24633,75.293
0.2434,73.338
0.24145,71.773
0.24047,70.6
0.2434,69.622
0.25024,69.035
0.26491,68.449
0.28739,68.057
0.31281,67.862
0.34213,67.666
0.38025,67.471
0.42326,67.471
0.47019,67.471
0.51515,67.275
0.55816,67.275
0.59629,67.275
0.62854,67.08
0.65396,66.884
0.67351,66.688
0.68719,66.493
0.69404,66.102
0.69599,65.906
0.69501,65.515
0.69013,65.124
0.68133,64.733
0.66862,64.342
0.652,63.95
0.63343,63.559
0.61193,63.168
0.58847,62.973
0.56403,62.582
0.53861,62.19
0.51515,61.604
0.49462,61.213
0.47605,60.821
0.45748,60.43
0.43988,59.844
0.42424,59.452
0.40958,58.866
0.39785,58.475
0.3871,58.083
0.3783,57.692
0.37146,57.106
0.36461,56.715
0.35973,56.323
0.35582,55.932
0.35288,55.541
0.34995,55.346
0.34702,55.346
0.34409,55.346
0.34115,55.737
0.33822,56.91
0.33529,59.061
0.33236,62.777
0.32942,67.862
0.32649,74.12
0.32356,80.574
0.32063,87.027
0.31769,92.894
0.31574,97.979
0.31378,102.67
0.31085,106.19
0.30792,108.93
0.30499,110.5
0.30108,111.47
0.29814,111.28
0.29423,110.5
0.29032,109.32
0.28739,107.56
0.28348,105.41
0.28055,102.67
0.27859,99.739
0.27566,96.415
0.27273,92.894
0.26882,89.179
0.26491,85.463
0.26197,82.138
0.25806,79.009
0.25415,76.467
0.25024,74.316
0.24731,72.555
0.24633,70.991
0.24731,70.013
0.25122,69.035
0.26002,68.449
0.27468,68.057
0.29814,67.666
0.32942,67.471
0.36852,67.275
0.41251,67.08
0.45846,66.884
0.50538,66.884
0.54936,66.884
0.58944,66.884
0.62366,66.688
0.64907,66.688
0.66764,66.493
0.68328,66.297
0.69501,65.906
0.70186,65.711
0.70381,65.319
0.70186,64.928
0.69501,64.537
0.68426,64.342
0.6696,63.95
0.65103,63.559
0.6305,62.973
0.60997,62.777
0.58944,62.386
0.56696,61.995
0.54252,61.604
0.51906,61.408
0.49658,60.821
0.47507,60.43
0.45552,60.039
0.43793,59.648
0.42229,59.257
0.4086,58.67
0.39687,58.279
0.38612,57.888
0.37928,57.497
0.37341,57.106
0.36755,56.715
0.36168,56.323
0.35679,56.128
0.35288,55.737
0.34995,55.541
0.34604,55.541
0.34311,55.932
0.34018,56.715
0.33724,58.279
0.33431,61.408
0.33138,66.102
0.32942,72.164
0.32649,78.618
0.32356,85.463
0.31965,91.721
0.31672,97.588
0.31769,102.67
0.32063,106.98
0.32063,110.3
0.31965,112.45
0.31672,113.62
0.31378,114.02
0.31085,113.43
0.30792,112.45
0.30596,110.89
0.30303,108.93
0.3001,106.58
0.29619,104.04
0.29228,100.91
0.28837,97.784
0.28543,94.068
0.28152,90.548
0.27761,87.027
0.27468,83.703
0.27077,80.769
0.26784,78.227
0.26686,76.271
0.26491,74.511
0.26393,73.142
0.26588,72.164
0.27273,71.382
0.28739,70.795
0.3089,70.404
0.34018,70.013
0.37928,69.818
0.42522,69.818
0.47507,69.622
0.5259,69.622
0.56989,69.622
0.60704,69.622
0.64516,69.622
0.67937,69.426
0.70772,69.231
0.73118,69.035
0.7478,68.84
0.75855,68.449
0.76344,68.253
0.76344,67.862
0.75855,67.471
0.74976,67.08
0.73803,66.688
0.72336,66.297
0.70577,65.906
0.68524,65.711
0.66178,65.319
0.63734,64.928
0.61193,64.537
0.58651,64.146
0.56207,63.559
0.53959,63.168
0.51808,62.777
0.49853,62.386
0.48094,61.799
0.46725,61.408
0.4565,60.821
0.44575,60.43
0.43695,59.844
0.42913,59.452
0.42229,59.061
0.41642,58.67
0.41153,58.279
0.40665,58.083
0.40274,57.692
0.3998,57.692
0.39687,57.888
0.39492,58.475
0.39296,60.235
0.39101,63.364
0.38807,68.253
0.38514,74.511
0.38221,81.552
0.37928,88.396
0.37634,94.85
0.37341,100.91
0.37048,106.19
0.36755,110.69
0.36461,114.02
0.36168,116.17
0.35973,117.14
0.35777,117.34
0.35484,116.75
0.35191,115.58
0.348,113.82
0.34506,111.86
0.34213,109.52
0.33822,106.78
0.33431,103.85
0.33138,100.72
0.32747,97.197
0.32356,93.481
0.32063,89.765
0.31867,86.245
0.31476,83.116
0.31183,80.574
0.30792,78.227
0.30499,76.467
0.30303,75.098
0.30499,73.924
0.31281,72.947
0.32649,72.36
0.34995,71.773
0.38123,71.382
0.42033,71.186
0.45943,70.991
0.49756,70.795
0.54252,70.795
0.58944,70.6
0.63343,70.6
0.67253,70.404
0.70577,70.209
0.73314,70.013
0.75367,69.622
0.76833,69.231
0.77713,68.84
0.78006,68.449
0.77908,67.862
0.77322,67.471
0.76442,67.08
0.75269,66.688
0.73803,66.102
0.71945,65.711
0.69795,65.319
0.67449,64.928
0.65005,64.537
0.62463,64.146
0.59824,63.755
0.57283,63.364
0.54936,62.973
0.52884,62.386
0.51222,61.799
0.49462,61.408
0.47801,60.821
0.46334,60.235
0.45064,59.648
0.43988,59.257
0.43011,58.67
0.42131,58.279
0.41349,57.888
0.40665,57.301
0.40078,56.91
0.39687,56.715
0.39296,56.519
0.38807,56.519
0.38416,56.91
0.37928,58.083
0.37537,60.43
0.37048,64.537
0.36461,70.013
0.35973,76.662
0.35386,83.703
0.34897,90.352
0.34409,96.806
0.3392,102.67
0.33529,107.76
0.33236,111.67
0.32845,114.41
0.32454,116.17
0.32063,116.75
0.31672,116.56
0.31183,115.78
0.30792,114.41
0.30303,112.65
0.29912,110.5
0.29423,107.95
0.29032,105.22
0.28641,102.09
0.28348,98.566
0.28055,94.85
0.27566,90.939
0.27175,87.223
0.26784,83.703
0.26295,80.574
0.25806,78.227
0.25415,76.076
0.25122,74.316
0.25024,72.947
0.25513,71.969
0.26588,71.186
0.28055,70.6
0.30205,70.209
0.33333,70.013
0.37341,69.818
0.42033,69.622
0.47019,69.622
0.52004,69.426
0.56891,69.426
0.61193,69.426
0.65005,69.231
0.68133,69.231
0.70577,69.035
0.72141,68.644
0.73021,68.449
0.73705,68.057
0.739,67.666
0.73705,67.275
0.73118,66.688
0.72141,66.297
0.70772,65.906
0.6911,65.515
0.67058,65.124
0.64809,64.537
0.62366,64.146
0.6002,63.755
0.57771,63.364
0.55425,62.973
0.52981,62.386
0.50538,61.995
0.48387,61.408
0.46334,61.017
0.44575,60.626
0.43011,60.039
0.4174,59.452
0.40567,59.061
0.39589,58.475
0.3871,58.083
0.38123,57.497
0.37634,57.106
0.37243,56.715
0.36755,56.519
0.36364,56.323
0.35973,56.128
0.35679,56.128
0.35288,56.715
0.34995,57.692
0.34604,59.844
0.34213,63.559
0.3392,68.84
0.33627,74.902
0.33333,81.356
0.32942,87.81
0.32649,93.872
0.32258,99.153
0.31867,103.85
0.31476,107.37
0.31085,110.1
0.30694,111.86
0.30303,112.45
0.29912,112.26
0.29521,111.28
0.2913,109.91
0.28837,107.95
0.28641,105.61
0.28348,103.06
0.27957,99.935
0.27566,96.61
0.27175,93.09
0.26784,89.374
0.26393,85.854
0.26002,82.334
0.25611,79.4
0.2522,76.858
0.24829,74.902
0.24829,73.142
0.24927,71.773
0.25122,70.6
0.25415,69.818
0.26197,69.231
0.27664,68.84
0.29814,68.449
0.32747,68.057
0.36461,67.862
0.40567,67.862
0.44966,67.862
0.49462,67.666
0.53763,67.666
0.57185,67.471
0.59922,67.471
0.62561,67.275
0.64712,67.275
0.66471,66.884
0.67644,66.688
0.68426,66.297
0.68622,66.102
0.68328,65.711
0.67742,65.319
0.66667,64.928
0.652,64.537
0.63734,64.146
0.62072,63.755
0.60117,63.364
0.57967,62.973
0.55718,62.582
0.53372,62.19
0.51124,61.799
0.48974,61.408
0.46921,60.821
0.45161,60.43
0.435,60.039
0.42033,59.648
0.40762,59.061
0.39883,58.475
0.39101,58.083
0.38319,57.692
0.37732,57.106
0.37146,56.715
0.36559,56.323
0.36168,55.932
0.35777,55.541
0.35386,55.541
0.35093,55.346
0.34897,55.737
0.34604,56.323
0.34409,57.888
0.34213,60.626
0.34018,64.733
0.33724,70.404
0.33431,76.662
0.33138,83.116
0.32845,89.179
0.32551,94.85
0.32258,99.739
0.31965,104.04
0.31672,107.37
0.31281,109.52
0.30987,110.89
0.30792,111.28
0.30596,110.89
0.30401,109.71
0.30108,108.15
0.29717,106.19
0.29423,103.65
0.29032,100.91
0.28739,97.588
0.28348,94.068
0.27957,90.352
0.27664,86.636
0.27273,83.116
0.27077,79.987
0.26882,77.249
0.26588,75.098
0.26295,73.142
0.261,71.578
0.25904,70.404
0.26002,69.426
0.26491,68.84
0.27566,68.449
0.29326,68.057
0.31867,67.666
0.35191,67.471
0.39101,67.471
0.42815,67.471
0.46432,67.275
0.5044,67.275
0.54545,67.275
0.5826,67.275
0.61681,67.08
0.64418,66.884
0.66569,66.688
0.68231,66.493
0.69208,66.102
0.69697,65.906
0.69697,65.515
0.69306,65.124
0.68524,64.733
0.67449,64.342
0.65982,63.95
0.64223,63.559
0.6217,63.168
0.6002,62.973
0.57674,62.582
0.55327,62.19
0.52981,61.799
0.50733,61.408
0.4868,60.821
0.46725,60.43
0.45161,59.844
0.43891,59.452
0.4262,58.866
0.41447,58.475
0.40469,58.083
0.39589,57.497
0.38905,57.106
0.38221,56.715
0.37634,56.323
0.37243,55.737
0.36852,55.541
0.36461,55.346
0.36168,55.346
0.35973,55.346
0.35777,55.737
0.35582,56.91
0.35288,59.257
0.34995,62.973
0.34702,68.057
0.34409,74.316
0.34115,80.769
0.33822,87.027
0.33529,92.894
0.33138,98.175
0.32845,102.67
0.32649,106.58
0.32454,109.13
0.3216,110.89
0.31867,111.67
0.31574,111.67
0.31281,110.89
0.3089,109.52
0.30596,107.76
0.30205,105.61
0.29912,102.87
0.29521,99.935
0.29228,96.61
0.28935,92.894
0.28739,89.179
0.28446,85.658
0.28055,82.138
0.27761,79.205
0.2737,76.662
0.26979,74.707
0.26686,72.947
0.26393,71.773
0.26393,70.6
0.26784,69.818
0.27664,69.231
0.28935,69.035
0.30694,68.84
0.33333,68.644
0.36755,68.449
0.40762,68.449
0.45161,68.449
0.49658,68.449
0.54057,68.449
0.58162,68.644
0.61681,68.644
0.64712,68.449
0.67155,68.253
0.68915,68.057
0.6999,67.862
0.70577,67.471
0.70772,67.275
0.70577,66.884
0.6999,66.493
0.6911,66.102
0.67742,65.906
0.6608,65.515
0.64125,65.124
0.61975,64.733
0.59726,64.342
0.57283,64.146
0.5523,63.755
0.53275,63.364
0.51222,62.973
0.49169,62.386
0.47312,61.995
0.4565,61.604
0.44184,61.017
0.42913,60.626
0.41838,60.235
0.4086,59.844
0.40078,59.452
0.39492,58.866
0.38905,58.475
0.38514,58.279
0.38221,57.888
0.37928,57.497
0.37634,57.497
0.37439,57.497
0.37146,58.279
0.3695,59.452
0.36755,61.995
0.36559,66.297
0.36266,72.164
0.3607,78.814
0.35777,85.658
0.35582,92.308
0.35386,98.37
0.35191,104.04
0.34995,108.54
0.34702,112.26
0.34409,114.8
0.34213,116.36
0.34018,116.95
0.33724,116.75
0.33529,115.78
0.33236,114.41
0.3304,112.65
0.32747,110.5
0.32551,107.95
0.32356,105.02
0.3216,101.89
0.31867,98.37
0.31672,94.655
0.31378,90.939
0.31085,87.614
0.3089,84.289
0.30596,81.552
0.30303,79.4
0.30108,77.445
0.3001,75.88
0.30108,74.902
0.30499,73.924
0.31378,73.338
0.32942,72.751
0.35191,72.555
0.38319,72.36
0.42033,72.164
0.46237,72.164
0.50831,72.164
0.55327,72.164
0.59629,72.164
0.63539,71.969
0.66862,71.773
0.69306,71.382
0.71065,71.186
0.7263,70.6
0.73803,70.209
0.74487,69.818
0.7478,69.231
0.74585,68.84
0.739,68.253
0.72923,67.862
0.71652,67.471
0.70088,67.08
0.68231,66.688
0.66373,66.297
0.64516,65.906
0.62366,65.515
0.60117,65.124
0.57869,64.537
0.55621,64.146
0.53568,63.559
0.51711,63.168
0.49951,62.582
0.48485,61.995
0.47214,61.408
0.46041,61.017
0.45064,60.43
0.44282,59.844
0.43695,59.452
0.43109,58.866
0.4262,58.475
0.42229,58.083
0.4174,57.888
0.41349,57.692
0.40958,57.692
0.40567,58.279
0.40176,59.648
0.39785,62.386
0.39394,66.688
0.39101,72.751
0.3871,79.596
0.38416,86.636
0.38025,93.481
0.37537,99.739
0.37146,105.41
0.36755,110.3
0.36266,113.82
0.35875,116.36
0.35484,117.93
0.35093,118.32
0.34604,117.93
0.34213,116.95
0.33822,115.38
0.33529,113.43
0.3304,111.08
0.32649,108.54
0.3216,105.61
0.31672,102.28
0.31085,98.566
0.30596,94.85
0.30108,90.939
0.29619,87.419
0.2913,84.094
0.28641,81.16
0.28348,78.814
0.28055,76.662
0.27761,75.098
0.27664,73.924
0.27859,72.947
0.28641,72.164
0.30108,71.773
0.32356,71.382
0.35484,71.186
0.39198,70.991
0.435,70.991
0.47996,70.795
0.52395,70.795
0.56109,70.795
0.59238,70.6
0.62268,70.6
0.64907,70.404
0.67155,70.209
0.68817,69.818
0.6999,69.426
0.70577,69.035
0.70674,68.644
0.70479,68.253
0.69795,67.862
0.68719,67.275
0.67546,66.884
0.6608,66.493
0.64321,66.102
0.62268,65.711
0.6002,65.319
0.57674,64.733
0.55327,64.342
0.52981,63.95
0.50733,63.559
0.48583,62.973
0.46628,62.582
0.44868,61.995
0.43304,61.408
0.42131,61.017
0.41153,60.43
0.40274,59.844
0.39394,59.452
0.3871,58.866
0.38123,58.475
0.37537,58.083
0.37146,57.692
0.36755,57.301
0.36364,57.106
0.3607,57.106
0.35777,57.497
0.35484,58.279
0.35288,59.844
0.34995,62.973
0.34702,67.471
0.34409,73.533
0.34018,80.378
0.33724,87.419
0.33333,93.872
0.32942,99.935
0.32649,105.41
0.32258,109.71
0.31867,113.04
0.31574,115.19
0.31281,116.36
0.31085,116.56
0.30792,116.17
0.30499,114.8
0.30108,113.04
0.29717,110.89
0.29423,108.34
0.29032,105.41
0.28641,102.28
0.2825,98.566
0.27859,94.85
0.27468,90.939
0.27273,87.027
0.27077,83.703
0.26784,80.574
0.26393,78.227
0.261,76.076
0.25806,74.316
0.25611,73.142
0.25709,72.164
0.26295,71.382
0.2737,70.795
0.2913,70.404
0.31769,70.209
0.34604,70.013
0.37732,69.818
0.4174,69.818
0.46139,69.818
0.50635,69.622
0.54936,69.622
0.58847,69.622
0.6217,69.426
0.64907,69.231
0.67058,69.035
0.68622,68.84
0.69599,68.644
0.70088,68.253
0.6999,67.862
0.69599,67.471
0.68817,67.08
0.67742,66.493
0.66276,66.102
0.64516,65.711
0.62561,65.319
0.60313,64.928
0.57967,64.537
0.55621,64.146
0.53177,63.755
0.50831,63.364
0.48876,62.777
0.47214,62.386
0.45455,61.799
0.43891,61.408
0.42424,60.821
0.41153,60.235
0.40078,59.844
0.39101,59.257
0.38319,58.866
0.37634,58.279
0.37146,57.888
0.36657,57.497
0.36266,57.106
0.35973,56.91
0.35679,56.91
0.35484,56.91
0.35191,57.301
0.34897,58.279
0.34702,60.235
0.34409,63.559
0.34115,68.253
0.33822,74.12
0.33529,80.574
0.33236,87.027
0.32845,93.09
0.32649,98.761
0.32454,103.65
0.3216,107.37
0.31867,110.3
0.31574,112.26
0.31281,113.04
0.30987,113.04
0.30596,112.26
0.30303,110.89
0.29912,108.93
0.29521,106.58
0.29228,104.04
0.28837,100.91
0.28641,97.393
0.28348,93.677
0.28055,89.765
0.27761,86.245
0.27468,82.921
0.27175,79.987
0.26784,77.445
0.26491,75.293
0.26197,73.533
0.26002,72.36
0.26002,71.186
0.26197,70.404
0.26784,69.818
0.27761,69.426
0.29326,69.035
0.31769,68.84
0.34897,68.644
0.38612,68.644
0.42815,68.644
0.47116,68.449
0.51515,68.449
0.55523,68.449
0.5914,68.253
0.6217,68.253
0.64712,68.057
0.66373,67.862
0.67449,67.471
0.68231,67.275
0.68622,66.884
0.68524,66.493
0.68035,66.102
0.67155,65.906
0.65885,65.515
0.64321,65.124
0.62463,64.733
0.60313,64.342
0.58065,63.95
0.56012,63.559
0.54057,63.168
0.52004,62.777
0.49853,62.19
0.47898,61.799
0.46041,61.408
0.44379,60.821
0.42913,60.43
0.41642,59.844
0.40469,59.452
0.39492,58.866
0.3871,58.475
0.38025,57.888
0.37537,57.497
0.37048,57.106
0.36657,56.715
0.36364,56.519
0.35973,56.323
0.35679,56.323
0.35386,56.715
0.35191,57.497
0.34897,59.257
0.34604,62.386
0.34311,67.08
0.34115,72.947
0.3392,79.596
0.33724,86.05
0.33431,92.308
0.33236,98.175
0.32942,103.26
0.32649,107.37
0.32356,110.5
0.32063,112.65
0.31769,113.62
0.31476,113.82
0.31183,113.23
0.30792,112.06
0.30499,110.3
0.30205,108.15
0.3001,105.41
0.29717,102.48
0.29423,98.957
0.29032,95.437
0.28641,91.525
0.28348,87.81
0.27957,84.289
0.27566,81.16
0.27175,78.422
0.26784,76.076
0.26491,74.316
0.26295,72.751
0.26295,71.578
0.26393,70.6
0.26882,70.013
0.27859,69.622
0.29619,69.426
0.32063,69.231
0.35288,69.035
0.39296,69.035
0.43695,69.035
0.48289,69.035
0.52884,69.035
0.57185,69.035
0.60606,69.035
0.63343,69.035
0.65885,68.84
0.68133,68.644
0.69697,68.449
0.7087,68.253
0.71457,67.862
0.71457,67.471
0.71065,67.275
0.70283,66.884
0.69013,66.493
0.67351,66.297
0.65689,65.906
0.63832,65.515
0.61681,65.124
0.59335,64.733
0.56891,64.537
0.54448,64.146
0.52102,63.559
0.49951,63.168
0.47898,62.777
0.46041,62.19
0.44379,61.799
0.42913,61.408
0.4174,60.821
0.40762,60.43
0.40078,60.039
0.39394,59.648
0.3871,59.257
0.38221,58.866
0.37732,58.475
0.37341,58.279
0.37048,58.083
0.36755,58.279
0.36461,58.475
0.36266,59.648
0.35973,61.604
0.35777,64.928
0.35679,70.013
0.35484,76.271
0.35191,83.116
0.34995,89.765
0.34702,96.219
0.34506,101.89
0.34213,106.98
0.3392,111.08
0.33724,114.21
0.33431,115.97
0.33236,116.95
0.32942,116.95
0.32747,116.36
0.32649,114.99
0.32454,113.23
0.3216,110.89
0.31867,108.54
0.31574,105.61
0.31281,102.48
0.30987,98.957
0.30694,95.241
0.30401,91.525
0.30108,87.81
0.29814,84.681
0.29619,81.943
0.29521,79.596
0.29326,77.64
0.2913,76.076
0.29032,74.902
0.29326,73.924
0.29912,73.338
0.31183,72.947
0.33138,72.555
0.35973,72.36
0.39492,72.36
0.43597,72.36
0.47507,72.36
0.51222,72.36
0.55425,72.164
0.59531,72.164
0.63441,72.164
0.66764,71.969
0.69599,71.773
0.71848,71.578
0.73412,71.186
0.74389,70.795
0.74976,70.404
0.74976,70.013
0.74585,69.622
0.73803,69.035
0.72727,68.644
0.71359,68.253
0.69599,67.666
0.67644,67.275
0.65494,66.688
0.63148,66.102
0.60802,65.711
0.58456,65.124
0.56207,64.537
0.54057,64.146
0.52102,63.559
0.50538,62.973
0.49169,62.582
0.47898,61.995
0.46725,61.408
0.4565,61.017
0.4477,60.626
0.44086,60.235
0.43402,59.844
0.42913,59.257
0.42424,58.866
0.42033,58.67
0.4174,58.279
0.41349,58.279
0.41056,58.866
0.4086,60.039
0.40567,62.582
0.40176,66.688
0.39883,72.555
0.39492,79.4
0.39101,86.636
0.38807,93.677
0.38416,100.33
0.38025,106.19
0.37634,111.28
0.37341,115.19
0.37048,117.93
0.36755,119.49
0.36364,120.08
0.35973,119.88
0.35582,118.9
0.35191,117.34
0.34702,115.38
0.34311,113.23
0.33822,110.5
0.33333,107.76
0.32942,104.43
0.32454,100.91
0.31965,97.197
0.31672,93.286
0.31378,89.374
0.30987,85.854
0.30596,82.725
0.30108,80.183
0.29619,78.031
0.29228,76.271
0.29032,74.902
0.2913,73.924
0.29814,73.142
0.31183,72.555
0.33333,72.164
0.35777,71.969
0.3871,71.969
0.42522,71.773
0.46823,71.773
0.51417,71.773
0.55816,71.773
0.6002,71.578
0.63734,71.382
0.66764,71.186
0.69208,70.991
0.71065,70.795
0.72239,70.404
0.72923,70.013
0.73118,69.622
0.72825,69.035
0.72336,68.644
0.71457,68.253
0.70186,67.666
0.68622,67.275
0.66764,66.884
0.64712,66.297
0.62366,65.906
0.59922,65.515
0.57478,65.124
0.54936,64.537
0.52786,64.146
0.50831,63.559
0.48876,62.973
0.46921,62.582
0.45161,61.995
0.43695,61.604
0.42326,61.017
0.41153,60.43
0.40176,60.039
0.39394,59.648
0.3871,59.061
0.38025,58.67
0.37537,58.279
0.37146,57.888
0.36852,57.692
0.36461,57.692
0.36168,58.083
0.35875,58.866
0.35484,60.626
0.35191,63.755
0.348,68.644
0.34409,74.707
0.34115,81.552
0.33724,88.592
0.33333,95.046
0.3304,101.11
0.32845,106.39
0.32454,110.69
0.3216,114.02
0.31769,115.97
0.31476,117.14
0.31085,117.14
0.30499,116.56
0.29717,115.38
0.29228,113.62
0.28739,111.47
0.2825,108.93
0.27859,106
0.27566,102.67
0.27273,99.153
0.26979,95.241
0.26686,91.33
0.26295,87.614
0.25904,84.094
0.25513,81.16
0.25122,78.422
0.24731,76.467
0.24438,74.707
0.24242,73.338
0.24438,72.36
0.24829,71.578
0.25709,70.991
0.27273,70.6
0.29619,70.404
0.32845,70.209
0.36755,70.013
0.41153,70.013
0.45846,70.013
0.50538,70.013
0.54936,70.013
0.58944,69.818
0.62366,69.622
0.65103,69.622
0.67058,69.231
0.68328,69.035
0.69208,68.84
0.69795,68.449
0.69892,68.057
0.69599,67.471
0.68915,67.08
0.6784,66.688
0.66373,66.297
0.64516,65.906
0.62463,65.515
0.60215,64.928
0.58065,64.537
0.55914,64.146
0.53666,63.755
0.5132,63.168
0.49071,62.777
0.46921,62.19
0.44868,61.799
0.43109,61.213
0.41544,60.821
0.40176,60.235
0.39003,59.844
0.37928,59.257
0.37146,58.866
0.36559,58.279
0.3607,57.888
0.35582,57.497
0.35191,57.301
0.348,57.106
0.34506,56.91
0.34115,57.106
0.33822,57.497
0.33529,58.67
0.33236,61.017
0.32942,64.733
0.32649,69.818
0.32454,76.076
0.32258,82.725
0.31965,89.374
0.31574,95.437
0.31281,100.91
0.30987,105.61
0.30596,109.52
0.30303,112.06
0.29912,113.82
0.29619,114.41
0.29326,114.21
0.28935,113.23
0.28739,111.86
0.28543,109.91
0.2825,107.37
0.27859,104.63
0.27566,101.5
0.27175,97.979
0.26784,94.263
0.26491,90.352
0.261,86.636
0.25709,83.312
0.25318,80.378
0.25024,77.836
0.24633,75.685
0.24438,73.924
0.2434,72.555
0.2434,71.578
0.24536,70.795
0.25122,70.209
0.26393,69.818
0.28348,69.426
0.31085,69.231
0.34506,69.231
0.38612,69.231
0.43109,69.035
0.47801,69.035
0.51808,69.035
0.5523,69.035
0.58749,68.84
0.61877,68.644
0.64614,68.449
0.66667,68.253
0.68231,68.057
0.69208,67.666
0.69697,67.275
0.69599,66.884
0.6911,66.493
0.68133,66.102
0.66764,65.711
0.65298,65.319
0.63636,64.928
0.61584,64.537
0.59335,64.146
0.56891,63.755
0.54448,63.168
0.52102,62.777
0.49267,62.386
0.46921,61.799
0.45259,61.408
0.43695,61.017
0.42229,60.43
0.41056,59.844
0.40078,59.452
0.39198,59.061
0.38319,58.475
0.37634,58.083
0.3695,57.692
0.36461,57.301
0.35973,56.91
0.35582,56.715
0.35191,56.519
0.34897,56.519
0.34604,56.91
0.34311,57.888
0.34115,59.844
0.3392,63.168
0.33724,68.253
0.33431,74.511
0.33138,81.16
0.32845,87.81
0.32551,93.872
0.32258,99.544
0.31867,104.63
0.31574,108.54
0.31281,111.47
0.30987,113.43
0.30694,114.41
0.30499,114.41
0.30205,113.82
0.29912,112.45
0.29619,110.69
0.29228,108.34
0.28935,105.8
0.28543,102.87
0.28152,99.544
0.27859,95.828
0.27468,92.112
0.27077,88.201
0.26784,84.681
0.26491,81.552
0.26295,78.814
0.26002,76.662
0.25709,74.707
0.25415,73.338
0.25318,72.164
0.25415,71.382
0.25904,70.795
0.26979,70.404
0.28739,70.013
0.31378,69.818
0.348,69.818
0.38319,69.622
0.41838,69.622
0.46139,69.622
0.50635,69.622
0.55132,69.622
0.5914,69.622
0.62757,69.622
0.65689,69.426
0.68035,69.231
0.69697,69.035
0.70772,68.84
0.71359,68.449
0.71457,68.057
0.71065,67.666
0.70283,67.471
0.69208,67.08
0.67644,66.688
0.65885,66.297
0.63734,65.906
0.61388,65.515
0.58944,65.124
0.565,64.733
0.54057,64.342
0.51613,63.95
0.49462,63.559
0.47605,63.168
0.46041,62.777
0.44477,62.19
0.43109,61.799
0.41838,61.408
0.40762,61.017
0.39785,60.43
0.39003,60.039
0.38416,59.648
0.3783,59.257
0.37341,58.866
0.3695,58.67
0.36559,58.475
0.36364,58.67
0.36168,59.257
0.35973,60.43
0.35777,62.973
0.35484,67.275
0.35191,72.947
0.34995,79.596
0.34702,86.636
0.34409,93.481
0.34115,99.739
0.3392,105.61
0.33627,110.5
0.33431,114.41
0.33236,116.95
0.3304,118.71
0.32845,119.3
0.32649,119.1
0.32356,118.12
0.32063,116.75
0.31769,114.99
0.31574,112.84
0.31281,110.3
0.30987,107.37
0.30694,104.24
0.30401,100.72
0.30205,96.806
0.30108,92.894
0.29912,89.179
0.29619,85.854
0.29423,82.921
0.2913,80.574
0.28837,78.618
0.28641,77.054
0.28641,75.88
0.29032,74.902
0.30499,74.316
0.32258,73.924
0.33627,73.533
0.36168,73.533
0.3998,73.338
0.44379,73.338
0.49267,73.533
0.54252,73.533
0.5914,73.338
0.63734,73.338
0.6784,73.142
0.71359,72.947
0.74194,72.555
0.76344,72.164
0.77908,71.969
0.7869,71.382
0.78983,70.795
0.78983,70.404
0.78592,69.818
0.7781,69.231
0.76637,68.84
0.75171,68.253
0.73314,67.666
0.71163,67.275
0.68817,66.884
0.66276,66.493
0.63734,65.906
0.61388,65.515
0.58749,65.124
0.56305,64.537
0.54643,64.146
0.52884,63.559
0.51222,62.973
0.49756,62.582
0.48387,61.995
0.47312,61.408
0.46334,61.017
0.45552,60.43
0.44868,59.844
0.44282,59.452
0.43793,59.061
0.435,58.67
0.43109,58.67
0.42717,58.67
0.42326,59.257
0.42033,60.626
0.41642,63.559
0.41251,68.253
0.40762,74.316
0.40371,81.356
0.39883,88.788
0.39492,95.828
0.39101,102.48
0.3871,108.34
0.38319,113.23
0.3783,116.95
0.37439,119.49
0.3695,120.86
0.36559,121.25
0.35973,120.86
0.35484,119.69
0.34995,118.12
0.34409,116.17
0.34018,113.82
0.33627,111.28
0.33333,108.34
0.32942,105.02
0.32258,101.3
0.31672,97.588
0.31281,93.481
0.30694,89.765
0.3001,86.245
0.29326,83.116
0.28935,80.574
0.28543,78.422
0.28348,76.662
0.28446,75.293
0.29032,74.316
0.30303,73.533
0.32356,72.947
0.34213,72.555
0.37439,72.36
0.4262,72.164
0.47898,72.164
0.53079,72.164
0.57967,71.969
0.62463,71.969
0.66276,71.969
0.6911,71.773
0.71261,71.578
0.73021,71.382
0.74389,70.991
0.75171,70.6
0.75562,70.209
0.75562,69.818
0.74976,69.426
0.74096,68.84
0.72727,68.449
0.71065,68.057
0.6911,67.471
0.66764,67.08
0.64614,66.688
0.62366,66.297
0.59922,65.906
0.5738,65.319
0.54741,64.928
0.52297,64.537
0.50049,63.95
0.47898,63.559
0.46041,62.973
0.44379,62.386
0.42913,61.799
0.4174,61.408
0.40762,60.821
0.40078,60.235
0.39394,59.844
0.3871,59.452
0.38221,58.866
0.37732,58.475
0.37243,58.279
0.36852,58.083
0.36461,58.083
0.36168,58.279
0.35777,59.061
0.35484,61.017
0.35093,64.537
0.348,69.622
0.34604,76.271
0.34213,83.312
0.3392,90.548
0.33529,97.393
0.33138,103.65
0.32747,108.93
0.32356,113.43
0.31965,116.56
0.31574,118.71
0.31183,119.69
0.3089,119.88
0.30596,119.1
0.30303,117.93
0.3001,116.17
0.29619,113.82
0.29228,111.28
0.28837,108.34
0.28446,105.22
0.27957,101.5
0.27566,97.784
0.27175,93.677
0.26784,89.765
0.26393,86.245
0.26002,82.921
0.25709,80.378
0.25513,78.031
0.25318,76.271
0.25415,74.707
0.25806,73.729
0.26784,72.751
0.28446,72.164
0.31085,71.773
0.34604,71.578
0.38807,71.382
0.43695,71.186
0.48778,70.991
0.53177,70.991
0.57087,70.991
0.61095,70.795
0.64809,70.795
0.67937,70.795
0.70577,70.6
0.72434,70.404
0.73803,70.013
0.74487,69.818
0.7478,69.426
0.74487,69.035
0.73705,68.449
0.72532,68.057
0.71163,67.666
0.69501,67.275
0.67546,66.688
0.652,66.297
0.62757,65.906
0.60117,65.515
0.5738,64.928
0.54741,64.537
0.52199,64.146
0.49853,63.559
0.47703,63.168
0.45748,62.582
0.44184,62.19
0.42913,61.604
0.4174,61.017
0.40665,60.626
0.39687,60.039
0.38807,59.648
0.38123,59.061
0.37537,58.67
0.37048,58.279
0.36559,57.888
0.36168,57.692
0.35777,57.692
0.35484,57.692
0.35288,58.279
0.35093,59.452
0.348,61.799
0.34506,65.906
0.34213,71.382
0.33822,77.836
0.33529,84.681
0.33138,91.33
0.32747,97.588
0.32356,103.26
0.32063,108.15
0.31672,111.86
0.31378,114.6
0.31183,116.17
0.3089,116.75
0.30596,116.56
0.30205,115.58
0.29814,114.21
0.29423,112.26
0.29032,109.91
0.28641,107.17
0.2825,104.04
0.27859,100.52
0.27468,96.61
0.27077,92.699
0.26882,88.788
0.26588,85.072
0.26295,81.943
0.26002,79.205
0.25709,76.858
0.25415,75.098
0.25318,73.729
0.25513,72.555
0.26197,71.773
0.27468,71.186
0.29619,70.795
0.32649,70.6
0.35777,70.404
0.39296,70.209
0.43597,70.209
0.48387,70.013
0.53177,70.013
0.57869,70.013
0.62072,70.013
0.65689,69.818
0.68622,69.818
0.7087,69.622
0.72532,69.231
0.73509,69.035
0.73998,68.644
0.739,68.253
0.73412,67.862
0.72532,67.471
0.71261,67.08
0.69599,66.493
0.67644,66.102
0.65396,65.711
0.6217,65.319
0.58456,64.928
0.55425,64.537
0.52688,64.146
0.50244,63.755
0.48192,63.168
0.4653,62.777
0.4477,62.386
0.43206,61.799
0.41838,61.213
0.40567,60.821
0.39589,60.235
0.3871,59.844
0.37928,59.452
0.37341,58.866
0.36755,58.279
0.36364,58.083
0.35973,57.692
0.35679,57.301
0.35484,57.106
0.35191,57.301
0.34995,57.692
0.34702,58.67
0.34409,60.821
0.34115,64.537
0.33822,69.622
0.33529,76.076
0.33236,83.116
0.32942,89.961
0.32649,96.61
0.32454,102.48
0.32258,107.76
0.31965,111.86
0.31672,114.99
0.31378,116.95
0.31085,117.93
0.30792,117.93
0.30401,117.14
0.30108,115.97
0.29814,114.02
0.29423,111.86
0.29032,109.32
0.28837,106.39
0.28641,102.87
0.28348,99.153
0.28055,95.241
0.27664,91.33
0.2737,87.419
0.27077,84.094
0.26686,80.965
0.26393,78.422
0.261,76.271
0.25904,74.707
0.261,73.338
0.26588,72.164
0.27468,71.578
0.28837,70.991
0.31085,70.6
0.34115,70.404
0.3783,70.404
0.42229,70.209
0.46823,70.209
0.51515,70.209
0.55914,70.209
0.6002,70.209
0.63441,70.209
0.66373,70.209
0.68328,70.013
0.69697,69.818
0.70772,69.622
0.71457,69.426
0.71652,69.035
0.71457,68.644
0.7087,68.253
0.69795,67.862
0.68426,67.471
0.66667,67.275
0.64712,66.884
0.62366,66.493
0.6002,66.102
0.57771,65.711
0.55621,65.319
0.53275,64.928
0.51026,64.537
0.48778,64.146
0.46823,63.755
0.44966,63.168
0.43304,62.777
0.41935,62.19
0.40762,61.799
0.39785,61.408
0.38905,60.821
0.38221,60.43
0.37732,60.039
0.37341,59.648
0.36852,59.257
0.36559,58.866
0.36168,58.67
0.35875,58.67
0.35679,59.061
0.35386,59.844
0.35093,61.799
0.348,65.515
0.34604,70.6
0.34311,77.249
0.34115,84.289
0.3392,91.525
0.33724,98.175
0.33431,104.43
0.33236,109.91
0.32942,114.21
0.32649,117.54
0.32356,119.49
0.3216,120.67
0.31867,120.67
0.31574,119.88
0.31281,118.71
0.31085,116.95
0.3089,114.8
0.30596,112.45
0.30401,109.91
0.30108,106.78
0.29814,103.46
0.29521,99.739
0.29228,96.024
0.28935,92.112
0.28543,88.592
0.2825,85.267
0.27957,82.725
0.27761,80.378
0.27664,78.422
0.27761,76.858
0.28152,75.88
0.28935,74.902
0.30499,74.316
0.32845,73.924
0.35973,73.533
0.39785,73.533
0.44184,73.338
0.48876,73.338
0.53568,73.338
0.58162,73.338
0.61779,73.338
0.64614,73.142
0.67449,72.947
0.69795,72.751
0.7175,72.555
0.73021,72.164
0.739,71.969
0.74291,71.578
0.74194,70.991
0.73705,70.6
0.72825,70.209
0.71554,69.818
0.6999,69.426
0.68328,69.035
0.66569,68.449
0.64516,68.057
0.62268,67.666
0.59922,67.275
0.57576,66.884
0.5523,66.297
0.53079,65.906
0.51124,65.515
0.49365,64.928
0.47801,64.342
0.46334,63.755
0.45259,63.168
0.44379,62.582
0.43597,61.995
0.42913,61.408
0.42326,61.017
0.4174,60.43
0.41349,59.844
0.40958,59.452
0.40567,59.061
0.40176,59.061
0.39883,59.257
0.39589,60.235
0.39296,62.582
0.39003,66.493
0.3871,72.36
0.38514,79.596
0.38123,87.223
0.3783,94.85
0.37537,101.89
0.37146,108.34
0.36852,113.82
0.36461,118.32
0.36168,121.45
0.35777,123.21
0.35484,123.99
0.35191,123.99
0.34995,123.01
0.34604,121.64
0.34311,119.88
0.3392,117.73
0.33529,115.38
0.33138,112.65
0.32747,109.52
0.32356,106.19
0.31965,102.48
0.31574,98.566
0.31183,94.459
0.30792,90.548
0.30401,87.027
0.30108,83.898
0.29814,81.356
0.29423,79.205
0.29326,77.64
0.29619,76.271
0.30499,75.293
0.3216,74.511
0.34604,73.924
0.3783,73.533
0.4174,73.338
0.46237,73.142
0.50244,73.142
0.53959,72.947
0.57967,72.947
0.61877,72.751
0.65298,72.751
0.68133,72.555
0.70381,72.36
0.72043,71.969
0.73118,71.773
0.73705,71.382
0.73803,70.795
0.73509,70.404
0.72825,70.013
0.71848,69.426
0.70674,68.84
0.6911,68.449
0.67253,67.862
0.652,67.471
0.62854,67.08
0.60411,66.688
0.57869,66.102
0.55327,65.711
0.52884,65.319
0.50635,64.733
0.48387,64.342
0.46628,63.755
0.45161,63.168
0.43695,62.777
0.42424,62.19
0.41251,61.604
0.40274,61.017
0.39394,60.626
0.38612,60.039
0.38025,59.648
0.37439,59.061
0.3695,58.67
0.36559,58.279
0.36168,58.083
0.35875,58.083
0.35484,58.475
0.34897,59.648
0.34409,61.799
0.3392,65.906
0.33529,71.773
0.33138,78.814
0.32649,86.441
0.32258,93.872
0.31867,100.91
0.31476,107.17
0.31085,112.65
0.30792,116.95
0.30499,119.88
0.30205,121.64
0.29912,122.43
0.29521,122.43
0.2913,121.45
0.28837,119.88
0.28446,117.93
0.28055,115.78
0.27664,113.23
0.27273,110.3
0.26882,106.98
0.26588,103.46
0.26393,99.544
0.261,95.437
0.25806,91.525
0.25415,87.614
0.25024,84.289
0.24731,81.16
0.2434,78.814
0.24145,76.662
0.24145,75.098
0.24633,73.924
0.25709,73.142
0.27664,72.36
0.29912,71.969
0.32649,71.578
0.36461,71.382
0.4086,71.382
0.45748,71.186
0.50635,71.186
0.5523,71.186
0.59531,71.186
0.63148,70.991
0.6608,70.795
0.68426,70.6
0.70088,70.404
0.70968,70.209
0.71359,69.818
0.71457,69.426
0.71261,69.035
0.70577,68.644
0.69599,68.057
0.68231,67.666
0.66569,67.08
0.64614,66.688
0.62366,66.297
0.59922,65.906
0.5738,65.319
0.54741,64.928
0.52493,64.537
0.50342,63.95
0.48192,63.364
0.46041,62.973
0.44086,62.386
0.42326,61.995
0.4086,61.408
0.39492,60.821
0.38319,60.43
0.37341,59.844
0.36559,59.452
0.35875,59.061
0.35386,58.475
0.34995,58.083
0.34604,57.692
0.34311,57.301
0.3392,57.106
0.33627,57.106
0.33333,57.301
0.3304,58.279
0.32649,59.844
0.32356,63.168
0.32063,68.057
0.31672,74.511
0.31281,81.747
0.30987,88.983
0.30792,95.828
0.30499,102.09
0.30205,107.56
0.29814,112.26
0.29521,115.58
0.2913,117.93
0.28837,118.9
0.28446,119.1
0.28055,118.51
0.27761,117.14
0.2737,115.38
0.27077,113.23
0.26882,110.69
0.26588,107.76
0.26295,104.63
0.25904,100.91
0.25611,97.001
0.25318,92.894
0.24927,88.983
0.24633,85.267
0.24242,81.943
0.23949,79.205
0.23656,76.858
0.23363,75.098
0.23363,73.533
0.23656,72.36
0.24438,71.578
0.25709,70.991
0.27859,70.6
0.30792,70.404
0.34604,70.209
0.38905,70.013
0.43695,70.013
0.48583,69.818
0.53275,69.818
0.57674,69.818
0.60997,69.818
0.63636,69.622
0.6608,69.426
0.68035,69.231
0.69404,69.035
0.70381,68.84
0.70772,68.449
0.70674,67.862
0.70186,67.471
0.69208,67.08
0.67937,66.688
0.66178,66.102
0.64223,65.711
0.6217,65.319
0.60117,64.928
0.57771,64.537
0.5523,63.95
0.52786,63.559
0.50244,63.168
0.47898,62.777
0.45748,62.19
0.43891,61.799
0.42131,61.213
0.40665,60.821
0.39394,60.235
0.38416,59.844
0.37634,59.257
0.3695,58.67
0.36266,58.279
0.35777,57.888
0.35288,57.301
0.348,56.91
0.34506,56.715
0.34213,56.519
0.3392,56.323
0.33627,56.519
0.33333,57.301
0.3304,58.866
0.32747,61.799
0.32551,66.493
0.32356,72.751
0.32063,79.596
0.31672,86.832
0.31378,93.481
0.31085,99.935
0.30694,105.41
0.30401,110.1
0.3001,113.62
0.29717,116.17
0.29326,117.54
0.2913,117.93
0.28935,117.34
0.28641,116.17
0.28348,114.41
0.27957,112.26
0.27664,109.71
0.27273,106.98
0.26882,103.65
0.26491,100.13
0.26197,96.219
0.25806,92.308
0.25513,88.396
0.2522,84.681
0.24927,81.552
0.24731,78.618
0.24536,76.467
0.24242,74.511
0.24145,72.947
0.2434,71.773
0.24927,70.991
0.26197,70.404
0.28348,69.818
0.31281,69.622
0.34995,69.231
0.39394,69.231
0.435,69.231
0.47507,69.035
0.51808,69.035
0.56207,69.035
0.60117,69.035
0.63636,68.84
0.66471,68.84
0.68622,68.644
0.70283,68.449
0.71261,68.057
0.7175,67.666
0.71652,67.275
0.71163,66.884
0.70381,66.493
0.69208,66.102
0.67644,65.711
0.65787,65.319
0.63636,64.733
0.6129,64.342
0.58749,63.95
0.56207,63.559
0.53666,62.973
0.51124,62.582
0.48778,62.19
0.46628,61.604
0.44868,61.213
0.43402,60.821
0.41935,60.235
0.40665,59.844
0.39492,59.452
0.38416,58.866
0.37634,58.475
0.36852,58.083
0.36266,57.497
0.35777,57.106
0.35288,56.715
0.34897,56.323
0.34702,56.128
0.34409,55.932
0.34213,56.128
0.3392,56.715
0.33627,58.279
0.33431,61.213
0.33138,65.711
0.32747,71.773
0.32454,78.814
0.3216,86.05
0.31769,93.09
0.31476,99.544
0.31085,105.41
0.30792,110.1
0.30596,113.82
0.30303,116.36
0.3001,117.73
0.29619,118.12
0.29326,117.73
0.28935,116.75
0.28641,114.99
0.28739,113.04
0.29032,110.5
0.29032,107.76
0.28837,104.63
0.28739,101.11
0.28543,97.197
0.2825,93.286
0.27957,89.179
0.27664,85.658
0.27273,82.138
0.26882,79.4
0.26588,76.858
0.26295,74.902
0.261,73.142
0.26295,71.969
0.26979,70.795
0.28348,70.209
0.30108,69.622
0.32454,69.426
0.35875,69.035
0.3998,69.035
0.4477,68.84
0.49756,68.84
0.54741,68.84
0.59531,68.84
0.63734,68.644
0.67449,68.644
0.70381,68.449
0.7263,68.449
0.74096,68.057
0.74878,67.862
0.75367,67.471
0.75464,67.08
0.75073,66.688
0.74291,66.297
0.73118,65.906
0.71554,65.319
0.69697,64.928
0.67449,64.537
0.65005,64.146
0.62463,63.755
0.59726,63.168
0.5738,62.973
0.55132,62.386
0.52884,61.995
0.50538,61.408
0.48485,61.017
0.4653,60.43
0.4477,60.039
0.43304,59.452
0.42033,59.061
0.4086,58.475
0.3998,58.083
0.39198,57.692
0.38612,57.106
0.38123,56.715
0.37732,56.323
0.37341,55.932
0.3695,55.541
0.36657,55.346
0.36364,55.541
0.3607,56.128
0.35777,57.497
0.35484,60.235
0.35093,64.733
0.348,70.795
0.34506,78.031
0.34213,85.267
0.3392,92.112
0.33627,98.761
0.33333,104.63
0.32942,109.52
0.32649,113.23
0.32258,115.97
0.31965,117.54
0.31574,118.12
0.31281,117.93
0.3089,116.75
0.30596,115.19
0.30303,113.43
0.30108,111.08
0.29814,108.54
0.29423,105.61
0.29032,102.28
0.28641,98.566
0.28348,94.85
0.27957,90.939
0.27566,87.027
0.27175,83.507
0.26784,80.378
0.26491,77.64
0.261,75.489
0.26002,73.729
0.261,72.36
0.26588,71.186
0.27566,70.404
0.29423,69.818
0.32063,69.426
0.35582,69.231
0.39883,69.035
0.4477,69.035
0.49853,69.035
0.54839,69.035
0.59629,69.035
0.63441,69.035
0.66471,69.035
0.69306,69.035
0.71652,68.84
0.73509,68.644
0.74878,68.449
0.75562,68.057
0.75758,67.862
0.75562,67.471
0.7478,67.08
0.73705,66.688
0.72239,66.297
0.70381,65.906
0.68524,65.319
0.66471,64.928
0.64125,64.537
0.61584,64.146
0.58944,63.755
0.56305,63.364
0.53763,62.973
0.5132,62.386
0.49169,61.995
0.47116,61.408
0.45357,61.017
0.43793,60.626
0.4262,60.039
0.41642,59.648
0.40762,59.257
0.39883,58.67
0.39198,58.279
0.38612,57.888
0.38123,57.497
0.37732,56.91
0.37341,56.715
0.37048,56.519
0.36755,56.519
0.36559,56.91
0.36266,57.888
0.3607,60.235
0.35875,64.342
0.35679,70.013
0.35386,77.054
0.35093,84.485
0.348,91.721
0.34506,98.566
0.34213,104.63
0.3392,109.91
0.33627,114.02
0.33333,117.14
0.3304,118.9
0.32845,119.69
0.32649,119.49
0.32454,118.71
0.3216,117.34
0.31867,115.58
0.31574,113.62
0.31281,111.28
0.31085,108.54
0.30792,105.41
0.30499,102.09
0.30205,98.37
0.29912,94.655
0.29619,90.743
0.29423,87.027
0.29326,83.898
0.29032,80.965
0.28739,78.422
0.28543,76.662
0.28543,75.098
0.28935,73.729
0.29912,72.947
0.31672,72.164
0.34213,71.773
0.37732,71.382
0.41935,71.186
0.46041,71.186
0.50049,71.186
0.54643,71.186
0.59433,71.186
0.63832,71.186
0.67742,70.991
0.71065,70.991
0.73803,70.6
0.75758,70.404
0.77126,70.013
0.78006,69.622
0.78299,69.035
0.78104,68.644
0.77615,68.057
0.76735,67.471
0.75464,66.884
0.73998,66.297
0.72141,65.711
0.6999,65.124
0.67742,64.733
0.65298,64.342
0.62659,63.755
0.60117,63.364
0.57674,62.973
0.55327,62.582
0.53275,61.995
0.51515,61.604
0.49853,61.213
0.48289,60.821
0.46823,60.235
0.4565,59.648
0.44673,59.061
0.43793,58.67
0.43109,58.083
0.42424,57.692
0.41935,57.106
0.41447,56.715
0.41153,56.323
0.4086,55.932
0.40567,55.737
0.40176,55.737
0.39883,56.323
0.39492,57.692
0.39101,60.626
0.3871,65.319
0.38319,71.578
0.37928,78.814
0.37439,86.245
0.37048,93.481
0.36559,99.935
0.36168,105.8
0.35875,110.69
0.35484,114.41
0.34995,116.75
0.34604,118.12
0.34213,118.51
0.33724,117.93
0.33333,116.75
0.32942,114.99
0.32454,113.04
0.32063,110.69
0.31672,108.15
0.31281,105.22
0.30987,101.89
0.30596,98.37
0.30205,94.655
0.29717,90.743
0.29326,86.832
0.28837,83.312
0.28348,80.183
0.27859,77.64
0.27468,75.293
0.27175,73.533
0.27175,72.164
0.27664,71.186
0.28543,70.404
0.3001,69.818
0.32063,69.426
0.34702,69.231
0.38416,69.035
0.4262,68.84
0.47214,68.84
0.51808,68.84
0.56207,68.644
0.6002,68.644
0.63343,68.449
0.65982,68.253
0.6784,68.057
0.69013,67.666
0.69892,67.275
0.70381,66.884
0.70479,66.493
0.70088,66.102
0.69404,65.515
0.68426,65.124
0.67058,64.537
0.65396,64.146
0.63441,63.755
0.6129,63.168
0.58944,62.973
0.56794,62.386
0.54741,61.995
0.52493,61.604
0.50244,61.213
0.48094,60.821
0.46041,60.235
0.44184,59.844
0.42522,59.452
0.41056,58.866
0.39883,58.475
0.38807,57.888
0.37928,57.301
0.37243,56.91
0.36755,56.519
0.36266,55.932
0.35777,55.541
0.35386,55.15
0.34995,54.759
0.34604,54.563
0.34311,54.368
0.34018,54.368
0.33724,54.563
0.33431,55.541
0.3304,57.692
0.32747,61.408
0.32454,66.688
0.32258,73.338
0.31867,80.378
0.31574,87.419
0.31183,93.872
0.30792,99.739
0.30499,104.82
0.30108,108.74
0.29814,111.67
0.29423,113.43
0.2913,114.21
0.28837,114.02
0.28543,113.23
0.28446,111.67
0.28152,109.71
0.27859,107.37
0.27566,104.82
0.27175,101.69
0.26784,98.37
0.26491,94.85
0.261,90.939
0.25806,87.223
0.25415,83.507
0.25122,80.183
0.24829,77.249
0.24536,74.902
0.24438,72.947
0.24242,71.186
0.24145,70.013
0.24242,69.035
0.24927,68.253
0.26197,67.666
0.28348,67.275
0.31281,67.08
0.34897,66.884
0.39198,66.688
0.43793,66.493
0.47898,66.493
0.51515,66.493
0.55425,66.297
0.58944,66.297
0.62072,66.102
0.64614,65.906
0.66569,65.711
0.67937,65.515
0.68719,65.124
0.69013,64.733
0.68915,64.342
0.68328,63.95
0.67351,63.559
0.66178,62.973
0.64712,62.582
0.6305,62.19
0.60997,61.799
0.58749,61.408
0.56403,61.017
0.54057,60.43
0.51711,60.039
0.49365,59.648
0.47214,59.257
0.45259,58.866
0.43402,58.475
0.42033,57.888
0.4086,57.497
0.39687,56.91
0.3871,56.519
0.37732,56.128
0.3695,55.541
0.36266,55.15
0.35679,54.759
0.35191,54.368
0.348,53.977
0.34409,53.585
0.34115,53.39
0.33822,53.194
0.33627,53.194
0.33431,53.39
0.33236,53.977
0.32942,55.541
0.32649,58.279
0.32356,62.777
0.32063,68.449
0.31672,74.902
0.31378,81.356
0.30987,87.614
0.30694,93.09
0.30401,97.979
0.30108,102.09
0.29912,105.22
0.29717,107.17
0.29423,108.34
0.2913,108.34
0.28739,107.76
0.28446,106.58
0.28152,104.63
0.27859,102.48
0.27468,99.739
0.27175,96.806
0.26882,93.481
0.26491,89.961
0.26295,86.245
0.261,82.529
0.25806,79.205
0.25513,76.271
0.2522,73.729
0.24927,71.578
0.24633,69.818
0.2434,68.449
0.24242,67.275
0.2434,66.297
0.24829,65.711
0.25904,65.319
0.2737,64.928
0.29326,64.733
0.32258,64.537
0.35777,64.342
0.3998,64.342
0.44379,64.342
0.48778,64.146
0.52981,64.146
0.56794,64.146
0.60117,63.95
0.62757,63.755
0.64809,63.559
0.6608,63.364
0.66862,62.973
0.67253,62.777
0.67253,62.386
0.66862,61.995
0.6608,61.604
0.64907,61.213
0.63343,60.821
0.61584,60.43
0.59531,60.039
0.57283,59.844
0.55034,59.452
0.52786,59.061
0.50733,58.67
0.48876,58.279
0.47019,58.083
0.45161,57.497
0.435,57.106
0.42033,56.715
0.40665,56.323
0.39492,55.737
0.38514,55.346
0.37634,54.759
0.3695,54.368
0.36266,53.977
0.35875,53.585
0.35484,53.194
0.35191,52.803
0.348,52.412
0.34506,52.216
0.34311,52.021
0.34018,52.021
0.33724,52.216
0.33529,52.803
0.33236,54.563
0.32942,57.497
0.32649,62.19
0.32356,68.057
0.3216,74.707
0.31965,81.16
0.31769,87.419
0.31476,92.894
0.31183,97.979
0.30987,101.89
0.30694,105.02
0.30401,106.98
0.30108,108.15
0.29912,108.34
0.29619,107.76
0.29326,106.39
0.2913,104.63
0.28935,102.48
0.28641,99.935
0.28348,97.001
0.28055,93.677
0.27664,90.352
0.2737,86.636
0.27077,82.921
0.26686,79.4
0.26393,76.467
0.261,73.729
0.25709,71.382
0.25415,69.622
0.2522,68.057
0.25122,66.884
0.2522,65.906
0.25611,65.319
0.26588,64.733
0.2825,64.537
0.30694,64.146
0.3392,63.95
0.37732,63.95
0.42131,63.95
0.46725,63.755
0.51222,63.755
0.54936,63.755
0.58065,63.755
0.61193,63.559
0.6393,63.364
0.66178,63.364
0.6784,62.973
0.68915,62.777
0.69501,62.582
0.69599,62.19
0.70186,61.799
0.7087,61.408
0.70283,61.017
0.69013,60.626
0.67449,60.235
0.65689,59.844
0.63539,59.648
0.61193,59.257
0.58651,58.866
0.56207,58.475
0.53763,58.083
0.51417,57.692
0.49365,57.301
0.4741,56.91
0.45748,56.323
0.44282,55.932
0.43109,55.541
0.42131,55.15
0.41251,54.563
0.40371,54.172
0.39687,53.781
0.39003,53.39
0.38514,52.999
0.38025,52.608
0.37634,52.216
0.37243,52.021
0.3695,51.825
0.36657,51.63
0.36364,52.021
0.36168,52.608
0.35973,54.368
0.35679,57.497
0.35386,62.386
0.35093,68.644
0.348,75.098
0.34506,81.747
0.34115,87.81
0.33822,93.481
0.33529,98.175
0.33138,102.28
0.32845,105.22
0.32649,107.17
0.32454,108.34
0.3216,108.54
0.31867,107.95
0.31574,106.78
0.31281,105.22
0.3089,103.06
0.30596,100.52
0.30205,97.784
0.29814,94.459
0.29423,91.134
0.2913,87.419
0.28739,83.898
0.28446,80.378
0.2825,77.249
0.28055,74.511
0.27664,72.164
0.2737,70.209
0.27077,68.644
0.26882,67.471
0.26882,66.297
0.27468,65.711
0.28641,65.124
0.30596,64.733
0.33431,64.537
0.36461,64.146
0.39883,64.146
0.44184,63.95
0.48974,63.95
0.53861,63.95
0.58456,63.95
0.62757,63.95
0.66373,63.755
0.69501,63.559
0.71848,63.364
0.73509,63.168
0.74682,62.973
0.75171,62.582
0.75171,62.19
0.7478,61.799
0.73998,61.408
0.72825,61.017
0.71359,60.626
0.69501,60.235
0.67351,59.844
0.65005,59.648
0.62463,59.257
0.59922,58.866
0.5738,58.475
0.54936,58.083
0.52884,57.692
0.51026,57.301
0.49169,56.91
0.4741,56.519
0.45748,55.932
0.44379,55.541
0.43109,55.15
0.42033,54.563
0.41153,54.172
0.40371,53.781
0.39687,53.39
0.39101,52.999
0.38612,52.608
0.38319,52.216
0.38025,52.021
0.37732,51.825
0.37439,51.825
0.37146,52.216
0.36852,53.194
0.36559,55.541
0.36266,59.257
0.35875,64.733
0.35582,71.186
0.35191,78.031
0.34897,84.681
0.34604,90.743
0.34409,96.415
0.34115,101.11
0.33822,105.02
0.33529,107.76
0.33138,109.52
0.32845,110.5
0.32551,110.5
0.32258,109.71
0.31867,108.34
0.31574,106.58
0.31183,104.63
0.30987,102.09
0.30694,99.348
0.30401,96.219
0.30108,92.894
0.29717,89.374
0.29423,85.658
0.29032,82.138
0.28739,79.009
0.28348,76.271
0.27957,73.729
0.27566,71.773
0.27273,70.209
0.27175,69.035
0.2737,68.057
0.27957,67.275
0.29228,66.884
0.31183,66.297
0.34115,66.102
0.3783,65.906
0.42326,65.906
0.47214,65.906
0.52395,65.906
0.5738,65.906
0.61975,65.906
0.6608,65.906
0.69208,65.906
0.71457,65.711
0.73509,65.515
0.75171,65.124
0.76246,64.928
0.76833,64.537
0.77028,64.146
0.76637,63.755
0.75855,63.364
0.74682,62.973
0.73118,62.582
0.71261,62.386
0.6911,61.995
0.6696,61.604
0.64809,61.213
0.62463,61.017
0.6002,60.626
0.57576,60.235
0.5523,59.844
0.52981,59.452
0.51026,58.866
0.49169,58.475
0.47605,58.083
0.46237,57.497
0.45064,57.106
0.44184,56.715
0.435,56.323
0.42913,55.737
0.42326,55.346
0.41838,54.954
0.41447,54.759
0.41056,54.368
0.40762,54.172
0.40469,53.977
0.40176,54.172
0.39883,54.759
0.39589,56.519
0.39394,59.452
0.39101,64.342
0.38905,70.6
0.3871,77.64
0.38416,84.681
0.38123,91.134
0.3783,97.001
0.37537,102.28
0.37243,106.39
0.37048,109.71
0.36755,111.67
0.36461,112.84
0.36168,112.84
0.35973,112.26
0.35875,111.08
0.35582,109.32
0.35288,107.37
0.34995,105.22
0.34702,102.67
0.34409,99.739
0.34115,96.61
0.33822,93.286
0.33431,89.57
0.33138,86.05
0.32845,82.725
0.32551,79.791
0.32356,77.054
0.3216,74.707
0.31867,72.947
0.31672,71.382
0.31769,70.209
0.3216,69.231
0.33138,68.449
0.34897,68.057
0.37537,67.666
0.40958,67.471
0.45161,67.471
0.49853,67.275
0.54154,67.275
0.58065,67.275
0.62268,67.08
0.66373,67.08
0.6999,66.688
0.73021,66.493
0.75367,66.102
0.77126,65.906
0.78397,65.515
0.78983,64.928
0.79179,64.537
0.78886,64.146
0.78104,63.559
0.77126,63.168
0.75855,62.777
0.74291,62.19
0.72336,61.799
0.70186,61.408
0.67937,61.017
0.65494,60.626
0.62952,60.235
0.60508,59.844
0.58162,59.452
0.55914,59.061
0.53861,58.475
0.52199,58.083
0.50733,57.692
0.49365,57.106
0.47312,56.715
0.45161,56.128
0.43695,55.737
0.4262,55.15
0.4174,54.759
0.41056,54.368
0.40469,53.977
0.3998,53.585
0.39492,53.39
0.39101,52.999
0.3871,52.999
0.38416,53.194
0.38025,53.977
0.37537,55.737
0.37048,59.061
0.36559,64.146
0.3607,70.6
0.35582,77.445
0.35093,84.485
0.34604,90.939
0.34115,96.806
0.33724,101.69
0.33333,105.8
0.3304,108.74
0.32649,110.5
0.32258,111.28
0.31867,111.28
0.31378,110.5
0.30987,109.13
0.30596,107.17
0.30205,105.02
0.29814,102.67
0.29326,99.739
0.28935,96.61
0.28543,93.286
0.2825,89.57
0.28055,86.05
0.27761,82.529
0.2737,79.4
0.27077,76.467
0.26686,73.924
0.26295,71.969
0.25904,70.209
0.25611,69.035
0.25709,67.862
0.261,67.08
0.27175,66.493
0.28739,65.906
0.30694,65.711
0.33724,65.515
0.37439,65.319
0.41838,65.319
0.46432,65.124
0.51026,65.124
0.55425,65.124
0.59335,64.928
0.62659,64.733
0.65396,64.733
0.67449,64.537
0.68915,64.146
0.69697,63.755
0.6999,63.364
0.6999,62.973
0.69599,62.777
0.68915,62.386
0.6784,61.799
0.66373,61.408
0.64712,61.017
0.62757,60.626
0.60508,60.235
0.5826,59.844
0.55914,59.648
0.53763,59.257
0.51808,58.866
0.49853,58.279
0.47801,57.888
0.45943,57.497
0.44184,56.91
0.4262,56.519
0.41349,56.128
0.40176,55.541
0.39198,55.15
0.38416,54.563
0.37634,54.172
0.37048,53.781
0.36559,53.39
0.36266,52.999
0.35875,52.608
0.35484,52.216
0.35093,52.021
0.348,52.021
0.34409,52.216
0.34115,52.803
0.33822,54.368
0.33431,57.301
0.33138,61.604
0.32747,67.471
0.32551,73.729
0.32258,80.183
0.31965,86.245
0.31672,91.721
0.31281,96.415
0.30987,100.33
0.30596,103.06
0.30303,105.02
0.3001,106
0.29619,106
0.29326,105.41
0.29032,104.04
0.28739,102.28
0.28543,100.13
0.2825,97.393
0.27957,94.459
0.27566,91.33
0.27273,87.81
0.26882,84.289
0.26588,80.574
0.26197,77.445
0.25904,74.511
0.25513,72.164
0.2522,70.013
0.24829,68.253
0.24633,67.08
0.24536,65.906
0.24536,65.124
0.24829,64.537
0.25611,63.95
0.26979,63.559
0.2913,63.364
0.32063,63.168
0.35679,63.168
0.39883,62.973
0.44282,62.973
0.48778,62.973
0.52493,62.777
0.55621,62.777
0.58749,62.582
0.61486,62.582
0.63734,62.386
0.65494,61.995
0.66667,61.799
0.67253,61.408
0.67351,61.213
0.6696,60.821
0.66178,60.43
0.65005,60.039
0.63539,59.844
0.61975,59.452
0.60215,59.061
0.58162,58.67
0.56012,58.279
0.53763,58.083
0.51515,57.692
0.49267,57.301
0.47214,56.91
0.45357,56.519
0.43597,56.128
0.42033,55.541
0.40762,55.346
0.39687,54.759
0.38807,54.368
0.38025,53.781
0.37243,53.39
0.36657,52.999
0.3607,52.608
0.35582,52.216
0.35191,51.825
0.348,51.434
0.34506,51.239
0.34213,51.043
0.3392,51.043
0.33627,51.434
0.33431,52.216
0.33236,53.781
0.3304,56.91
0.32747,61.408
0.32551,67.275
0.32258,73.533
0.31965,79.791
0.31672,85.463
0.31378,90.743
0.31085,95.046
0.30792,98.761
0.30499,101.5
0.30303,103.06
0.30205,104.04
0.29912,104.04
0.29717,103.26
0.29423,101.89
0.29032,99.935
0.28739,97.784
0.28446,95.046
0.28152,92.112
0.27761,88.983
0.27468,85.463
0.27175,81.943
0.26882,78.618
0.26588,75.489
0.26491,72.947
0.26197,70.6
0.25904,68.84
0.25611,67.275
0.25318,65.906
0.25122,65.124
0.25122,64.342
0.25611,63.755
0.26491,63.168
0.28152,62.973
0.30596,62.777
0.33236,62.582
0.36266,62.386
0.40078,62.386
0.44379,62.386
0.48778,62.19
0.52981,62.19
0.56891,61.995
0.60313,61.799
0.63148,61.604
0.65298,61.408
0.66862,61.408
0.67937,61.017
0.68426,60.821
0.68328,60.43
0.67937,60.039
0.67155,59.844
0.65982,59.452
0.64516,59.257
0.62757,58.866
0.60802,58.475
0.58651,58.279
0.56403,57.888
0.54057,57.497
0.51808,57.301
0.49658,56.91
0.47898,56.519
0.46334,56.128
0.4477,55.541
0.43304,55.15
0.41935,54.759
0.40762,54.368
0.39785,53.781
0.38905,53.39
0.38123,52.999
0.37439,52.608
0.36852,52.216
0.36364,51.825
0.35973,51.434
0.35679,51.239
0.35386,50.847
0.35191,50.847
0.34897,51.043
0.34604,51.825
0.34311,53.194
0.34115,55.737
0.33822,59.844
0.33529,65.319
0.33529,71.578
0.33724,77.836
0.33627,83.898
0.33529,89.374
0.33431,94.068
0.33138,97.979
0.32942,101.11
0.32649,103.06
0.32356,104.24
0.32063,104.43
0.31769,104.04
0.31476,102.87
0.31085,101.3
0.30792,99.348
0.30401,96.806
0.3001,94.068
0.29814,90.939
0.29521,87.614
0.29228,84.094
0.28935,80.769
0.28543,77.445
0.2825,74.707
0.27859,72.164
0.27468,70.013
0.27175,68.253
0.26784,66.884
0.26588,65.906
0.26491,64.928
0.26784,64.342
0.27468,63.755
0.28739,63.364
0.30792,63.168
0.33822,62.973
0.37537,62.973
0.41935,62.777
0.46725,62.777
0.51613,62.777
0.56403,62.582
0.60802,62.582
0.64614,62.386
0.6784,62.386
0.70088,61.995
0.71652,61.799
0.72923,61.604
0.73705,61.213
0.73998,61.017
0.739,60.626
0.73216,60.235
0.72141,59.844
0.70577,59.648
0.68817,59.257
0.66667,59.061
0.64321,58.67
0.6217,58.279
0.6002,58.083
0.57674,57.692
0.55327,57.301
0.53079,56.91
0.50929,56.519
0.48876,56.128
0.47116,55.737
0.45552,55.346
0.44184,54.759
0.42913,54.368
0.41935,53.977
0.41056,53.585
0.40371,52.999
0.39785,52.608
0.39296,52.216
0.38807,52.021
0.38416,51.63
0.38025,51.434
0.37634,51.434
0.37341,51.63
0.3695,52.216
0.36657,53.585
0.36364,56.323
0.35973,60.626
0.35679,66.493
0.35484,72.947
0.35191,79.4
0.34897,85.658
0.34604,91.134
0.34311,96.024
0.3392,100.13
0.33627,103.26
0.33333,105.61
0.3304,106.98
0.32649,107.37
0.32356,106.98
0.3216,105.8
0.31965,104.24
0.31672,102.28
0.31378,99.935
0.30987,97.393
0.30694,94.263
0.30303,90.939
0.29912,87.419
0.29521,83.898
0.2913,80.574
0.28837,77.445
0.28446,74.707
0.28055,72.36
0.27761,70.404
0.27566,68.84
0.2737,67.471
0.27273,66.493
0.27468,65.711
0.28152,65.124
0.29619,64.537
0.31867,64.342
0.35093,64.146
0.39003,63.95
0.43695,63.95
0.4868,63.755
0.53079,63.755
0.57087,63.755
0.6129,63.755
0.652,63.559
0.68719,63.559
0.71652,63.364
0.73803,62.973
0.75464,62.777
0.76442,62.386
0.76931,62.19
0.76833,61.799
0.76149,61.408
0.75171,61.017
0.73803,60.626
0.72239,60.235
0.70283,60.039
0.68133,59.648
0.65689,59.452
0.63148,59.061
0.60606,58.67
0.57967,58.475
0.55523,58.083
0.53177,57.692
0.51026,57.301
0.49071,56.91
0.47507,56.519
0.46237,56.128
0.44966,55.737
0.43793,55.346
0.42717,54.954
0.41838,54.563
0.41056,54.172
0.40469,53.781
0.39883,53.39
0.39394,53.194
0.38905,52.999
0.38514,52.999
0.38123,53.194
0.3783,53.781
0.37634,55.346
0.37341,58.279
0.37048,62.777
0.36657,68.449
0.36364,75.098
0.35973,81.747
0.35582,88.005
0.35191,93.872
0.34897,98.761
0.34506,102.87
0.34213,106
0.3392,108.15
0.33724,109.32
0.33431,109.52
0.33236,109.13
0.32942,107.95
0.32551,106.39
0.32258,104.43
0.31965,102.28
0.31574,99.739
0.31281,96.806
0.3089,93.677
0.30596,90.352
0.30205,86.832
0.3001,83.507
0.29814,80.378
0.29521,77.445
0.29228,75.098
0.28837,73.142
0.28543,71.578
0.28348,70.209
0.28348,69.231
0.28641,68.449
0.29619,67.666
0.31281,67.275
0.33724,67.08
0.36559,66.884
0.39785,66.688
0.43988,66.688
0.48778,66.688
0.53861,66.493
0.58847,66.493
0.63441,66.493
0.67546,66.493
0.70968,66.297
0.73803,66.102
0.75953,65.906
0.77419,65.515
0.78299,65.319
0.78592,64.928
0.78397,64.537
0.77908,64.342
0.77028,63.95
0.75758,63.559
0.74096,63.168
0.72239,62.973
0.70088,62.582
0.67742,62.19
0.65298,61.799
0.62854,61.408
0.60411,61.017
0.58162,60.626
0.56207,60.235
0.54252,59.844
0.52395,59.452
0.50733,58.866
0.49169,58.475
0.47898,57.888
0.46823,57.497
0.45846,57.106
0.44966,56.715
0.44282,56.323
0.43793,55.932
0.43304,55.541
0.42913,55.346
0.4262,55.15
0.42326,55.15
0.42033,55.346
0.4174,56.323
0.41447,58.279
0.41153,61.995
0.4086,67.275
0.40567,73.729
0.40274,80.769
0.39883,87.614
0.39589,93.677
0.39296,99.348
0.39101,104.04
0.38807,107.95
0.38514,110.69
0.38221,112.45
0.3783,113.23
0.37537,113.04
0.37243,112.26
0.36852,110.89
0.36559,109.13
0.36168,107.17
0.35777,104.82
0.35386,102.28
0.35093,99.348
0.34897,96.024
0.34506,92.503
0.33724,88.983
0.32747,85.463
0.32063,82.138
0.31574,79.205
0.31085,76.662
0.30694,74.511
0.30401,72.751
0.30205,71.382
0.30205,70.404
0.30596,69.426
0.31476,68.84
0.32942,68.449
0.35288,68.057
0.38514,67.862
0.42424,67.666
0.46823,67.471
0.51515,67.471
0.56207,67.471
0.60606,67.471
0.64516,67.275
0.67937,67.08
0.70772,66.884
0.7263,66.493
0.73803,66.297
0.7478,65.906
0.75367,65.515
0.75562,65.124
0.75269,64.733
0.74585,64.342
0.73607,63.95
0.72239,63.364
