0.71457,71.382
0.6999,70.795
0.68426,70.209
0.66569,69.818
0.64516,69.231
0.62268,68.84
0.60117,68.253
0.58065,67.862
0.56207,67.275
0.54252,66.884
0.52395,66.102
0.50635,65.711
0.48974,64.928
0.47605,64.537
0.46334,63.755
0.45357,63.168
0.44477,62.777
0.43695,62.19
0.43109,61.604
0.4262,61.213
0.42229,60.626
0.41838,60.235
0.41447,60.039
0.41056,59.844
0.40567,60.235
0.40176,61.604
0.39785,64.537
0.39394,70.013
0.38905,77.836
0.38416,87.223
0.38025,97.001
0.37634,106.19
0.37243,114.6
0.36852,121.84
0.36364,127.51
0.35973,131.62
0.35484,133.96
0.35093,134.94
0.34702,134.75
0.34213,133.77
0.33822,132.01
0.33333,130.05
0.32942,127.71
0.32551,125.36
0.3216,122.62
0.31867,119.69
0.31476,116.36
0.31085,113.04
0.30694,109.32
0.30205,105.22
0.29814,101.11
0.29423,96.806
0.28935,92.699
0.28543,88.983
0.28055,85.658
0.27761,82.921
0.27566,80.965
0.27664,79.205
0.28152,78.031
0.2913,77.054
0.30987,76.467
0.33529,76.076
0.3695,75.88
0.41056,75.88
0.45552,75.88
0.50147,75.685
0.54643,75.685
0.58749,75.489
0.62366,75.489
0.65103,75.293
0.67058,75.098
0.68817,74.902
0.70186,74.511
0.71163,73.924
0.71652,73.533
0.7175,72.947
0.71554,72.36
0.70968,71.773
0.70088,71.186
0.69013,70.6
0.67546,70.013
0.6608,69.426
0.64516,69.035
0.62659,68.449
0.60606,67.862
0.58358,67.471
0.56109,66.884
0.53861,66.493
0.51613,65.906
0.4956,65.319
0.47605,64.733
0.45846,64.342
0.44282,63.755
0.42913,63.168
0.41838,62.582
0.40958,61.995
0.3998,61.408
0.39003,61.017
0.38319,60.43
0.37634,60.039
0.37146,59.648
0.36657,59.257
0.36168,59.061
0.35777,59.061
0.35386,59.452
0.34995,60.626
0.34702,63.559
0.34409,68.84
0.34018,76.467
0.33724,85.658
0.33333,95.241
0.32845,104.43
0.32454,112.65
0.31965,119.88
0.31574,125.55
0.31183,129.47
0.30792,131.62
0.30401,132.79
0.3001,132.59
0.29717,131.62
0.29521,129.86
0.29228,127.71
0.28935,125.36
0.28543,122.82
0.2825,119.88
0.27859,116.75
0.27468,113.43
0.27175,109.71
0.26784,105.8
0.26393,101.69
0.261,97.393
0.25806,93.09
0.25611,88.983
0.25415,85.463
0.25024,82.529
0.24731,79.987
0.24536,78.227
0.24633,76.662
0.25122,75.685
0.26295,75.098
0.2825,74.511
0.31085,74.316
0.348,74.12
0.39003,73.924
0.43109,73.924
0.46921,73.924
0.5132,73.924
0.55523,73.924
0.59433,73.924
0.62854,73.729
0.65591,73.533
0.67742,73.338
0.69208,73.142
0.70283,72.751
0.70772,72.36
0.7087,71.773
0.70577,71.186
0.6999,70.6
0.69208,70.013
0.68035,69.426
0.66569,69.035
0.64907,68.449
0.6305,67.862
0.60899,67.275
0.58651,66.884
0.56305,66.297
0.53959,65.906
0.51613,65.319
0.49365,64.928
0.47507,64.342
0.45846,63.95
0.44282,63.364
0.42815,62.777
0.41447,62.19
0.40274,61.604
0.39198,61.213
0.38319,60.626
0.37537,60.235
0.3695,59.844
0.36364,59.257
0.35973,58.866
0.35582,58.475
0.35386,58.279
0.35093,58.279
0.34702,58.475
0.34409,59.452
0.34115,61.799
0.33724,66.102
0.33431,72.751
0.3304,81.16
0.32649,90.352
0.32258,99.153
0.31867,107.17
0.31476,114.21
0.31281,120.08
0.30987,124.19
0.30694,126.92
0.30401,128.29
0.3001,128.49
0.29717,127.71
0.29326,126.14
0.28935,123.99
0.28641,121.64
0.2825,118.9
0.27859,116.17
0.27566,113.04
0.27273,109.71
0.27175,105.8
0.26882,101.89
0.26588,97.588
0.26295,93.286
0.26002,89.179
0.25709,85.463
0.25318,82.334
0.25024,79.791
0.24633,77.64
0.24438,76.076
0.24438,74.707
0.24927,73.924
0.25806,73.338
0.27175,72.947
0.29423,72.751
0.32454,72.751
0.36266,72.751
0.40665,72.751
0.45259,72.751
0.49951,72.751
0.5435,72.751
0.5826,72.751
0.61681,72.555
0.64516,72.36
0.66471,72.164
0.67742,71.969
0.68817,71.578
0.69501,71.186
0.69697,70.6
0.69599,70.209
0.6911,69.622
0.68328,69.035
0.67155,68.449
0.65689,67.862
0.6393,67.471
0.61975,66.884
0.59922,66.493
0.57869,65.906
0.55914,65.515
0.53763,64.928
0.51613,64.537
0.49462,64.146
0.4741,63.559
0.45552,62.973
0.43891,62.582
0.42424,61.995
0.41153,61.408
0.40078,61.017
0.39198,60.43
0.38514,60.039
0.37928,59.452
0.37439,59.061
0.3695,58.475
0.36559,58.083
0.36168,57.888
0.35777,57.692
0.35484,57.692
0.35191,58.083
0.34897,59.452
0.34506,62.19
0.34213,67.471
0.3392,74.707
0.33724,83.507
0.33431,92.699
0.33138,101.3
0.32747,109.13
0.32356,115.97
0.32063,121.45
0.31672,125.36
0.31378,127.71
0.30987,128.68
0.30694,128.68
0.30303,127.71
0.3001,126.14
0.29717,123.99
0.29521,121.45
0.29326,118.9
0.28935,115.97
0.28641,112.84
0.28348,109.32
0.27957,105.61
0.27664,101.5
0.27273,97.197
0.26979,92.894
0.26686,88.788
0.26295,85.072
0.261,81.943
0.25904,79.4
0.25709,77.249
0.25513,75.685
0.25611,74.511
0.26002,73.729
0.27077,73.338
0.28837,72.947
0.31476,72.947
0.34995,72.947
0.39101,72.947
0.43695,73.142
0.48387,73.142
0.52493,73.338
0.56109,73.338
0.59726,73.338
0.6305,73.338
0.65885,73.142
0.68133,72.947
0.69795,72.751
0.70968,72.36
0.71554,71.773
0.7175,71.382
0.71554,70.795
0.70968,70.209
0.70088,69.818
0.68915,69.231
0.67546,68.84
0.65787,68.253
0.63832,67.862
0.61681,67.471
0.59335,66.884
0.56989,66.493
0.54545,66.102
0.52297,65.515
0.50049,65.124
0.47996,64.537
0.46139,64.146
0.44575,63.755
0.43402,63.168
0.42229,62.777
0.41153,62.19
0.40274,61.799
0.39492,61.408
0.38807,60.821
0.38319,60.43
0.3783,59.844
0.37439,59.648
0.37048,59.257
0.36755,59.061
0.36461,59.257
0.36266,59.844
0.35973,61.604
0.35679,65.319
0.35386,71.186
0.35093,79.205
0.34702,88.396
0.34409,97.393
0.34018,105.8
0.34018,113.43
0.34018,119.88
0.3392,124.77
0.33627,128.29
0.33431,130.25
0.33236,130.83
0.3304,130.44
0.32747,129.27
0.32356,127.51
0.32063,125.36
0.31769,123.01
0.31476,120.47
0.31085,117.73
0.30792,114.6
0.30499,111.28
0.30205,107.76
0.3001,103.85
0.29912,99.739
0.29717,95.632
0.29423,91.721
0.2913,88.201
0.28837,85.072
0.28543,82.529
0.28348,80.378
0.2825,78.814
0.28543,77.64
0.29326,76.858
0.30792,76.271
0.33138,76.076
0.35777,75.88
0.38807,75.88
0.42913,76.076
0.47507,76.076
0.52395,76.271
0.57185,76.271
0.61681,76.271
0.65689,76.076
0.6911,75.88
0.71848,75.685
0.73998,75.293
0.75464,74.902
0.76246,74.316
0.76637,73.729
0.76637,73.338
0.76344,72.751
0.75758,72.164
0.74878,71.578
0.73705,70.991
0.72239,70.6
0.70479,70.013
0.68524,69.622
0.66373,69.035
0.64027,68.449
0.61681,67.862
0.59531,67.471
0.57674,66.688
0.55621,66.102
0.53666,65.515
0.51808,64.733
0.50049,64.146
0.48583,63.559
0.47312,62.973
0.46237,62.582
0.45357,61.995
0.44575,61.604
0.43891,61.213
0.43402,60.626
0.43011,60.235
0.4262,59.844
0.42229,59.648
0.41838,59.648
0.41447,59.844
0.41056,61.213
0.40665,63.95
0.40274,69.231
0.39883,76.858
0.39492,86.05
0.39003,95.632
0.38612,104.82
0.38221,113.04
0.37928,120.27
0.37537,125.95
0.37146,130.05
0.36755,132.4
0.36364,133.57
0.35875,133.57
0.35484,132.59
0.35093,131.03
0.34604,128.88
0.34213,126.73
0.33724,124.19
0.33431,121.64
0.33138,118.9
0.32747,115.78
0.32356,112.26
0.31965,108.54
0.31574,104.63
0.31183,100.33
0.30792,96.219
0.30401,91.917
0.3001,88.396
0.29521,85.072
0.2913,82.529
0.28935,80.378
0.28935,78.618
0.29326,77.445
0.30205,76.662
0.31867,75.88
0.34311,75.489
0.37732,75.293
0.41838,75.293
0.46432,75.293
0.5132,75.293
0.56109,75.293
0.60606,75.293
0.64614,75.293
0.67644,75.293
0.69892,75.098
0.71848,74.707
0.73412,74.316
0.74487,73.924
0.75171,73.338
0.75367,72.751
0.75171,72.164
0.74682,71.578
0.73803,70.991
0.7263,70.404
0.71163,69.818
0.69697,69.231
0.67937,68.644
0.65982,68.057
0.63832,67.666
0.61486,67.275
0.59042,66.688
0.56598,66.102
0.54252,65.711
0.52004,65.124
0.49853,64.537
0.47898,64.146
0.46237,63.559
0.44673,62.973
0.435,62.386
0.42522,61.799
0.41544,61.213
0.40762,60.821
0.40078,60.235
0.39394,59.844
0.38905,59.257
0.38416,58.866
0.37928,58.67
0.37537,58.67
0.37146,59.061
0.36657,60.235
0.36364,62.973
0.3607,67.862
0.35679,75.098
0.35288,84.094
0.348,93.481
0.34409,102.67
0.3392,110.89
0.33529,117.93
0.33138,123.6
0.32649,127.51
0.32258,130.05
0.31867,131.03
0.31476,131.03
0.31183,130.05
0.3089,128.29
0.30596,126.14
0.30303,123.79
0.29912,121.06
0.29521,118.32
0.29228,115.19
0.28837,111.86
0.28446,108.34
0.28055,104.24
0.27761,100.13
0.2737,96.024
0.27077,91.917
0.26979,88.201
0.26686,84.681
0.26295,81.943
0.26002,79.596
0.25709,77.836
0.25709,76.467
0.261,75.293
0.27077,74.707
0.28837,74.316
0.31476,73.924
0.34995,73.924
0.39198,73.729
0.43304,73.729
0.47312,73.729
0.51711,73.729
0.56207,73.533
0.60411,73.533
0.64027,73.533
0.67058,73.338
0.69501,72.947
0.71261,72.751
0.72434,72.36
0.73021,71.773
0.73216,71.382
0.73021,70.795
0.72434,70.209
0.71554,69.622
0.70381,69.035
0.69013,68.644
0.67253,68.057
0.65396,67.471
0.63245,67.08
0.60899,66.493
0.58553,66.102
0.56109,65.711
0.53763,65.124
0.51515,64.537
0.4956,64.146
0.47898,63.559
0.46237,62.973
0.44673,62.582
0.43304,61.995
0.42033,61.408
0.40958,61.017
0.40078,60.43
0.39296,59.844
0.38612,59.452
0.38025,59.061
0.37537,58.475
0.37146,58.279
0.36852,58.083
0.36461,58.083
0.36168,58.279
0.35777,59.452
0.35484,61.799
0.35093,66.102
0.348,72.751
0.34409,80.965
0.34018,89.961
0.33627,98.566
0.33236,106.58
0.32845,113.62
0.32454,119.3
0.32258,123.6
0.31867,126.14
0.31574,127.51
0.31183,127.71
0.3089,126.92
0.30499,125.36
0.30205,123.21
0.29814,120.86
0.29521,118.12
0.2913,115.19
0.28837,112.06
0.28543,108.54
0.28446,104.63
0.28152,100.72
0.27664,96.415
0.27175,92.112
0.26784,88.201
0.26393,84.485
0.26002,81.356
0.25611,79.009
0.25318,76.858
0.25122,75.293
0.25122,74.316
0.25513,73.533
0.26295,72.947
0.27468,72.751
0.29521,72.555
0.32454,72.555
0.3607,72.555
0.40274,72.555
0.44868,72.751
0.4956,72.555
0.53959,72.555
0.58065,72.555
0.61584,72.36
0.64516,72.36
0.66667,72.164
0.68035,71.773
0.6911,71.382
0.69892,70.991
0.70283,70.404
0.70186,70.013
0.69697,69.426
0.68915,68.84
0.67742,68.253
0.66276,67.666
0.64614,67.275
0.62659,66.688
0.60508,66.297
0.58553,65.906
0.56598,65.319
0.54448,64.928
0.52199,64.342
0.50049,63.95
0.48094,63.364
0.46237,62.777
0.44575,62.386
0.43109,61.799
0.41838,61.408
0.40762,60.821
0.39883,60.43
0.39198,59.844
0.38612,59.452
0.38123,58.866
0.37634,58.475
0.37243,58.083
0.36852,57.888
0.36461,57.692
0.36168,57.692
0.35875,58.279
0.35582,59.844
0.35191,62.973
0.34897,68.253
0.34604,75.489
0.34311,84.289
0.34115,93.09
0.33822,101.5
0.33431,108.93
0.3304,115.38
0.32747,120.47
0.32356,123.99
0.31965,126.14
0.31672,126.92
0.31281,126.53
0.30987,125.55
0.30596,123.79
0.30401,121.64
0.30205,119.3
0.29912,116.56
0.29619,113.62
0.29228,110.3
0.28935,106.78
0.28641,103.06
0.28348,99.153
0.27957,94.85
0.27664,90.548
0.2737,86.636
0.27077,83.312
0.26686,80.378
0.26491,78.031
0.26295,76.271
0.26197,74.902
0.26197,73.924
0.26686,73.142
0.27664,72.751
0.29423,72.555
0.31965,72.36
0.35288,72.36
0.39198,72.555
0.43695,72.555
0.48289,72.555
0.52297,72.555
0.55816,72.751
0.59433,72.751
0.62659,72.555
0.65494,72.555
0.67742,72.164
0.69404,71.969
0.70577,71.382
0.71163,70.991
0.71359,70.6
0.71163,70.209
0.70577,69.622
0.69697,69.035
0.68622,68.644
0.67155,68.057
0.65494,67.666
0.63539,67.275
0.61388,66.884
0.5914,66.493
0.56794,65.906
0.54448,65.515
0.52199,65.124
0.50049,64.537
0.48094,64.146
0.46237,63.755
0.44868,63.168
0.43695,62.777
0.42522,62.19
0.41544,61.799
0.40665,61.408
0.39883,60.821
0.39198,60.43
0.3871,60.039
0.38221,59.648
0.37732,59.257
0.37439,59.061
0.37048,59.257
0.36852,59.648
0.36657,61.017
0.36364,63.755
0.3607,68.84
0.35777,76.076
0.35484,84.876
0.35191,93.872
0.348,102.67
0.34506,110.3
0.34115,117.14
0.33822,122.62
0.33529,126.53
0.33138,128.88
0.32942,130.05
0.32747,130.05
0.32454,129.07
0.3216,127.51
0.31867,125.55
0.31574,123.21
0.31281,120.67
0.30987,117.93
0.30694,114.99
0.30401,111.86
0.30108,108.34
0.29814,104.63
0.29619,100.52
0.29521,96.415
0.29326,92.503
0.29032,88.788
0.28837,85.658
0.28543,82.921
0.2825,80.965
0.28055,79.205
0.28152,78.031
0.28641,77.054
0.29619,76.467
0.31378,76.271
0.3392,76.076
0.36755,76.076
0.3998,76.076
0.43988,76.271
0.48485,76.271
0.53079,76.271
0.57576,76.271
0.61681,76.271
0.65298,76.076
0.68231,75.88
0.70577,75.489
0.72434,75.098
0.73607,74.707
0.74194,74.12
0.74389,73.533
0.74291,72.947
0.739,72.36
0.73118,71.969
0.72141,71.382
0.7087,70.795
0.69306,70.404
0.67546,69.818
0.65591,69.231
0.63441,68.84
0.6129,68.253
0.59042,67.666
0.56989,67.08
0.5523,66.493
0.53372,65.906
0.51613,65.124
0.49951,64.537
0.48485,63.95
0.47214,63.364
0.46139,62.973
0.45161,62.386
0.44379,61.995
0.43695,61.408
0.43109,61.017
0.42717,60.626
0.42326,60.235
0.41935,60.039
0.41642,60.039
0.41251,60.43
0.40958,61.604
0.40567,64.537
0.40176,69.818
0.39883,77.445
0.39492,86.636
0.39101,96.024
0.38612,105.02
0.38221,113.23
0.37928,120.27
0.37537,125.75
0.37243,129.66
0.36852,132.01
0.36461,132.99
0.3607,132.79
0.35679,131.81
0.35288,130.25
0.34897,128.29
0.34506,126.14
0.34115,123.79
0.33724,121.06
0.33333,118.12
0.3304,114.99
0.32649,111.67
0.32258,107.95
0.31867,104.04
0.31476,99.935
0.31085,95.632
0.30694,91.721
0.30303,88.201
0.29912,85.072
0.29521,82.529
0.29228,80.574
0.29228,79.009
0.29521,77.64
0.30303,76.858
0.31672,76.271
0.3392,75.88
0.3695,75.88
0.40762,75.685
0.45064,75.685
0.49658,75.685
0.54252,75.685
0.58651,75.685
0.62463,75.489
0.65787,75.293
0.68231,75.098
0.69892,74.902
0.71359,74.511
0.72434,73.924
0.73021,73.533
0.73314,72.947
0.73216,72.36
0.72727,71.773
0.72043,70.991
0.70968,70.6
0.69599,70.013
0.68035,69.426
0.66178,68.84
0.64321,68.253
0.62463,67.862
0.60411,67.275
0.58162,66.884
0.55816,66.297
0.53568,65.906
0.51417,65.319
0.49462,64.733
0.47605,64.342
0.45943,63.755
0.44477,63.168
0.43206,62.582
0.42229,61.995
0.41447,61.408
0.40665,61.017
0.3998,60.626
0.39394,60.039
0.38807,59.648
0.38319,59.257
0.37928,59.061
0.37439,59.257
0.37048,59.844
0.36657,61.408
0.36168,64.928
0.35777,70.6
0.35484,78.618
0.35191,87.81
0.348,97.197
0.34409,106
0.3392,114.02
0.33529,120.47
0.33138,125.55
0.32649,129.07
0.32258,131.03
0.31867,131.81
0.31476,131.42
0.31183,130.25
0.3089,128.49
0.30694,126.14
0.30401,123.79
0.3001,121.25
0.29717,118.51
0.29326,115.38
0.28935,111.86
0.28641,108.34
0.2825,104.24
0.27957,100.13
0.27664,95.828
0.27273,91.721
0.26979,88.005
0.26686,84.681
0.26491,81.943
0.26295,79.791
0.261,78.227
0.261,76.858
0.26491,75.88
0.27566,75.293
0.29326,74.902
0.31965,74.707
0.35484,74.511
0.39589,74.511
0.44184,74.511
0.48289,74.316
0.52102,74.316
0.56207,74.316
0.60117,74.12
0.63539,74.12
0.66373,73.924
0.68524,73.533
0.70186,73.142
0.71359,72.751
0.71945,72.36
0.72043,71.773
0.71848,71.186
0.71261,70.6
0.70479,70.013
0.69306,69.622
0.67937,69.035
0.66276,68.644
0.64418,68.057
0.62366,67.471
0.60117,67.08
0.57771,66.493
0.55425,65.906
0.53177,65.515
0.50929,64.928
0.48876,64.537
0.47116,63.95
0.4565,63.364
0.44282,62.777
0.42913,62.19
0.4174,61.604
0.40762,61.213
0.39883,60.626
0.39198,60.235
0.38514,59.648
0.37928,59.257
0.37439,58.866
0.37048,58.67
0.36657,58.475
0.36461,58.67
0.3607,59.452
0.35777,61.213
0.35386,64.733
0.34995,70.404
0.34604,78.227
0.34213,87.027
0.33822,95.632
0.33431,103.85
0.3304,111.08
0.32649,117.14
0.32258,121.84
0.31965,124.97
0.31769,126.53
0.31476,127.12
0.31183,126.73
0.30792,125.36
0.30499,123.6
0.30108,121.25
0.29814,118.9
0.29423,115.97
0.2913,113.04
0.28739,109.52
0.28446,106
0.28152,102.09
0.28055,97.979
0.27761,93.872
0.27468,89.765
0.27175,86.05
0.26784,82.921
0.26491,80.183
0.26197,78.227
0.25904,76.467
0.25709,75.098
0.25806,74.316
0.26393,73.729
0.27566,73.338
0.29228,73.142
0.31281,73.142
0.34311,72.947
0.38123,72.947
0.42522,72.947
0.47116,72.947
0.51613,72.947
0.55914,72.947
0.59824,72.947
0.6305,72.751
0.65787,72.36
0.6784,72.164
0.6911,71.773
0.69892,71.382
0.70381,70.991
0.70479,70.404
0.70186,69.818
0.69599,69.231
0.68719,68.84
0.67449,68.253
0.65885,67.862
0.64125,67.275
0.62072,66.884
0.59922,66.493
0.57576,65.906
0.55523,65.515
0.53666,64.928
0.51613,64.537
0.4956,63.95
0.47605,63.364
0.45846,62.973
0.44282,62.386
0.42913,61.799
0.4174,61.408
0.40762,60.821
0.3998,60.43
0.39198,59.844
0.3871,59.452
0.38319,58.866
0.3783,58.475
0.37537,58.279
0.37146,58.083
0.36755,58.083
0.36461,58.67
0.36168,60.039
0.35777,63.168
0.35484,68.253
0.35191,75.685
0.348,84.289
0.34506,93.286
0.34213,101.89
0.3392,109.52
0.33627,116.17
0.33333,121.25
0.3304,124.97
0.32649,127.12
0.32356,128.1
0.31965,128.1
0.31574,127.12
0.31281,125.36
0.3089,123.21
0.30596,120.86
0.30303,118.12
0.30108,115.19
0.29814,112.06
0.29521,108.74
0.29228,104.82
0.28837,100.91
0.28543,96.806
0.2825,92.503
0.27957,88.788
0.27664,85.267
0.27273,82.334
0.26979,79.791
0.26686,77.836
0.26491,76.271
0.26588,75.098
0.26882,74.511
0.27664,73.924
0.29228,73.729
0.31476,73.533
0.34604,73.533
0.38514,73.533
0.42913,73.533
0.47605,73.533
0.52297,73.729
0.56794,73.729
0.60411,73.729
0.63245,73.533
0.65982,73.533
0.68328,73.142
0.70186,72.947
0.71457,72.555
0.72336,72.164
0.7263,71.578
0.72532,71.186
0.72043,70.6
0.71163,70.209
0.6999,69.622
0.68524,69.231
0.66862,68.644
0.652,68.253
0.63148,67.666
0.61193,67.275
0.5914,66.884
0.56794,66.493
0.54545,65.906
0.52297,65.515
0.50147,64.928
0.48192,64.537
0.46432,63.95
0.44868,63.559
0.43695,62.973
0.42717,62.582
0.41838,62.19
0.40958,61.604
0.40274,61.213
0.39589,60.821
0.39003,60.43
0.38514,60.039
0.38123,59.844
0.37732,60.039
0.37439,60.626
0.37048,62.19
0.36755,65.515
0.36461,70.991
0.36168,78.618
0.35875,87.419
0.35582,96.61
0.35288,105.02
0.34897,112.65
0.34506,119.3
0.34213,124.38
0.33822,127.9
0.33529,129.86
0.33138,130.64
0.32747,130.44
0.32551,129.47
0.32356,127.71
0.32063,125.75
0.31769,123.4
0.31476,121.06
0.31183,118.32
0.30792,115.38
0.30499,112.06
0.30205,108.74
0.29912,104.82
0.29619,100.91
0.29326,96.806
0.29032,92.699
0.28739,89.179
0.28641,86.05
0.28348,83.507
0.28152,81.356
0.27957,79.791
0.28055,78.618
0.28446,77.836
0.29521,77.249
0.31281,77.054
0.3392,76.858
0.37341,76.858
0.41544,76.858
0.45552,76.858
0.49462,76.858
0.53861,76.858
0.58358,76.858
0.62561,76.858
0.66276,76.662
0.69404,76.467
0.71848,76.076
0.73705,75.489
0.74976,75.098
0.75758,74.511
0.76051,73.924
0.75953,73.533
0.75464,72.947
0.74682,72.36
0.73607,71.773
0.72336,71.186
0.70772,70.795
0.68915,70.209
0.66862,69.622
0.64712,69.035
0.62366,68.644
0.6002,68.057
0.57771,67.471
0.55523,66.688
0.53666,66.102
0.52004,65.515
0.5044,64.928
0.48876,64.342
0.47605,63.755
0.46432,63.168
0.45455,62.777
0.44575,62.386
0.43891,61.799
0.43304,61.408
0.42717,61.017
0.42326,60.821
0.41935,60.626
0.41642,60.626
0.41251,61.408
0.40958,63.364
0.40567,67.471
0.40176,73.924
0.39785,82.529
0.39394,92.112
0.39003,101.5
0.38612,110.3
0.38123,117.93
0.37732,124.38
0.37243,129.27
0.36852,132.4
0.36559,133.96
0.36168,134.55
0.35777,134.16
0.35386,132.79
0.34995,131.23
0.34506,129.07
0.34115,126.92
0.33724,124.58
0.33236,122.03
0.32845,119.1
0.32356,115.78
0.32063,112.26
0.31769,108.54
0.31476,104.43
0.31085,100.13
0.30694,96.024
0.30303,91.917
0.29814,88.396
0.29423,85.463
0.29032,82.921
0.28739,80.965
0.28837,79.4
0.29326,78.227
0.30499,77.445
0.3216,77.054
0.34409,76.662
0.37634,76.467
0.41642,76.467
0.46237,76.467
0.51124,76.467
0.55914,76.467
0.60411,76.271
0.64418,76.271
0.6784,76.076
0.70577,75.685
0.7263,75.489
0.739,75.098
0.74682,74.511
0.75073,74.12
0.75269,73.533
0.75073,72.947
0.74585,72.164
0.73803,71.578
0.7263,70.991
0.71261,70.404
0.69599,69.818
0.67644,69.231
0.65494,68.84
0.63148,68.253
0.60997,67.666
0.58847,67.275
0.56598,66.688
0.54252,66.102
0.52004,65.711
0.49853,64.928
0.47898,64.537
0.46139,63.95
0.44575,63.364
0.43206,62.777
0.42033,62.386
0.41056,61.799
0.40274,61.408
0.39687,61.017
0.39101,60.43
0.38612,60.039
0.38123,59.844
0.37634,59.844
0.37146,60.235
0.36755,61.408
0.36266,64.146
0.35875,69.035
0.35484,76.467
0.34995,85.463
0.34604,95.046
0.34213,104.24
0.3392,112.45
0.33529,119.69
0.33138,125.36
0.32649,129.27
0.32258,131.62
0.31867,132.79
0.31476,132.79
0.30987,131.81
0.30596,130.05
0.30205,128.1
0.29814,125.75
0.29521,123.4
0.29326,120.67
0.29032,117.93
0.28641,114.6
0.2825,111.28
0.27957,107.37
0.27566,103.46
0.27273,99.153
0.26882,95.046
0.26588,90.939
0.26197,87.419
0.25806,84.289
0.25513,81.943
0.25318,79.987
0.25318,78.422
0.25513,77.249
0.26197,76.467
0.27566,75.88
0.29814,75.489
0.32845,75.293
0.36755,75.098
0.41349,75.098
0.46237,74.902
0.51222,74.902
0.56012,74.707
0.59922,74.707
0.6305,74.511
0.65982,74.316
0.68524,74.12
0.70577,73.924
0.72043,73.533
0.72923,72.947
0.73412,72.555
0.73412,71.969
0.73021,71.578
0.72239,70.991
0.71163,70.404
0.69795,69.818
0.68328,69.231
0.66764,68.84
0.64809,68.253
0.62659,67.862
0.60313,67.275
0.57967,66.884
0.55523,66.297
0.53079,65.711
0.50831,65.319
0.4868,64.733
0.46725,64.146
0.44966,63.559
0.43597,62.973
0.42424,62.582
0.41349,61.995
0.40371,61.408
0.39394,61.017
0.38612,60.43
0.38025,60.039
0.37439,59.648
0.36852,59.257
0.36461,59.257
0.35973,59.257
0.35386,59.844
0.34995,61.604
0.34604,65.124
0.34409,70.795
0.34018,78.618
0.33724,87.614
0.33333,96.61
0.32942,105.22
0.32551,112.84
0.3216,119.3
0.31769,123.99
0.31378,127.51
0.31085,129.47
0.30694,130.05
0.30401,129.86
0.30205,128.68
0.3001,127.12
0.29619,124.97
0.29326,122.43
0.28935,119.69
0.28641,116.75
0.2825,113.62
0.27957,110.1
0.27566,106.39
0.27273,102.28
0.26979,97.979
0.26784,93.872
0.26588,89.765
0.26393,86.245
0.261,83.312
0.25709,80.965
0.25415,78.814
0.2522,77.249
0.25122,76.271
0.25513,75.489
0.26491,74.902
0.2825,74.707
0.30792,74.511
0.34213,74.316
0.37634,74.316
0.41251,74.316
0.4565,74.316
0.50244,74.316
0.54741,74.316
0.58847,74.12
0.62561,73.924
0.65494,73.729
0.67937,73.533
0.69697,73.142
0.7087,72.751
0.71554,72.36
0.7175,71.773
0.71554,71.382
0.71065,70.795
0.70283,70.209
0.6911,69.622
0.67742,69.231
0.65982,68.644
0.64027,68.057
0.61975,67.666
0.59629,67.275
0.57283,66.688
0.54839,66.102
0.5259,65.515
0.50538,65.124
0.48778,64.537
0.47019,63.95
0.45357,63.559
0.43793,62.973
0.42424,62.386
0.41251,61.799
0.40274,61.408
0.39394,60.821
0.38612,60.43
0.38025,59.844
0.37439,59.452
0.37048,59.061
0.36755,58.866
0.36461,59.061
0.3607,59.648
0.35777,61.213
0.35484,64.342
0.35093,69.622
0.348,77.249
0.34409,86.05
0.34115,95.241
0.33724,103.85
0.33333,111.47
0.3304,118.12
0.32747,123.4
0.32454,127.12
0.3216,129.27
0.31867,130.05
0.31476,130.05
0.31183,129.07
0.30792,127.31
0.30401,125.36
0.30108,123.01
0.29717,120.47
0.29423,117.73
0.29032,114.6
0.28837,111.28
0.28641,107.56
0.28348,103.65
0.28055,99.544
0.27761,95.241
0.27468,90.939
0.27077,87.223
0.26686,84.094
0.26393,81.356
0.261,79.205
0.25806,77.64
0.25806,76.271
0.26197,75.489
0.26979,74.902
0.2825,74.511
0.30303,74.316
0.33236,74.12
0.37048,74.12
0.41349,74.12
0.46139,74.12
0.50929,74.12
0.55621,74.12
0.59824,73.924
0.63539,73.924
0.66667,73.729
0.68817,73.533
0.70283,73.142
0.71457,72.751
0.72239,72.36
0.72727,71.969
0.72727,71.382
0.72336,70.795
0.71554,70.404
0.70479,69.818
0.6911,69.231
0.67449,68.644
0.65494,68.057
0.63343,67.666
0.6129,67.275
0.59238,66.688
0.56989,66.102
0.54643,65.711
0.52395,65.124
0.50147,64.733
0.48192,64.146
0.46334,63.755
0.44673,63.168
0.43206,62.777
0.41935,62.386
0.4086,61.995
0.40078,61.408
0.39394,61.017
0.38807,60.43
0.38221,60.039
0.37732,59.844
0.37243,59.648
0.36852,59.648
0.36461,60.235
0.3607,61.408
0.35777,64.342
0.35386,69.426
0.35093,76.858
0.34702,85.854
0.34409,95.241
0.34213,104.24
0.3392,112.45
0.33529,119.49
0.33138,124.97
0.32747,128.88
0.32356,131.42
0.31965,132.59
0.31574,132.79
0.31183,131.81
0.3089,130.44
0.30499,128.49
0.30205,126.34
0.3001,123.99
0.29717,121.45
0.29423,118.71
0.2913,115.58
0.28739,112.26
0.28446,108.54
0.28152,104.43
0.27859,100.33
0.27566,96.024
0.27273,92.112
0.26979,88.592
0.26588,85.658
0.26393,83.116
0.26295,80.965
0.26295,79.596
0.26491,78.422
0.27175,77.64
0.28543,77.249
0.30694,76.858
0.33724,76.858
0.37537,76.662
0.42033,76.662
0.46921,76.858
0.51906,76.858
0.56109,76.858
0.59629,76.858
0.63245,76.662
0.66569,76.662
0.69306,76.271
0.71457,75.88
0.73021,75.489
0.73998,75.098
0.74585,74.707
0.74682,74.12
0.74389,73.533
0.73803,72.947
0.72825,72.36
0.71652,71.773
0.70283,71.382
0.68719,70.795
0.66764,70.404
0.64712,69.818
0.62463,69.426
0.60117,69.035
0.57771,68.449
0.55425,67.862
0.53177,67.275
0.51026,66.884
0.49169,66.297
0.47605,65.906
0.46334,65.319
0.45064,64.733
0.43988,64.342
0.43011,63.755
0.42229,63.364
0.41544,62.973
0.40958,62.582
0.40371,62.19
0.3998,61.799
0.39589,61.799
0.39296,62.19
0.39003,63.559
0.3871,66.688
0.38416,72.164
0.38221,79.987
0.3783,89.179
0.37537,98.761
0.37243,107.95
0.36852,116.36
0.36461,123.4
0.36168,128.88
0.35777,132.79
0.35484,135.14
0.35093,136.11
0.34897,135.92
0.34604,134.75
0.34409,133.18
0.34115,131.23
0.33724,129.07
0.33431,126.73
0.3304,124.19
0.32747,121.45
0.32454,118.51
0.3216,115.19
0.31769,111.86
0.31476,107.95
0.31281,103.85
0.31085,99.544
0.3089,95.437
0.30596,91.721
0.30205,88.201
0.29912,85.463
0.29619,83.116
0.29521,81.356
0.29717,79.987
0.30499,79.009
0.31965,78.422
0.34311,78.031
0.37439,77.64
0.40762,77.64
0.44282,77.445
0.48583,77.445
0.53177,77.445
0.57771,77.249
0.62072,77.249
0.65787,77.054
0.69013,76.662
0.71457,76.467
0.73314,75.88
0.74682,75.489
0.75464,74.902
0.7566,74.316
0.75562,73.729
0.75171,73.142
0.74585,72.555
0.73705,72.164
0.72532,71.578
0.71163,70.991
0.69501,70.404
0.67546,69.818
0.65494,69.426
0.63245,68.84
0.60899,68.253
0.58553,67.666
0.56403,67.275
0.5435,66.688
0.52297,65.906
0.50342,65.515
0.48485,64.928
0.46823,64.342
0.45259,63.755
0.43891,63.168
0.42815,62.777
0.41838,62.19
0.40958,61.604
0.40176,61.213
0.39589,60.821
0.39198,60.43
0.3871,60.235
0.38221,60.43
0.37732,61.408
0.37243,63.755
0.36852,68.253
0.36364,75.489
0.35875,84.485
0.35386,94.459
0.34897,104.04
0.34409,112.84
0.34018,120.67
0.33627,126.92
0.33333,131.42
0.32942,134.16
0.32551,135.53
0.3216,135.92
0.31769,135.14
0.31378,133.57
0.3089,131.62
0.30499,129.66
0.30108,127.12
0.29717,124.77
0.29326,122.03
0.29032,119.1
0.28837,115.78
0.28543,112.26
0.28152,108.54
0.27859,104.43
0.27468,100.13
0.27077,95.828
0.26686,91.721
0.26295,88.201
0.25904,85.267
0.25513,82.725
0.25318,80.769
0.25415,79.4
0.25904,78.227
0.26784,77.445
0.28543,76.858
0.31085,76.467
0.34604,76.271
0.38807,76.076
0.43597,76.076
0.48583,75.88
0.5347,75.88
0.58065,75.88
0.6217,75.685
0.65591,75.489
0.68035,75.098
0.69697,74.902
0.71163,74.511
0.72141,74.12
0.72727,73.533
0.72923,72.947
0.72727,72.36
0.72239,71.969
0.71457,71.186
0.70283,70.6
0.68915,70.209
0.67351,69.622
0.65396,69.035
0.63539,68.644
0.61681,68.057
0.59531,67.471
0.57185,67.08
0.54839,66.493
0.52493,65.906
0.50244,65.515
0.48094,64.928
0.46139,64.342
0.44477,63.755
0.42913,63.168
0.41544,62.777
0.40567,62.19
0.39687,61.604
0.38905,61.213
0.38221,60.821
0.37537,60.235
0.3695,59.844
0.36461,59.648
0.35973,59.452
0.35582,59.844
0.35093,60.821
0.34702,63.168
0.34311,67.666
0.3392,74.511
0.33627,83.116
0.33431,92.503
0.3304,101.5
0.32649,109.91
0.32258,116.95
0.31867,122.82
0.31476,127.12
0.31085,129.86
0.30792,131.23
0.30401,131.62
0.3001,130.83
0.29619,129.47
0.29326,127.51
0.2913,125.16
0.28837,122.62
0.28543,119.88
0.28152,116.95
0.27859,113.62
0.27468,110.1
0.27175,106.39
0.26784,102.28
0.26491,97.979
0.26197,93.481
0.25904,89.57
0.25513,86.05
0.25318,83.116
0.25122,80.574
0.24927,78.814
0.24731,77.249
0.24731,76.271
0.2522,75.489
0.26295,75.098
0.28152,74.707
0.3089,74.511
0.34506,74.511
0.3871,74.511
0.43402,74.316
0.47605,74.316
0.51515,74.316
0.55621,74.12
0.59629,74.12
0.6305,73.924
0.65982,73.729
0.68231,73.338
0.69892,72.947
0.70968,72.555
0.71554,72.164
0.7175,71.578
0.71457,70.991
0.70772,70.404
0.69892,69.818
0.68817,69.231
0.67351,68.84
0.65591,68.253
0.63636,67.666
0.61486,67.275
0.59238,66.884
0.56891,66.297
0.54448,65.906
0.52102,65.319
0.49853,64.733
0.47703,64.342
0.45943,63.755
0.44477,63.168
0.43109,62.777
0.4174,62.19
0.40567,61.604
0.39589,61.213
0.3871,60.626
0.37928,60.235
0.37341,59.648
0.36755,59.257
0.36266,58.866
0.35875,58.67
0.35582,58.67
0.35288,59.061
0.34995,60.43
0.34702,63.364
0.34409,68.253
0.34018,75.685
0.33724,84.485
0.33333,93.677
0.32942,102.48
0.32551,110.5
0.32258,117.54
0.31867,123.01
0.31476,126.92
0.31281,129.27
0.30987,130.25
0.30694,130.44
0.30401,129.47
0.30108,127.9
0.29717,125.95
0.29423,123.6
0.29032,121.06
0.28739,118.12
0.28348,114.99
0.28055,111.67
0.27761,107.95
0.27468,104.04
0.2737,99.739
0.27077,95.437
0.26784,91.33
0.26491,87.614
0.26197,84.289
0.25904,81.552
0.25513,79.4
0.2522,77.64
0.25122,76.467
0.2522,75.489
0.26002,74.902
0.27566,74.511
0.29326,74.12
0.31672,74.12
0.34897,73.924
0.38905,73.924
0.43402,73.924
0.48192,73.924
0.52884,73.729
0.57185,73.729
0.61095,73.533
0.64321,73.338
0.6696,73.142
0.69013,72.751
0.70283,72.36
0.70968,71.969
0.71359,71.382
0.71457,70.795
0.71163,70.404
0.70577,69.818
0.69697,69.231
0.68426,68.644
0.66862,68.253
0.65103,67.666
0.6305,67.275
0.60899,66.688
0.58553,66.102
0.56403,65.711
0.54448,65.319
0.52297,64.733
0.50147,64.342
0.48094,63.755
0.46237,63.168
0.44575,62.777
0.43109,62.19
0.41838,61.604
0.40762,61.213
0.39785,60.626
0.39003,60.235
0.38416,59.844
0.37928,59.257
0.37439,58.866
0.37048,58.67
0.36657,58.475
0.36266,58.67
0.35875,59.452
0.35484,61.213
0.35191,64.928
0.348,70.795
0.34506,78.814
0.34115,88.005
0.33724,97.001
0.33431,105.41
0.33236,113.04
0.32845,119.49
0.32551,124.19
0.3216,127.51
0.31769,129.47
0.31476,130.05
0.31085,129.86
0.30792,128.68
0.30401,126.92
0.30108,124.77
0.29717,122.43
0.29521,119.88
0.29326,116.95
0.29032,113.82
0.28739,110.5
0.28446,106.78
0.28152,102.67
0.27859,98.37
0.27566,94.068
0.27273,90.157
0.26882,86.441
0.26588,83.312
0.26295,80.769
0.25904,78.618
0.25806,77.054
0.25806,75.88
0.261,75.098
0.26784,74.511
0.28152,74.12
0.30303,73.924
0.33333,73.729
0.37048,73.729
0.41447,73.729
0.46139,73.924
0.50929,73.924
0.55523,73.729
0.5914,73.729
0.62072,73.533
0.64907,73.338
0.67351,72.947
0.69306,72.751
0.70674,72.164
0.71554,71.773
0.71945,71.186
0.71945,70.6
0.71554,70.209
0.70772,69.622
0.69697,69.035
0.68328,68.644
0.66862,68.057
0.652,67.666
0.63245,67.275
0.61095,66.688
0.58847,66.102
0.565,65.711
0.54154,65.124
0.51808,64.733
0.49658,64.146
0.47703,63.559
0.45846,62.973
0.44282,62.582
0.43011,61.995
0.41935,61.408
0.40958,61.017
0.40078,60.43
0.39394,59.844
0.3871,59.452
0.38123,59.061
0.37634,58.67
0.37243,58.475
0.36755,58.475
0.36364,58.866
0.3607,60.235
0.35679,63.364
0.35484,68.84
0.35191,76.467
0.34897,85.463
0.34604,94.85
0.34213,103.65
0.3392,111.67
0.33529,118.71
0.33138,124.19
0.32747,128.29
0.32356,130.64
0.32063,131.81
0.31672,131.81
0.31476,130.83
0.31183,129.27
0.30987,127.31
0.30694,125.16
0.30303,122.82
0.3001,120.08
0.29619,117.34
0.29326,114.21
0.28935,110.69
0.28641,106.98
0.28348,102.87
0.27957,98.566
0.27664,94.263
0.27468,90.352
0.27273,86.636
0.26979,83.703
0.26686,81.16
0.26393,79.009
0.26197,77.64
0.26295,76.467
0.26882,75.685
0.28152,75.098
0.30205,74.707
0.3304,74.511
0.36852,74.511
0.40567,74.316
0.44282,74.316
0.48778,74.316
0.5347,74.12
0.57869,74.12
0.61877,73.924
0.65396,73.729
0.68231,73.533
0.70381,73.338
0.71945,72.947
0.73021,72.555
0.73509,72.164
0.73607,71.773
0.73314,71.186
0.72727,70.6
0.71848,70.209
0.70772,69.622
0.69306,69.035
0.67644,68.644
0.65689,68.253
0.63539,67.666
0.6129,67.275
0.58944,66.688
0.565,66.297
0.54154,65.711
0.52102,65.319
0.50244,64.733
0.48387,64.342
0.46628,63.755
0.44966,63.364
0.43597,62.777
0.42326,62.386
0.41153,61.799
0.40274,61.408
0.39492,61.017
0.38807,60.43
0.38221,60.039
0.37732,59.844
0.37439,59.844
0.37048,59.844
0.36657,60.821
0.36266,63.168
0.35973,67.666
0.35582,74.511
0.35288,83.116
0.34897,92.699
0.34506,101.89
0.34213,110.3
0.33822,117.73
0.33431,123.99
0.33236,128.49
0.32942,131.42
0.32649,132.99
0.32356,133.38
0.31965,132.79
0.31672,131.62
0.31378,129.86
0.30987,127.71
0.30694,125.55
0.30401,123.01
0.30108,120.47
0.29814,117.54
0.29619,114.21
0.29423,110.69
0.29228,106.98
0.28935,102.87
0.28641,98.761
0.28446,94.655
0.28152,90.939
0.27859,87.614
0.27566,84.876
0.27273,82.529
0.27077,80.769
0.27175,79.4
0.27664,78.422
0.28446,77.836
0.29912,77.249
0.3216,77.054
0.35288,77.054
0.39198,76.858
0.43695,76.858
0.48485,76.858
0.53372,76.858
0.57967,76.858
0.6217,76.662
0.65689,76.467
0.68719,76.271
0.70772,75.88
0.72141,75.489
0.73216,75.098
0.73998,74.511
0.74389,73.924
0.74389,73.533
0.74096,72.947
0.73509,72.36
0.72532,71.773
0.71261,71.186
0.69795,70.795
0.68035,70.209
0.65982,69.818
0.64125,69.231
0.6217,68.84
0.6002,68.253
0.57771,67.666
0.55523,67.275
0.53372,66.688
0.5132,66.297
0.49462,65.711
0.47703,65.124
0.46237,64.733
0.44966,64.146
0.43891,63.755
0.43109,63.168
0.42424,62.582
0.4174,61.995
0.41251,61.408
0.40665,61.017
0.40274,60.821
0.39785,60.821
0.39394,61.408
0.39101,63.168
0.3871,67.08
0.38319,73.533
0.37928,82.334
0.37537,91.917
0.37243,101.69
0.3695,110.69
0.36559,118.71
0.36266,125.36
0.35875,130.25
0.35484,133.57
0.35093,135.33
0.348,135.72
0.34409,135.14
0.34018,133.77
0.33627,132.01
0.33236,130.05
0.3304,127.71
0.32747,125.36
0.32454,122.62
0.3216,119.69
0.31867,116.56
0.31476,113.23
0.31183,109.32
0.30792,105.41
0.30499,101.11
0.30108,96.806
0.29814,92.894
0.29423,89.179
0.29032,86.05
0.28739,83.507
0.28543,81.552
0.28446,79.987
0.28641,78.814
0.29228,77.836
0.30596,77.249
0.32747,77.054
0.35875,76.858
0.39687,76.662
0.44184,76.662
0.48974,76.662
0.53763,76.467
0.57771,76.467
0.61193,76.271
0.64516,76.076
0.67449,75.685
0.69795,75.293
0.71652,74.902
0.72825,74.511
0.73607,73.924
0.739,73.338
0.73803,72.751
0.73412,72.164
0.7263,71.578
0.71652,70.795
0.70479,70.404
0.6911,69.818
0.67449,69.231
0.65591,68.84
0.63441,68.253
0.6129,67.862
0.58944,67.275
0.565,66.884
0.54154,66.297
0.51906,65.711
0.49756,65.124
0.47703,64.537
0.46139,64.146
0.4477,63.559
0.43402,62.973
0.42229,62.386
0.41153,61.799
0.40176,61.408
0.39394,60.821
0.3871,60.43
0.38123,60.039
0.37537,59.844
0.37048,59.648
0.36657,59.844
0.36168,60.626
0.35777,62.973
0.35484,67.275
0.35093,73.924
0.34702,82.725
0.34311,92.308
0.3392,101.69
0.33431,110.3
0.3304,117.93
0.32551,123.99
0.32063,128.49
0.31574,131.42
0.31183,132.79
0.3089,133.18
0.30596,132.4
0.30303,130.83
0.3001,129.07
0.29619,126.73
0.29326,124.38
0.28935,121.64
0.28543,118.71
0.2825,115.58
0.27859,112.06
0.27468,108.34
0.27175,104.43
0.26784,100.13
0.26588,95.828
0.26393,91.721
0.261,88.005
0.25806,84.681
0.25513,82.138
0.25122,79.987
0.24927,78.227
0.24829,77.054
0.25122,76.271
0.26002,75.685
0.27664,75.293
0.30205,75.098
0.3304,74.902
0.36266,74.902
0.40371,74.707
0.45064,74.707
0.49853,74.707
0.54448,74.511
0.58651,74.511
0.62268,74.316
0.65298,73.924
0.67742,73.533
0.69404,73.338
0.70577,72.751
0.71261,72.36
0.71359,71.773
0.71163,71.186
0.70674,70.6
0.69892,70.013
0.68817,69.426
0.67449,68.84
0.65885,68.253
0.64027,67.862
0.61975,67.471
0.59824,66.884
0.57478,66.297
0.55034,65.906
0.52981,65.319
0.51026,64.928
0.48974,64.342
0.47019,63.755
0.45161,63.364
0.435,62.777
0.42033,62.19
0.40762,61.604
0.39589,61.213
0.3871,60.626
0.3783,60.235
0.37146,59.844
0.36657,59.257
0.36266,58.866
0.35875,58.67
0.35484,58.475
0.35093,58.67
0.34702,59.648
0.34409,61.799
0.34018,65.906
0.33627,72.36
0.33333,80.574
0.32942,89.765
0.32551,98.566
0.3216,106.78
0.31867,114.02
0.31574,119.88
0.31281,124.19
0.3089,127.12
0.30499,128.68
0.30108,128.88
0.29717,128.29
0.29423,126.92
0.29032,124.77
0.28641,122.43
0.28348,119.88
0.27957,117.14
0.27761,114.02
0.27566,110.69
0.27273,106.98
0.26979,103.06
0.26686,98.957
0.26393,94.655
0.261,90.352
0.25806,86.636
0.25513,83.507
0.2522,80.769
0.24829,78.618
0.24536,76.858
0.2434,75.489
0.2434,74.511
0.24633,73.924
0.25318,73.533
0.26686,73.338
0.28935,73.142
0.31867,73.142
0.35679,73.142
0.3998,73.142
0.44673,73.142
0.49365,73.142
0.53959,73.142
0.58065,72.947
0.61193,72.751
0.63636,72.555
0.65885,72.164
0.67644,71.773
0.68915,71.382
0.69697,70.991
0.70088,70.404
0.6999,69.818
0.69501,69.231
0.68622,68.84
0.67449,68.253
0.65982,67.666
0.64223,67.08
0.62463,66.688
0.60704,66.102
0.58553,65.711
0.56305,65.319
0.53959,64.733
0.51613,64.342
0.49462,63.755
0.47312,63.168
0.45455,62.777
0.43695,62.19
0.42229,61.799
0.41153,61.213
0.40469,60.821
0.39785,60.235
0.39101,59.844
0.38514,59.257
0.37928,58.866
0.37439,58.475
0.3695,58.083
0.36559,57.888
0.36168,58.083
0.35875,58.475
0.35484,59.844
0.35191,62.777
0.348,67.862
0.34604,75.098
0.34409,83.898
0.34115,92.894
0.33822,101.11
0.33431,108.74
0.3304,115.38
0.32649,120.67
0.32356,124.19
0.31965,126.53
0.31574,127.51
0.31281,127.51
0.3089,126.53
0.30694,124.77
0.30499,122.62
0.30205,120.27
0.29912,117.54
0.29619,114.6
0.29228,111.28
0.28935,107.76
0.28641,104.04
0.2825,99.935
0.27957,95.632
0.27664,91.525
0.2737,87.614
0.27077,84.094
0.26882,81.16
0.26686,78.814
0.26393,76.858
0.26197,75.489
0.26002,74.316
0.26002,73.533
0.26393,73.142
0.27468,72.751
0.29228,72.751
0.31867,72.555
0.35288,72.555
0.39394,72.555
0.43304,72.555
0.47116,72.751
0.51417,72.555
0.55718,72.555
0.59629,72.36
0.6305,72.164
0.65982,71.969
0.68231,71.578
0.69795,71.186
0.7087,70.795
0.71457,70.209
0.71554,69.622
0.71261,69.231
0.70577,68.644
0.69697,68.057
0.68524,67.666
0.6696,67.08
0.652,66.493
0.63245,66.102
0.60997,65.711
0.58749,65.124
0.56403,64.733
0.54057,64.342
0.51711,63.755
0.49658,63.168
0.47801,62.777
0.46334,62.19
0.44868,61.604
0.435,61.213
0.42229,60.626
0.41153,60.235
0.40274,59.648
0.39492,59.257
0.38807,58.67
0.38221,58.279
0.37732,57.888
0.37341,57.692
0.3695,57.497
0.36657,57.692
0.36461,58.475
0.36168,60.626
0.35875,64.537
0.35484,70.795
0.35191,79.009
0.348,88.005
0.34506,97.001
0.34115,105.41
0.33724,112.65
0.33333,118.9
0.32942,123.79
0.32747,126.92
0.32454,128.68
0.3216,129.27
0.31867,128.88
0.31476,127.51
0.31183,125.75
0.30792,123.6
0.30499,121.06
0.30205,118.51
0.29814,115.38
0.29521,112.26
0.2913,108.74
0.28837,104.82
0.28641,100.72
0.28446,96.61
0.2825,92.308
0.27957,88.396
0.27664,84.876
0.27273,81.943
0.26979,79.4
0.26588,77.64
0.26393,76.076
0.26295,75.098
0.26491,74.316
0.2737,73.729
0.28543,73.533
0.30303,73.338
0.32942,73.338
0.36559,73.338
0.40762,73.338
0.45455,73.338
0.50244,73.142
0.55034,73.142
0.59335,72.947
0.63245,72.947
0.66471,72.555
0.6911,72.36
0.70772,71.969
0.71945,71.578
0.72727,71.186
0.73216,70.6
0.73314,70.013
0.73021,69.426
0.72336,69.035
0.71261,68.449
0.6999,67.862
0.68328,67.471
0.66471,66.884
0.64321,66.493
0.62072,65.906
0.59922,65.515
0.57869,64.928
0.55718,64.537
0.5347,63.95
0.51222,63.559
0.49169,62.973
0.47312,62.386
0.4565,61.799
0.44184,61.408
0.42913,60.821
0.41838,60.43
0.40958,59.844
0.40274,59.452
0.39687,59.061
0.39101,58.475
0.38612,58.083
0.38123,57.888
0.37732,58.083
0.37341,58.475
0.3695,59.844
0.36657,62.973
0.36266,68.449
0.35875,75.88
0.35582,84.876
0.35191,93.872
0.34897,102.67
0.34604,110.5
0.34311,117.34
0.3392,122.62
0.33627,126.53
0.33236,128.68
0.32845,129.86
0.32454,129.86
0.32063,128.68
0.31769,127.12
0.31378,125.16
0.31085,122.82
0.30792,120.27
0.30596,117.34
0.30303,114.41
0.3001,111.08
0.29619,107.56
0.29326,103.65
0.28935,99.544
0.28641,95.437
0.2825,91.33
0.27957,87.419
0.27664,84.094
0.27273,81.356
0.26882,79.205
0.26686,77.445
0.26588,76.076
0.26588,75.098
0.26979,74.511
0.27957,73.924
0.29717,73.729
0.32258,73.533
0.35679,73.533
0.39785,73.533
0.44477,73.533
0.49365,73.533
0.54154,73.533
0.58065,73.729
0.61388,73.533
0.64614,73.533
0.67546,73.338
0.69892,72.947
0.71652,72.555
0.72825,72.164
0.73607,71.773
0.73803,71.186
0.73705,70.6
0.73216,70.209
0.72336,69.622
0.71065,69.231
0.69795,68.644
0.68231,68.253
0.66373,67.666
0.64321,67.275
0.62072,66.884
0.59726,66.297
0.5738,65.906
0.54936,65.319
0.52688,64.928
0.50538,64.342
0.48583,63.95
0.46725,63.364
0.45357,62.973
0.44184,62.386
0.43109,61.799
0.42033,61.408
0.41153,61.017
0.40469,60.626
0.39785,60.039
0.39198,59.648
0.3871,59.452
0.38319,59.257
0.37928,59.452
0.37634,60.43
0.37243,62.777
0.37048,67.08
0.36852,73.924
0.36559,82.529
0.36266,91.917
0.35973,101.11
0.35484,109.71
0.34995,117.14
0.34506,123.21
0.34115,127.9
0.33724,130.83
0.33333,132.4
0.3304,132.79
0.32747,132.2
0.32551,130.83
0.32258,128.88
0.31965,126.92
0.31672,124.38
0.31378,122.03
0.31085,119.3
0.30792,116.36
0.30499,113.23
0.30205,109.71
0.29912,105.8
0.29619,101.69
0.29326,97.588
0.2913,93.481
0.28935,89.57
0.28739,86.245
0.28543,83.703
0.2825,81.356
0.28055,79.791
0.27957,78.422
0.2825,77.445
0.29032,76.858
0.30596,76.467
0.3304,76.271
0.36364,76.271
0.39785,76.271
0.435,76.271
0.47996,76.271
0.52884,76.271
0.57771,76.271
0.62268,76.076
0.66276,75.88
0.69599,75.685
0.72336,75.293
0.74389,74.902
0.75855,74.316
0.76833,73.729
0.77224,73.142
0.77224,72.555
0.76833,71.969
0.76149,71.382
0.75171,70.6
0.73998,70.013
0.72532,69.426
0.7087,68.84
0.68915,68.253
0.66667,67.666
0.64418,67.275
0.61975,66.688
0.59531,66.102
0.5738,65.711
0.55425,65.124
0.5347,64.733
0.51515,64.146
0.49756,63.559
0.48094,62.973
0.46725,62.582
0.45552,61.995
0.44477,61.408
0.43597,60.821
0.42913,60.235
0.42229,59.844
0.4174,59.452
0.41251,59.257
0.40958,59.061
0.40567,59.452
0.40176,61.017
0.39785,64.146
0.39394,69.818
0.39003,77.836
0.38612,87.223
0.38221,96.806
0.37732,105.8
0.37243,113.82
0.36852,120.67
0.36461,125.95
0.3607,129.66
0.35679,131.81
0.35191,132.59
0.348,132.2
0.34311,131.03
0.3392,129.27
0.33529,127.12
0.3304,124.77
0.32649,122.23
0.3216,119.49
0.31769,116.56
0.31378,113.43
0.30987,109.91
0.30792,106.19
0.30401,102.28
0.3001,97.979
0.29619,93.872
0.29228,89.765
0.28837,86.245
0.28348,83.312
0.27859,80.965
0.27468,78.814
0.27175,77.445
0.27077,76.271
0.27468,75.489
0.2825,74.902
0.29814,74.707
0.32258,74.511
0.35582,74.511
0.39687,74.511
0.44379,74.316
0.49365,74.316
0.54252,74.316
0.58847,74.12
0.62952,73.924
0.66373,73.729
0.68817,73.533
0.70577,72.947
0.72043,72.555
0.73021,71.969
0.73607,71.382
0.73803,70.795
0.73607,70.209
0.73021,69.622
0.72239,69.035
0.71065,68.449
0.69599,67.862
0.6784,67.471
0.65885,66.884
0.6393,66.493
0.61975,65.906
0.59726,65.515
0.5738,65.124
0.54936,64.537
0.5259,64.146
0.50342,63.559
0.48192,62.973
0.46334,62.582
0.44575,61.995
0.43109,61.408
0.41838,60.821
0.4086,60.235
0.40078,59.844
0.39296,59.452
0.38612,58.866
0.38025,58.475
0.37439,58.083
0.3695,57.888
0.36559,57.692
0.36168,58.083
0.35679,59.061
0.35288,61.604
0.34897,66.102
0.34506,73.142
0.34213,81.943
0.3392,91.33
0.33627,100.33
0.33236,108.54
0.32747,115.58
0.32356,121.25
0.31867,125.36
0.31476,127.71
0.31085,128.88
0.30694,128.88
0.30303,128.1
0.29912,126.34
0.29619,124.19
0.29423,121.84
0.2913,119.3
0.28837,116.36
0.28543,113.23
0.28152,109.91
0.27761,106.19
0.2737,102.48
0.27077,98.175
0.26686,94.068
0.26393,89.961
0.26002,86.05
0.25709,82.725
0.25513,79.987
0.25318,77.836
0.25024,76.076
0.24829,74.707
0.24731,73.729
0.24927,73.142
0.25611,72.751
0.27077,72.555
0.29326,72.36
0.32551,72.36
0.36559,72.36
0.41153,72.36
0.45455,72.36
0.49462,72.36
0.53959,72.36
0.5826,72.164
0.62072,71.969
0.65396,71.773
0.67937,71.578
0.6999,71.186
0.71261,70.6
0.72141,70.209
0.72434,69.622
0.72336,69.035
0.7175,68.449
0.70968,67.862
0.69892,67.471
0.68524,66.884
0.66862,66.297
0.65005,65.906
0.62854,65.319
0.60508,64.928
0.58065,64.342
0.55621,63.95
0.53177,63.364
0.50831,62.973
0.48583,62.386
0.46725,61.799
0.45259,61.213
0.43695,60.821
0.42326,60.235
0.41056,59.648
0.3998,59.257
0.39101,58.866
0.38319,58.279
0.37634,57.888
0.37048,57.497
0.36559,57.106
0.36168,56.91
0.35777,56.91
0.35484,56.91
0.35288,57.692
0.34995,59.648
0.34702,63.168
0.34311,69.035
0.34018,76.858
0.33627,85.463
0.33236,94.068
0.32845,101.89
0.32454,108.74
0.32063,114.6
0.31672,118.9
0.31378,121.84
0.31183,123.4
0.3089,123.99
0.30499,123.21
0.30205,121.84
0.29814,119.88
0.29423,117.54
0.2913,114.8
0.28739,112.06
0.28348,108.93
0.27957,105.61
0.27664,101.89
0.2737,97.979
0.27273,93.677
0.27175,89.57
0.26979,85.854
0.26784,82.334
0.26491,79.4
0.26197,76.858
0.25904,74.902
0.25513,73.338
0.25318,72.36
0.25122,71.578
0.2522,70.991
0.25806,70.795
0.26784,70.6
0.2825,70.6
0.30596,70.6
0.33724,70.6
0.37537,70.6
0.41838,70.6
0.46334,70.6
0.50733,70.6
0.54936,70.6
0.58651,70.404
0.61779,70.209
0.64321,69.818
0.66178,69.426
0.67449,69.035
0.68035,68.449
0.68426,68.057
0.68426,67.471
0.68133,66.884
0.67449,66.493
0.66471,65.906
0.65103,65.515
0.63539,65.124
0.61681,64.537
0.59042,64.342
0.56598,63.755
0.55034,63.364
0.53372,62.973
0.51417,62.386
0.49462,61.995
0.4741,61.408
0.4565,61.017
0.43988,60.43
0.42522,60.039
0.41251,59.452
0.40176,58.866
0.39296,58.475
0.38514,58.083
0.3783,57.497
0.37439,57.106
0.37048,56.715
0.36657,56.323
0.36364,55.932
0.35973,55.932
0.35679,56.323
0.35386,57.106
0.35093,59.257
0.348,63.168
0.34506,69.622
0.34115,77.64
0.33822,86.441
0.33529,95.046
0.33333,102.87
0.3304,109.91
0.32747,115.58
0.32454,119.88
0.32063,122.82
0.31769,124.19
0.31378,124.58
0.31085,123.99
0.30792,122.62
0.30499,120.67
0.30205,118.32
0.29912,115.78
0.29717,112.84
0.29521,109.91
0.29228,106.58
0.28935,102.87
0.28641,99.153
0.28348,95.046
0.28055,90.939
0.27761,87.027
0.27468,83.312
0.27077,80.378
0.26784,77.836
0.26491,75.685
0.26295,74.12
0.261,72.751
0.26002,71.969
0.261,71.382
0.26588,70.991
0.27664,70.795
0.29521,70.795
0.32258,70.795
0.35679,70.795
0.39785,70.795
0.44379,70.795
0.48974,70.795
0.52981,70.795
0.56403,70.6
0.59824,70.6
0.6305,70.404
0.65689,70.013
0.67742,69.622
0.69306,69.231
0.70283,68.644
0.70772,68.057
0.7087,67.666
0.70479,67.08
0.69795,66.688
0.68719,66.102
0.67546,65.711
0.66178,65.124
0.64418,64.537
0.62463,64.146
0.60411,63.755
0.58162,63.364
0.55816,62.973
0.53568,62.386
0.5132,61.799
0.49267,61.408
0.47312,60.821
0.45552,60.43
0.44184,59.844
0.43011,59.452
0.41935,59.061
0.40958,58.475
0.40078,58.083
0.39296,57.692
0.3871,57.106
0.38123,56.715
0.37634,56.519
0.37243,56.128
0.36852,56.128
0.36559,56.323
0.36168,57.497
0.35973,59.844
0.35679,64.342
0.35484,70.991
0.35093,79.205
0.348,88.005
0.34409,96.61
0.34115,104.24
0.33724,111.08
0.33333,116.56
0.32942,120.86
0.32551,123.6
0.3216,124.77
0.31867,124.97
0.31672,124.19
0.31378,122.82
0.31085,120.86
0.30792,118.51
0.30401,115.97
0.30108,113.23
0.29814,110.3
0.29423,107.17
0.2913,103.65
0.28837,99.739
0.28446,95.828
0.28152,91.917
0.27957,87.81
0.27761,84.289
0.27468,81.16
0.27273,78.618
0.26979,76.467
0.26686,74.707
0.26393,73.533
0.26295,72.555
0.26393,71.969
0.27077,71.382
0.28446,71.186
0.30499,70.991
0.32942,70.991
0.35875,70.991
0.39687,70.991
0.43988,70.991
0.48583,70.991
0.53177,70.991
0.57478,70.795
0.6129,70.6
0.64516,70.6
0.67058,70.209
0.6911,69.818
0.70479,69.426
0.71359,69.035
0.71652,68.449
0.71652,67.862
0.71261,67.471
0.70577,66.884
0.69697,66.493
0.68426,65.906
0.6696,65.515
0.652,65.124
0.63245,64.537
0.61095,64.146
0.58847,63.755
0.565,63.168
0.54448,62.777
0.52493,62.386
0.50538,61.799
0.4868,61.213
0.46823,60.821
0.45259,60.235
0.43793,59.844
0.42522,59.257
0.41447,58.866
0.40567,58.279
0.39785,57.888
0.39101,57.301
0.38514,56.91
0.38123,56.519
0.37732,56.323
0.37439,56.519
0.37048,56.91
0.36755,58.475
0.36364,61.799
0.3607,67.471
0.35679,75.098
0.35386,84.094
0.34995,93.09
0.34604,101.5
0.34213,109.13
0.33822,115.58
0.33627,120.86
0.33236,124.38
0.32942,126.53
0.32649,127.31
0.32356,127.31
0.31965,126.14
0.31672,124.58
0.31378,122.62
0.31085,120.27
0.30694,117.93
0.30303,115.19
0.3001,112.26
0.29717,109.13
0.29423,105.8
0.2913,102.28
0.28837,98.37
0.28543,94.263
0.28152,90.352
0.27859,86.636
0.27566,83.507
0.27175,80.769
0.26784,78.618
0.26588,76.858
0.26588,75.685
0.26882,74.707
0.27664,73.924
0.29032,73.533
0.31281,73.338
0.34409,73.338
0.38514,73.142
0.435,73.142
0.47312,73.142
0.51808,73.142
0.57674,73.142
0.62561,73.142
0.66569,73.142
0.69501,72.947
0.71554,72.751
0.73412,72.36
0.74682,71.969
0.75562,71.578
0.76051,71.186
0.76051,70.6
0.7566,70.209
0.74878,69.622
0.73803,69.035
0.72434,68.644
0.70772,68.057
0.6911,67.666
0.67253,67.275
0.652,66.688
0.62952,66.297
0.60508,65.906
0.58162,65.319
0.55816,64.733
0.53568,64.342
0.51515,63.755
0.49658,63.364
0.47996,62.973
0.4653,62.386
0.45259,61.799
0.44282,61.408
0.435,61.017
0.42717,60.43
0.42033,60.039
0.41447,59.648
0.40958,59.257
0.40469,58.866
0.40078,58.866
0.39785,59.061
0.39394,60.235
0.39003,62.777
0.3871,67.471
0.38514,74.511
0.38221,83.116
0.37928,92.503
0.37634,101.3
0.37243,109.32
0.3695,116.36
0.36559,122.03
0.36168,126.34
0.35875,128.88
0.35484,130.25
0.35191,130.44
0.348,129.66
0.34604,128.29
0.34409,126.53
0.34115,124.38
0.33822,122.23
0.33529,119.69
0.33138,117.14
0.32845,114.21
0.32551,111.08
0.32258,107.56
0.31965,103.85
0.31672,99.935
0.31281,95.828
0.30987,91.917
0.30792,88.396
0.30596,85.267
0.30303,82.725
0.30108,80.378
0.29912,78.618
0.3001,77.445
0.30596,76.467
0.31965,75.685
0.34018,75.293
0.37048,75.098
0.4086,74.902
0.45357,74.902
0.49462,74.902
0.5347,74.902
0.57869,74.902
0.6217,74.902
0.6608,74.707
0.69501,74.316
0.72336,74.12
0.74487,73.729
0.76051,73.142
0.77028,72.555
0.77517,72.164
0.77615,71.578
0.77322,70.795
0.76735,70.209
0.75855,69.622
0.74682,69.035
0.73216,68.644
0.71554,68.057
0.69697,67.471
0.67644,67.08
0.65396,66.493
0.6305,65.906
0.60704,65.515
0.58358,64.928
0.56109,64.537
0.54154,63.95
0.52395,63.364
0.50733,62.973
0.49071,62.386
0.47703,61.799
0.46432,61.408
0.45259,60.821
0.44282,60.43
0.435,59.844
0.42815,59.452
0.42229,59.061
0.41642,58.67
0.41153,58.279
0.40762,58.279
0.40371,58.475
0.3998,59.844
0.39492,62.973
0.39003,68.253
0.38514,75.88
0.38025,84.876
0.37537,94.263
0.3695,103.26
0.36461,111.28
0.35875,118.12
0.35386,123.4
0.34995,127.12
0.34604,129.47
0.34213,130.44
0.33822,130.25
0.33333,129.27
0.32942,127.71
0.32551,125.55
0.32063,123.4
0.31672,120.86
0.31183,118.32
0.30792,115.38
0.30401,112.26
0.3001,108.74
0.29717,105.22
0.29423,101.11
0.2913,97.197
0.28837,93.09
0.28446,89.179
0.28055,85.658
0.27664,82.725
0.27273,80.378
0.26882,78.227
0.26784,76.858
0.26979,75.685
0.27859,74.902
0.2913,74.316
0.30987,73.924
0.33822,73.729
0.37537,73.729
0.42033,73.729
0.46823,73.533
0.51808,73.533
0.56598,73.533
0.60997,73.533
0.64809,73.338
0.68035,72.947
0.70479,72.751
0.72336,72.36
0.73412,71.969
0.73998,71.578
0.74194,70.991
0.74096,70.404
0.73705,69.818
0.73021,69.231
0.72043,68.644
0.70772,68.057
0.69208,67.666
0.67351,67.275
0.65396,66.688
0.63148,66.102
0.61095,65.711
0.59042,65.319
0.56794,64.733
0.54545,64.342
0.52199,63.755
0.50147,63.364
0.48094,62.777
0.46334,62.19
0.4477,61.604
0.43402,61.017
0.42131,60.626
0.41153,60.039
0.40274,59.648
0.39687,59.257
0.39101,58.67
0.38612,58.279
0.38123,57.888
0.37732,57.497
0.37243,57.497
0.36852,57.888
0.36461,58.866
0.3607,61.017
0.35679,65.319
0.35288,71.969
0.34897,80.183
0.34604,89.179
0.34311,97.784
0.3392,105.61
0.33529,112.65
0.33138,118.12
0.32747,122.23
0.32258,124.77
0.31867,126.14
0.31476,126.34
0.31085,125.55
0.30694,123.99
0.30303,122.23
0.29912,119.88
0.29717,117.34
0.29521,114.6
0.29228,111.47
0.28935,108.34
0.28543,104.82
0.2825,100.91
0.27859,96.806
0.27566,92.699
0.27273,88.788
0.26882,85.072
0.26588,81.943
0.26197,79.205
0.25904,77.054
0.25806,75.293
0.25611,74.12
0.25709,73.142
0.26197,72.555
0.27273,72.164
0.2913,72.164
0.31965,71.969
0.35484,71.969
0.39785,71.969
0.44575,71.969
0.49462,71.969
0.54154,71.969
0.58065,71.773
0.61193,71.773
0.64223,71.578
0.6696,71.186
0.69013,70.795
0.70674,70.6
0.71652,70.013
0.72141,69.622
0.72239,69.035
0.71945,68.644
0.71163,68.057
0.70186,67.471
0.68328,66.884
0.65982,66.493
0.63832,65.906
0.61681,65.515
0.59433,64.928
0.57185,64.537
0.54839,64.146
0.5259,63.559
0.50342,63.168
0.48192,62.777
0.46237,62.19
0.44477,61.604
0.42913,61.213
0.4174,60.626
0.40762,60.235
0.39785,59.648
0.38905,59.257
0.38221,58.67
0.37537,58.279
0.3695,57.888
0.36559,57.301
0.3607,56.91
0.35777,56.715
0.35386,56.715
0.35093,56.91
0.348,58.083
0.34604,60.235
0.34311,64.537
0.34018,70.991
0.33627,79.009
0.33333,87.81
0.32942,96.219
0.32551,104.04
0.3216,110.69
0.31769,116.36
0.31378,120.27
0.30987,123.01
0.30792,124.19
0.30596,124.38
0.30303,123.79
0.3001,122.43
0.29717,120.47
0.29326,118.12
0.29032,115.58
0.28739,112.84
0.28446,109.71
0.28055,106.39
0.27761,102.87
0.27468,98.957
0.27175,95.046
0.26979,90.939
0.26784,87.223
0.26588,83.703
0.26295,80.769
0.26002,78.227
0.25709,76.271
0.25415,74.707
0.2522,73.533
0.25318,72.751
0.25904,72.164
0.27077,71.773
0.28935,71.578
0.31183,71.382
0.3392,71.382
0.37537,71.382
0.4174,71.382
0.46334,71.382
0.50831,71.186
0.55132,71.186
0.59042,70.991
0.62366,70.795
0.65005,70.6
0.67058,70.404
0.68622,70.013
0.69501,69.622
0.69892,69.035
0.69892,68.644
0.69599,68.057
0.69013,67.666
0.68133,67.08
0.66862,66.688
0.65396,66.102
0.63636,65.711
0.61681,65.124
0.59531,64.733
0.57283,64.342
0.55034,63.755
0.52981,63.364
0.51124,62.973
0.49267,62.386
0.47312,61.799
0.45552,61.408
0.43988,60.821
0.4262,60.43
0.41349,59.844
0.40371,59.452
0.39492,58.866
0.3871,58.475
0.38123,58.083
0.37537,57.497
0.37146,57.106
0.36755,56.715
0.36461,56.519
0.3607,56.519
0.35777,56.91
0.35386,58.083
0.35093,60.626
0.34702,65.319
0.34409,72.164
0.34018,80.574
0.33724,89.374
0.33333,97.784
0.3304,105.22
0.32845,111.86
0.32551,117.34
0.32258,121.06
0.31867,123.6
0.31574,124.77
0.31183,124.97
0.3089,123.99
0.30499,122.62
0.30205,120.67
0.29814,118.32
0.29521,115.97
0.29228,113.23
0.28935,110.3
0.28739,107.17
0.28543,103.65
0.2825,99.935
0.27859,96.024
0.27566,91.917
0.27273,88.005
0.26979,84.289
0.26588,81.356
0.26295,78.814
0.25904,76.662
0.25709,74.902
0.25611,73.729
0.25709,72.751
0.26197,72.164
0.27273,71.773
0.2913,71.578
0.31672,71.578
0.35093,71.382
0.39198,71.382
0.43695,71.382
0.48387,71.382
0.52884,71.382
0.57185,71.186
0.60899,71.186
0.63734,70.991
0.65885,70.795
0.67742,70.404
0.69208,70.013
0.70186,69.622
0.70772,69.231
0.7087,68.644
0.70674,68.057
0.70088,67.666
0.6911,67.08
0.67937,66.493
0.66373,66.102
0.64809,65.515
0.6305,65.124
0.61095,64.733
0.58944,64.146
0.56696,63.755
0.5435,63.168
0.52102,62.777
0.49951,62.386
0.47996,61.799
0.46139,61.408
0.44477,60.821
0.43109,60.235
0.41838,59.844
0.4086,59.257
0.40078,58.866
0.39394,58.279
0.3871,57.888
0.38123,57.497
0.37634,57.106
0.37243,56.715
0.36755,56.519
0.36461,56.715
0.3607,57.301
0.35777,59.061
0.35386,62.582
0.35093,68.253
0.34897,76.076
0.34604,84.876
0.34213,93.677
0.33822,101.89
0.33529,109.32
0.33138,115.58
0.32747,120.47
0.32356,123.99
0.31965,125.95
0.31672,126.73
0.31281,126.53
0.3089,125.55
0.30596,123.99
0.30401,122.23
0.30108,119.88
0.29814,117.54
0.29423,114.8
0.2913,111.86
0.28739,108.74
0.28446,105.22
0.28055,101.3
0.27761,97.393
0.27468,93.286
0.27077,89.374
0.26882,85.658
0.26686,82.529
0.26393,79.791
0.261,77.836
0.25806,76.271
0.25709,75.098
0.25904,74.12
0.26686,73.533
0.28152,73.142
0.30401,72.947
0.33529,72.947
0.37439,72.947
0.41935,72.947
0.46041,72.947
0.49853,72.947
0.54057,72.947
0.58162,72.947
0.61877,72.751
0.65103,72.555
0.67644,72.36
0.69599,72.164
0.71065,71.773
0.71945,71.382
0.72434,70.795
0.72434,70.404
0.72043,70.013
0.71457,69.426
0.70479,69.035
0.69306,68.449
0.6784,68.057
0.6608,67.471
0.64125,67.08
0.61975,66.688
0.59726,66.102
0.5738,65.711
0.55034,65.319
0.52786,64.733
0.50831,64.342
0.49071,63.755
0.4741,63.168
0.45748,62.777
0.44379,62.19
0.43109,61.799
0.42033,61.408
0.41153,60.821
0.40567,60.43
0.3998,59.844
0.39492,59.452
0.39003,59.257
0.38612,58.866
0.38221,58.866
0.38025,59.452
0.37732,60.626
0.37341,63.755
0.37048,68.84
0.36755,76.467
0.36461,85.267
0.3607,94.263
0.35777,102.87
0.35386,110.89
0.35093,117.73
0.34702,123.01
0.34506,126.92
0.34213,129.27
0.34018,130.44
0.33724,130.44
0.33333,129.66
0.3304,128.1
0.32747,126.34
0.32454,124.38
0.3216,122.03
0.31867,119.69
0.31574,117.14
0.31281,114.21
0.30987,111.08
0.30694,107.56
0.30596,103.85
0.30303,99.739
0.30108,95.828
0.29814,91.917
0.29521,88.396
0.29228,85.267
0.28935,82.725
0.28641,80.769
0.28543,79.205
0.28739,78.227
0.29521,77.249
0.30596,76.662
0.32356,76.467
0.34995,76.271
0.38612,76.271
0.42913,76.076
0.47605,76.076
0.5259,76.076
0.5738,75.88
0.61975,75.88
0.65982,75.685
0.69306,75.293
0.72043,74.902
0.74194,74.316
0.75464,73.729
0.76149,73.338
0.76637,72.555
0.76833,71.969
0.76735,71.382
0.76246,70.795
0.75464,70.209
0.74389,69.622
0.73021,69.035
0.71359,68.644
0.69404,68.253
0.67351,67.862
0.65298,67.471
0.63343,66.884
0.61095,66.493
0.58847,65.906
0.56598,65.319
0.5435,64.733
0.52395,64.146
0.50538,63.559
0.48876,62.973
0.47507,62.582
0.46237,61.995
0.45161,61.408
0.44282,60.821
0.43597,60.43
0.43011,59.844
0.42522,59.452
0.42033,59.061
0.41544,58.866
0.41056,59.061
0.40567,59.844
0.40176,62.19
0.39687,66.493
0.39198,73.533
0.38807,82.138
0.38319,91.721
0.3783,101.11
0.37537,109.71
0.37048,117.14
0.36559,123.4
0.3607,127.9
0.35679,130.64
0.35191,132.2
0.34702,132.59
0.34311,132.01
0.33822,130.64
0.33431,128.88
0.32942,127.12
0.32454,124.77
0.3216,122.43
0.31867,119.88
0.31476,116.95
0.31085,114.02
0.30596,110.69
0.30205,106.98
0.29814,103.06
0.29326,98.957
0.28935,94.85
0.28446,90.939
0.28055,87.419
0.27566,84.289
0.27273,81.943
0.26979,79.791
0.26882,78.422
0.27175,77.249
0.27957,76.467
0.29619,75.685
0.3216,75.293
0.35582,75.098
0.39687,75.098
0.44477,74.902
0.49462,74.902
0.54448,74.707
0.59042,74.511
0.62659,74.511
0.65591,74.12
0.68231,73.924
0.70577,73.729
0.72336,73.338
0.73509,72.751
0.74194,72.36
0.74487,71.773
0.74389,71.186
0.73998,70.6
0.73216,70.013
0.72141,69.426
0.70968,69.035
0.69599,68.449
0.67937,67.862
0.6608,67.471
0.6393,66.884
0.61681,66.493
0.59238,66.102
0.56794,65.515
0.54448,65.124
0.52102,64.537
0.49853,63.95
0.47898,63.364
0.46041,62.973
0.44575,62.386
0.43402,61.799
0.42229,61.213
0.41153,60.821
0.40274,60.235
0.39492,59.844
0.38807,59.257
0.38123,58.866
0.37634,58.475
0.37146,58.279
0.36657,58.475
0.36266,59.257
0.35875,61.408
0.35582,65.319
0.35288,71.578
0.34897,79.791
0.34506,88.788
0.34115,97.979
0.33627,106.19
0.33236,113.62
0.32747,119.69
0.32356,124.19
0.31965,127.31
0.31476,128.88
0.31085,129.47
0.30792,128.88
0.30596,127.71
0.30303,125.75
0.29912,123.79
0.29521,121.45
0.29228,118.9
0.28837,116.17
0.28446,113.23
0.28055,109.91
0.27664,106.19
0.2737,102.28
0.26979,98.175
0.26784,94.068
0.26588,89.961
0.26295,86.245
0.25904,83.116
0.25611,80.574
0.2522,78.422
0.24927,76.662
0.24829,75.489
0.25122,74.511
0.26002,73.924
0.27664,73.533
0.30205,73.338
0.33627,73.338
0.37146,73.142
0.4086,73.142
0.45357,73.142
0.50147,72.947
0.54839,72.947
0.5914,72.751
0.62854,72.555
0.65982,72.36
0.68524,72.164
0.70381,71.773
0.71554,71.382
0.72336,70.795
0.72532,70.404
0.72336,69.818
0.71848,69.231
0.71163,68.84
0.70088,68.253
0.68817,67.666
0.67253,67.275
0.65396,66.688
0.63343,66.297
0.61095,65.906
0.58651,65.319
0.56207,64.928
0.54057,64.537
0.52102,63.95
0.49951,63.364
0.47898,62.973
0.45943,62.386
0.44282,61.799
0.42717,61.408
0.41349,60.821
0.40176,60.235
0.39198,59.844
0.38416,59.452
0.37732,58.866
0.37048,58.475
0.36657,58.083
0.36266,57.888
0.35973,57.692
0.35582,57.888
0.35191,58.475
0.348,60.43
0.34506,64.146
0.34115,70.209
0.33724,78.227
0.33431,87.027
0.3304,95.828
0.32649,103.85
0.32356,111.08
0.3216,116.95
0.31867,121.64
0.31476,124.58
0.31183,126.34
0.30792,126.92
0.30499,126.53
0.30205,125.36
0.29814,123.4
0.29521,121.25
0.29228,118.9
0.28935,116.17
0.28543,113.23
0.28348,110.1
0.28152,106.58
0.27859,102.87
0.27566,98.761
0.27273,94.655
0.26979,90.548
0.26686,86.636
0.26393,83.312
0.26002,80.378
0.25709,78.031
0.25318,76.271
0.25122,74.707
0.25122,73.729
0.25415,72.947
0.261,72.555
0.2737,72.164
0.29423,72.164
0.32356,72.164
0.35973,72.164
0.40274,72.164
0.44868,72.164
0.49462,72.164
0.53959,71.969
0.57967,71.969
0.61486,71.773
0.64125,71.578
0.65982,71.186
0.67644,70.795
0.68915,70.6
0.69697,70.013
0.70088,69.426
0.6999,69.035
0.69599,68.449
0.68915,67.862
0.6784,67.471
0.66471,66.884
0.64809,66.493
0.63148,65.906
0.61388,65.515
0.59335,64.928
0.57185,64.537
0.54839,64.146
0.5259,63.559
0.50342,62.973
0.48192,62.582
0.46237,61.995
0.44477,61.408
0.42913,61.017
0.41544,60.43
0.40371,60.039
0.39492,59.452
0.38807,59.061
0.38221,58.475
0.37634,58.083
0.37048,57.692
0.36657,57.301
0.36266,57.106
0.35875,56.91
0.35582,57.301
0.35191,58.475
0.34897,61.017
0.34604,65.711
0.34311,72.555
0.34115,81.16
0.3392,89.961
0.33529,98.37
0.33236,106.19
0.32845,113.04
0.32454,118.51
0.3216,122.43
0.31769,124.97
0.31378,126.14
0.31085,126.14
0.30694,125.55
0.30401,123.99
0.30108,122.23
0.29912,120.08
0.29619,117.73
0.29326,114.99
0.28935,112.26
0.28641,108.93
0.28348,105.61
0.27957,101.69
0.27664,97.784
0.2737,93.677
0.26979,89.765
0.26686,86.05
0.26491,82.921
0.26295,80.183
0.26002,78.227
0.25709,76.467
0.25513,75.098
0.25415,74.12
0.25806,73.533
0.26784,73.142
0.28446,72.947
0.30987,72.947
0.34311,72.751
0.38319,72.751
0.42913,72.947
0.46921,72.947
0.50733,72.751
0.54741,72.751
0.58651,72.751
0.62072,72.555
0.64907,72.36
0.67155,72.164
0.68817,71.773
0.6999,71.382
0.70674,70.795
0.7087,70.404
0.70674,70.013
0.70186,69.426
0.69404,69.035
0.68328,68.449
0.67058,68.057
0.65396,67.471
0.63539,67.08
0.61584,66.688
0.59335,66.297
0.57087,65.906
0.54741,65.515
0.52493,64.928
0.50342,64.537
0.48387,64.146
0.46725,63.559
0.45259,63.168
0.43988,62.582
0.42717,62.19
0.41642,61.799
0.40665,61.213
0.39785,60.821
0.39101,60.235
0.38514,59.844
0.38025,59.452
0.37537,59.257
0.37243,59.257
0.3695,59.452
0.36755,60.43
0.36461,62.777
0.36168,67.275
0.35875,74.12
0.35582,82.529
0.35288,91.721
0.34897,100.52
0.34604,108.54
0.34311,115.58
0.34018,121.45
0.33724,125.75
0.33431,128.68
0.33236,130.05
0.3304,130.44
0.32747,129.86
0.32551,128.49
0.32258,126.73
0.31965,124.58
0.31769,122.43
0.31476,120.08
0.31183,117.34
0.30987,114.41
0.30694,111.28
0.30401,107.76
0.30205,104.04
0.30108,100.13
0.29912,96.024
0.29717,92.112
0.29423,88.592
0.2913,85.463
0.28837,82.921
0.28641,80.769
0.28446,79.205
0.28446,78.031
0.28837,77.054
0.29912,76.662
0.31672,76.271
0.33724,76.076
0.36364,76.076
0.39883,76.076
0.44086,76.076
0.4868,76.076
0.53372,75.88
0.57771,75.685
0.61877,75.489
0.65298,75.098
0.68231,74.707
0.70479,74.12
0.72239,73.533
0.73216,73.142
0.73705,72.36
0.739,71.773
0.739,71.186
0.73509,70.6
0.72825,70.209
0.71945,69.622
0.70674,69.035
0.69208,68.644
0.67546,68.253
0.64516,67.862
0.62561,67.275
0.60606,66.884
0.57576,66.297
0.55425,65.906
0.53372,65.319
0.51417,64.733
0.4956,64.146
0.47996,63.559
0.4653,62.973
0.45357,62.386
0.44282,61.799
0.43304,61.408
0.4262,60.821
0.42033,60.235
0.41544,59.844
0.41056,59.452
0.40665,59.061
0.40176,58.866
0.39785,58.866
0.39394,59.648
0.38905,61.408
0.38514,65.319
0.38025,71.578
0.37537,79.987
0.37048,89.179
0.36657,98.566
0.36364,107.17
0.35875,114.8
0.35484,121.06
0.35093,125.95
0.34604,129.07
0.34213,130.83
0.33724,131.62
0.33333,131.23
0.32942,129.86
0.32551,128.1
0.32063,126.14
0.31672,123.99
0.31281,121.45
0.30987,118.71
0.30694,115.78
0.30205,112.65
0.29814,109.13
0.29423,105.41
0.29032,101.5
0.28641,97.197
0.28055,93.09
0.27664,89.179
0.27273,85.854
0.26784,82.921
0.26686,80.574
0.27077,78.618
0.28543,77.249
0.30499,76.076
0.33431,75.293
0.37048,74.902
0.41447,74.511
0.46139,74.316
0.50831,74.316
0.55425,74.316
0.59629,74.12
0.62757,74.12
0.652,73.924
0.67449,73.924
0.69892,73.533
0.70968,73.533
0.71652,73.142
0.71848,72.751
0.71554,72.36
0.7087,71.773
0.6999,71.186
0.68719,70.6
0.67449,70.013
0.65885,69.426
0.64125,69.035
0.6217,68.449
0.6002,67.862
0.57771,67.471
0.55425,66.884
0.53079,66.493
0.50831,65.906
0.48778,65.515
0.46823,64.928
0.45064,64.537
0.435,63.95
0.42229,63.364
0.41251,62.973
0.40274,62.386
0.39492,61.799
0.3871,61.213
0.38123,60.626
0.37537,60.235
0.37048,59.844
0.36559,59.257
0.36168,58.866
0.35777,58.475
0.35386,58.083
0.35093,57.888
0.34897,57.888
0.34604,58.475
0.34213,60.235
0.33822,63.755
0.33431,69.622
0.3304,77.64
0.32551,86.832
0.3216,95.828
0.31769,104.24
0.31378,111.86
0.30987,118.32
0.30596,123.01
0.30401,126.34
0.30108,128.29
0.29912,129.07
0.29521,128.68
0.29228,127.51
0.28837,125.75
0.28543,123.79
0.28152,121.25
0.27761,118.71
0.27468,115.78
0.27077,112.65
0.26784,109.32
0.26588,105.61
0.26393,101.69
0.261,97.588
0.25806,93.481
0.25513,89.374
0.25122,85.854
0.24927,82.725
0.25024,79.987
0.25611,77.836
0.26882,76.271
0.29032,75.098
0.31965,74.12
0.35777,73.533
0.39492,73.142
0.43304,72.751
0.47703,72.751
0.52199,72.555
0.565,72.555
0.60411,72.555
0.63636,72.555
0.66276,72.555
0.68328,72.36
0.69795,72.164
0.70674,72.164
0.71065,71.773
0.71065,71.382
0.70674,70.991
0.70088,70.6
0.6911,70.209
0.67937,69.622
0.66471,69.035
0.64712,68.449
0.62757,67.862
0.60606,67.471
0.58358,66.884
0.56012,66.493
0.53568,65.906
0.5132,65.515
0.49365,64.928
0.47605,64.537
0.45846,64.146
0.44184,63.559
0.42717,62.973
0.41349,62.582
0.40176,61.995
0.39198,61.408
0.38416,61.017
0.37732,60.43
0.37146,60.039
0.36559,59.452
0.36266,59.061
0.35973,58.475
0.35582,58.083
0.35288,57.692
0.34995,57.497
0.34702,57.301
0.34311,57.301
0.34018,57.888
0.33627,59.257
0.33333,62.386
0.32942,67.666
0.32551,75.098
0.3216,83.507
0.31867,92.308
0.31574,100.33
0.31281,107.76
0.30987,113.82
0.30694,118.71
0.30401,122.23
0.3001,124.19
0.29717,124.97
0.29326,124.77
0.29032,123.79
0.28641,122.03
0.28348,119.88
0.28152,117.54
0.27957,114.8
0.27664,111.86
0.2737,108.74
0.27077,105.22
0.26784,101.3
0.26393,97.393
0.261,93.286
0.25806,89.179
0.25415,85.463
0.25122,82.138
0.25024,79.596
0.25122,77.249
0.25513,75.489
0.26491,74.12
0.28152,73.142
0.30596,72.36
0.3392,71.969
0.37928,71.773
0.42326,71.578
0.47019,71.578
0.51613,71.382
0.55914,71.382
0.59726,71.382
0.62952,71.382
0.652,71.382
0.66862,71.186
0.68231,70.991
0.69208,70.795
0.69697,70.6
0.69795,70.404
0.69599,69.818
0.68915,69.426
0.67937,69.035
0.66667,68.449
0.65103,68.057
0.63245,67.471
0.61388,67.08
0.59531,66.493
0.57478,66.102
0.5523,65.515
0.52981,65.124
0.50733,64.733
0.4868,64.342
0.46725,63.755
0.44966,63.364
0.43304,62.973
0.41935,62.386
0.40762,61.995
0.39785,61.408
0.39003,61.017
0.38416,60.43
0.3783,59.844
0.37341,59.452
0.36852,59.061
0.36461,58.475
0.3607,58.083
0.35679,57.497
0.35386,57.106
0.35093,56.91
0.348,56.715
0.34506,56.91
0.34311,57.497
0.34018,59.061
0.33724,62.386
0.33431,68.057
0.3304,75.685
0.32747,84.485
0.32356,93.286
0.32063,101.5
0.31672,108.74
0.31281,114.99
0.30987,119.88
0.30596,123.4
0.30303,125.55
0.30108,126.34
0.29912,126.14
0.29619,124.97
0.29326,123.4
0.29032,121.25
0.28739,118.9
0.28348,116.36
0.28055,113.43
0.27761,110.3
0.2737,106.98
0.27077,103.26
0.26784,99.153
0.26588,95.046
0.26393,90.939
0.261,87.027
0.25806,83.703
0.25611,80.769
0.25611,78.422
0.261,76.467
0.27175,74.902
0.29032,73.924
0.31769,73.142
0.35288,72.751
0.39492,72.555
0.44086,72.36
0.48192,72.36
0.52395,72.36
0.57185,72.555
0.61388,72.555
0.65103,72.555
0.68035,72.555
0.70381,72.555
0.72043,72.555
0.73216,72.36
0.73803,72.164
0.739,71.969
0.73607,71.578
0.73021,71.186
0.72043,70.6
0.7087,70.209
0.69306,69.622
0.67546,69.231
0.65494,68.84
0.63245,68.253
0.60802,67.862
0.58358,67.275
0.55914,66.884
0.53568,66.493
0.51222,65.906
0.49169,65.515
0.4741,65.124
0.45943,64.537
0.44575,64.146
0.43304,63.559
0.42229,62.973
0.41251,62.582
0.40469,62.19
0.39785,61.604
0.39198,61.213
0.3871,60.821
0.38319,60.43
0.37928,59.844
0.37634,59.452
0.37439,59.061
0.37146,58.866
0.3695,58.866
0.36657,59.257
0.36364,60.235
0.3607,62.973
0.35679,67.666
0.35386,74.511
0.34995,83.116
0.34702,91.917
0.34311,100.72
0.34018,108.54
0.33724,115.38
0.33529,121.06
0.33236,125.36
0.32942,127.9
0.32649,129.27
0.32356,129.47
0.31965,128.68
0.31672,127.31
0.31378,125.55
0.31085,123.4
0.30792,121.06
0.30499,118.51
0.30303,115.58
0.30108,112.65
0.29912,109.32
0.29619,105.61
0.29326,101.89
0.29032,97.784
0.28739,93.872
0.28446,90.157
0.28152,86.832
0.2825,84.094
0.28641,81.747
0.29619,79.791
0.31378,78.422
0.33529,77.445
0.36168,76.662
0.39883,76.076
0.44184,75.88
0.48974,75.685
0.53763,75.685
0.58456,75.489
0.62659,75.489
0.66373,75.489
0.69404,75.489
0.71848,75.489
0.73705,75.293
0.7478,75.098
0.75269,74.707
0.75562,74.316
0.75562,73.729
0.75269,73.338
0.74585,72.751
0.73607,72.164
0.72336,71.382
0.7087,70.795
0.6911,70.209
0.67058,69.622
0.64907,69.035
0.62659,68.449
0.60606,67.862
0.58651,67.471
0.56598,67.08
0.54448,66.493
0.52493,66.102
0.50635,65.711
0.49071,65.124
0.47605,64.537
0.46334,64.146
0.45259,63.559
0.44379,62.973
0.43597,62.582
0.43011,61.995
0.42522,61.408
0.42033,60.821
0.41642,60.43
0.41153,59.844
0.40762,59.452
0.40274,59.061
0.39883,58.866
0.39492,59.061
0.39101,59.648
0.38612,61.799
0.38221,65.906
0.37732,72.36
0.37341,80.965
0.3695,90.352
0.36559,99.544
0.36168,108.15
0.35679,115.97
0.35191,122.23
0.348,127.12
0.34311,130.25
0.3392,131.81
0.33431,132.4
0.3304,131.81
0.32551,130.44
0.32258,128.68
0.31965,126.53
0.31574,124.19
0.31183,121.64
0.30792,118.9
0.30303,115.78
0.29912,112.65
0.29521,108.93
0.29032,105.22
0.28641,101.11
0.28152,97.001
0.27664,92.894
0.2737,88.983
0.27175,85.658
0.27273,82.725
0.27761,80.378
0.28935,78.618
0.3089,77.249
0.33822,76.271
0.37537,75.489
0.41935,75.098
0.46725,74.707
0.51613,74.707
0.56305,74.511
0.60606,74.511
0.6393,74.511
0.66569,74.511
0.68915,74.316
0.70772,74.316
0.72239,74.12
0.73216,73.924
0.73705,73.533
0.73705,73.142
0.73412,72.751
0.72825,72.164
0.71848,71.578
0.70577,70.991
0.69208,70.404
0.67742,69.818
0.65885,69.231
0.63832,68.84
0.61584,68.253
0.59238,67.666
0.56794,67.275
0.5435,66.688
0.52102,66.297
0.49853,65.906
0.47801,65.319
0.46041,64.733
0.44379,64.342
0.43109,63.755
0.42131,63.168
0.41153,62.777
0.40274,62.19
0.39492,61.604
0.38807,61.017
0.38221,60.626
0.37732,60.039
0.37243,59.648
0.36852,59.257
0.36461,58.866
0.3607,58.475
0.35777,58.279
0.35484,58.279
0.35093,59.061
0.348,60.821
0.34409,64.537
0.3392,70.404
0.33529,78.422
0.33138,87.419
0.32747,96.415
0.32258,105.02
0.31867,112.45
0.31476,118.9
0.31085,123.79
0.30792,127.12
0.30596,128.88
0.30303,129.47
0.29912,129.07
0.29521,127.9
0.29228,125.95
0.28837,123.79
0.28446,121.25
0.28055,118.71
0.27664,115.78
0.2737,112.45
0.26979,109.13
0.26784,105.41
0.26588,101.3
0.26295,97.197
0.26002,93.09
0.25611,88.983
0.2522,85.463
0.25024,82.529
0.25122,79.791
0.25611,77.836
0.26784,76.271
0.28739,75.098
0.31574,74.316
0.35288,73.729
0.39003,73.338
0.42815,73.142
0.47214,72.947
0.51808,72.947
0.56305,72.947
0.60215,72.947
0.63636,72.947
0.66471,72.947
0.68622,72.751
0.70186,72.751
0.71163,72.555
0.71652,72.164
0.7175,71.969
0.71457,71.578
0.7087,70.991
0.6999,70.6
0.68817,70.013
0.67351,69.426
0.65591,69.035
0.63636,68.449
0.6129,67.862
0.58847,67.471
0.56403,66.884
0.53959,66.493
0.51711,65.906
0.49756,65.515
0.47996,64.928
0.46237,64.537
0.44575,64.146
0.43109,63.559
0.41838,62.973
0.40665,62.386
0.39687,61.995
0.38905,61.408
0.38221,61.017
0.37537,60.43
0.37048,59.844
0.36657,59.452
0.36364,59.061
0.3607,58.475
0.35679,58.083
0.35386,57.888
0.35093,57.692
0.34702,57.692
0.34409,58.279
0.34018,59.648
0.33724,62.582
0.33333,67.666
0.32942,74.902
0.32551,83.507
0.32258,92.308
0.32063,100.72
0.31769,108.34
0.31378,114.8
0.31085,120.08
0.30694,123.79
0.30401,125.95
0.3001,127.12
0.29717,126.92
0.29326,125.75
0.29032,123.99
0.28641,121.84
0.28446,119.3
0.2825,116.56
0.27957,113.62
0.27566,110.3
0.27273,106.78
0.26979,102.87
0.26686,98.761
0.26295,94.655
0.26002,90.548
0.25611,86.832
0.25318,83.312
0.25122,80.574
0.25122,78.227
0.25513,76.271
0.26295,74.902
0.27761,73.729
0.29912,73.142
0.3304,72.555
0.36755,72.36
0.41153,72.164
0.45748,72.164
0.50342,72.164
0.54741,72.164
0.58749,72.36
0.6217,72.36
0.64712,72.36
0.66471,72.36
0.68035,72.164
0.69208,71.969
0.69892,71.773
0.70186,71.382
0.70088,70.991
0.69599,70.6
0.68817,70.013
0.67644,69.622
0.66178,69.035
0.64418,68.449
0.62463,68.057
0.60508,67.471
0.58553,67.08
0.56403,66.493
0.54252,65.906
0.52004,65.515
0.49853,65.124
0.47801,64.733
0.46041,64.342
0.44379,63.755
0.43011,63.168
0.4174,62.777
0.40665,62.19
0.39883,61.604
0.39198,61.213
0.38612,60.626
0.38123,60.039
0.37634,59.648
0.37243,59.061
0.36852,58.67
0.36461,58.279
0.36168,57.888
0.35875,57.692
0.35582,57.497
0.35288,57.692
0.34995,58.475
0.348,60.235
0.34506,63.95
0.34213,69.818
0.33822,77.64
0.33431,86.245
0.33138,94.85
0.32747,102.87
0.32356,109.91
0.31965,115.97
0.31574,120.67
0.31281,123.99
0.3089,125.75
0.30694,126.34
0.30499,126.14
0.30303,124.77
0.29912,123.01
0.29619,120.86
0.29326,118.32
0.28935,115.58
0.28641,112.65
0.2825,109.32
0.27957,105.8
0.27566,101.89
0.27273,97.784
0.27077,93.481
0.26882,89.374
0.26588,85.854
0.26295,82.529
0.261,79.791
0.261,77.64
0.26491,75.88
0.27566,74.707
0.29326,73.729
0.31867,73.142
0.35288,72.751
0.39296,72.555
0.43793,72.555
0.47801,72.555
0.51515,72.555
0.55425,72.751
0.5914,72.751
0.62463,72.751
0.65298,72.751
0.67449,72.751
0.6911,72.751
0.70186,72.555
0.70772,72.36
0.70968,71.969
0.70772,71.773
0.70186,71.186
0.69306,70.795
0.68133,70.209
0.66667,69.818
0.64907,69.231
0.62952,68.84
0.60899,68.253
0.58651,67.862
0.56305,67.471
0.54057,67.08
0.51808,66.688
0.49658,66.102
0.47801,65.711
0.46237,65.319
0.44868,64.733
0.43597,64.342
0.42424,63.95
0.41447,63.364
0.40567,62.973
0.39785,62.582
0.39198,61.995
0.3871,61.604
0.38221,61.213
0.3783,60.821
0.37537,60.235
0.37243,59.844
0.37048,59.648
0.36755,59.452
0.36559,59.452
0.36266,60.039
0.35973,61.799
0.35679,65.319
0.35386,70.991
0.34995,78.814
0.34702,87.614
0.34311,96.61
0.34018,105.22
0.33724,112.84
0.33529,119.3
0.33333,124.38
0.3304,128.1
0.32747,130.05
0.32454,130.83
0.3216,130.44
0.31867,129.27
0.31672,127.51
0.31378,125.55
0.31085,123.01
0.30792,120.47
0.30499,117.73
0.30303,114.8
0.30108,111.47
0.29912,107.95
0.29717,104.24
0.29521,100.13
0.29228,96.024
0.28837,92.112
0.28641,88.592
0.28446,85.463
0.28543,82.921
0.29032,80.965
0.30108,79.205
0.31965,78.031
0.34115,77.249
0.36755,76.662
0.40371,76.467
0.44575,76.271
0.49169,76.271
0.53861,76.271
0.5826,76.467
0.62268,76.467
0.65689,76.467
0.68524,76.467
0.70772,76.271
0.72434,76.076
0.73412,75.685
0.739,75.293
0.74096,74.902
0.73998,74.316
0.73509,73.729
0.72825,72.947
0.71848,72.36
0.70479,71.773
0.69013,70.991
0.67253,70.404
0.65298,70.013
0.63148,69.426
0.60997,68.84
0.58944,68.449
0.57087,67.862
0.55132,67.471
0.53177,67.08
0.5132,66.493
0.49658,66.102
0.48094,65.515
0.46823,64.928
0.45748,64.342
0.4477,63.755
0.43988,63.168
0.43304,62.777
0.42717,62.19
0.42326,61.604
0.41935,61.017
0.41544,60.626
0.41251,60.039
0.4086,59.844
0.40469,59.452
0.40078,59.452
0.39687,59.844
0.39296,61.213
0.38807,64.342
0.38416,69.622
0.37928,77.249
0.37537,86.441
0.37146,95.828
0.36755,104.82
0.36364,113.04
0.35875,120.08
0.35484,125.55
0.34995,129.47
0.34604,131.81
0.34115,132.79
0.33627,132.59
0.33236,131.62
0.32747,129.86
0.32454,127.9
0.3216,125.55
0.31769,123.01
0.31378,120.27
0.3089,117.34
0.30499,114.21
0.30108,110.69
0.29619,106.98
0.29228,102.87
0.28837,98.761
0.28348,94.655
0.27859,90.548
0.27566,87.027
0.27468,84.094
0.27664,81.552
0.28348,79.596
0.29619,78.031
0.31769,76.858
0.348,76.076
0.38514,75.489
0.42815,75.098
0.47507,74.902
0.52199,74.902
0.56696,74.902
0.60704,74.902
0.63832,74.902
0.66178,74.707
0.68231,74.707
0.6999,74.511
0.71163,74.316
0.71945,73.924
0.72239,73.533
0.72239,73.338
0.7175,72.751
0.71065,72.164
0.6999,71.773
0.68719,71.186
0.67155,70.6
0.65494,70.013
0.63832,69.426
0.61877,69.035
0.59629,68.449
0.5738,67.862
0.55034,67.471
0.52786,67.08
0.50538,66.493
0.48485,65.906
0.46628,65.515
0.44966,64.928
0.435,64.342
0.42326,63.95
0.41447,63.364
0.40567,62.777
0.39687,62.19
0.39003,61.604
0.38416,61.213
0.3783,60.821
0.37439,60.235
0.3695,59.844
0.36559,59.452
0.36168,59.061
0.35777,58.67
0.35484,58.67
0.35288,59.257
0.34897,60.626
0.34506,63.755
0.34115,69.035
0.33724,76.467
0.33333,85.463
0.32942,94.655
0.32551,103.46
0.3216,111.47
0.31769,118.32
0.31476,123.79
0.31085,127.71
0.30792,130.05
0.30596,131.03
0.30303,130.83
0.3001,129.86
0.29619,128.29
0.29326,126.14
0.28935,123.6
0.28543,121.06
0.2825,118.12
0.27859,114.99
0.27566,111.67
0.27175,107.95
0.26979,104.04
0.26784,99.935
0.26491,95.632
0.26197,91.525
0.25806,87.81
0.25513,84.681
0.25415,81.943
0.25611,79.596
0.26393,77.836
0.27859,76.467
0.30205,75.489
0.33333,74.902
0.37243,74.316
0.41056,74.12
0.44868,73.924
0.49267,73.924
0.53666,73.729
0.57869,73.729
0.61584,73.729
0.64712,73.729
0.67155,73.533
0.69013,73.533
0.70283,73.338
0.71065,73.142
0.71457,72.751
0.71261,72.36
0.7087,71.969
0.70088,71.578
0.6911,70.991
0.6784,70.404
0.66276,69.818
0.64516,69.231
0.62463,68.84
0.60313,68.253
0.58065,67.666
0.55718,67.275
0.53372,66.884
0.51124,66.297
0.49267,65.906
0.47605,65.319
0.45943,64.733
0.44379,64.342
0.42913,63.755
0.4174,63.168
0.40567,62.777
0.39687,62.19
0.38807,61.604
0.38123,61.017
0.37537,60.626
0.37048,60.235
0.36657,59.844
0.36364,59.257
0.3607,58.866
0.35777,58.475
0.35386,58.279
0.35093,58.475
0.348,58.866
0.34409,60.235
0.34018,63.168
0.33724,68.253
0.33333,75.293
0.32942,83.703
0.32551,92.308
0.32258,100.72
0.32063,108.34
0.31769,114.99
0.31476,120.27
0.31085,123.99
0.30792,126.14
0.30401,127.12
0.30108,126.92
0.29717,125.95
0.29423,124.19
0.29032,122.03
0.28739,119.49
0.28446,116.56
0.2825,113.62
0.27957,110.3
0.27664,106.78
0.2737,103.06
0.27077,98.957
0.26686,94.655
0.26393,90.548
0.261,86.636
0.25806,83.312
0.25513,80.574
0.25513,78.227
0.25806,76.467
0.26491,75.098
0.27664,73.924
0.29521,73.338
0.32258,72.947
0.35777,72.751
0.3998,72.555
0.44477,72.555
0.49071,72.555
0.53568,72.555
0.57674,72.751
0.6129,72.751
0.64223,72.751
0.66373,72.555
0.6784,72.555
0.68915,72.36
0.69697,72.164
0.70088,71.773
0.70088,71.382
0.69599,70.795
0.68817,70.404
0.67742,69.818
0.66276,69.231
0.64614,68.84
0.62659,68.253
0.60508,67.862
0.58553,67.275
0.56598,66.884
0.54448,66.297
0.52199,65.906
0.50049,65.515
0.47996,64.928
0.46237,64.537
0.44575,63.95
0.43109,63.559
0.41838,62.973
0.40762,62.386
0.39883,61.799
0.39198,61.408
0.3871,60.821
0.38221,60.43
0.37732,59.844
0.37341,59.452
0.3695,59.061
0.36657,58.475
0.36266,58.279
0.35973,57.888
0.35679,57.888
0.35386,58.279
0.35093,59.061
0.348,61.408
0.34506,65.515
0.34311,71.969
0.34018,79.987
0.33724,88.983
0.33333,97.588
0.3304,105.61
0.32649,112.84
0.32356,118.71
0.31965,123.01
0.31672,125.95
0.31378,127.51
0.31085,127.9
0.30792,127.31
0.30596,125.95
0.30303,124.19
0.3001,122.03
0.29619,119.49
0.29326,116.75
0.28935,113.82
0.28641,110.5
0.2825,106.98
0.27957,102.87
0.27566,98.761
0.27273,94.655
0.26882,90.352
0.26588,86.636
0.26491,83.507
0.26295,80.769
0.26393,78.422
0.26784,76.662
0.27859,75.293
0.29717,74.316
0.32356,73.729
0.35973,73.338
0.40274,72.947
0.44966,72.947
0.49951,72.947
0.54252,72.947
0.57967,72.947
0.61779,72.947
0.65298,72.947
0.68231,72.751
0.70577,72.751
0.72434,72.555
0.73607,72.36
0.74291,72.164
0.74487,71.773
0.74194,71.382
0.73509,70.795
0.72532,70.404
0.71359,69.818
0.69892,69.231
0.68133,68.84
0.6608,68.253
0.63832,67.666
0.61486,67.275
0.59042,66.688
0.565,66.297
0.54154,65.906
0.51808,65.319
0.49658,64.928
0.47703,64.342
0.46139,63.95
0.44868,63.364
0.43695,62.973
0.42522,62.386
0.41544,61.995
0.40665,61.408
0.3998,61.017
0.39296,60.626
0.38807,60.039
0.38319,59.648
0.37928,59.257
0.37537,58.866
0.37243,58.67
0.3695,58.475
0.36657,58.67
0.36364,59.257
0.35973,60.626
0.35582,63.95
0.35288,69.426
0.34897,77.054
0.34506,85.854
0.34115,94.85
0.33724,103.26
0.33236,110.89
0.32845,117.54
0.32551,122.62
0.32356,126.34
0.32063,128.49
0.31672,129.27
0.31378,129.07
0.30987,128.1
0.30596,126.34
0.30303,124.19
0.29912,122.03
0.29521,119.49
0.29228,116.75
0.28837,113.62
0.28641,110.3
0.28446,106.78
0.2825,102.87
0.27957,98.761
0.27566,94.655
0.27273,90.548
0.26979,87.223
0.26686,84.094
0.26588,81.552
0.26882,79.596
0.27761,78.031
0.29423,76.858
0.31965,76.076
0.34702,75.489
0.38025,75.098
0.42131,74.902
0.46921,74.902
0.51906,75.098
0.56696,75.098
0.61193,75.098
0.65103,75.098
0.68426,75.098
0.71065,75.098
0.73021,75.098
0.74389,74.902
0.75073,74.511
0.75269,74.12
0.75269,73.729
0.74878,73.338
0.74096,72.947
0.73021,72.36
0.71652,71.969
0.6999,71.382
0.68133,70.795
0.65982,70.404
0.63734,70.013
0.6129,69.426
0.58847,69.035
0.56696,68.449
0.54741,68.057
0.52688,67.471
0.50733,67.08
0.48974,66.688
0.47312,66.102
0.45943,65.515
0.44673,65.124
0.43695,64.537
0.42815,64.146
0.42033,63.559
0.41447,63.168
0.40958,62.582
0.40665,62.19
0.40274,61.799
0.3998,61.408
0.39687,61.017
0.39394,60.821
0.39003,60.821
0.3871,61.408
0.38416,62.973
0.38123,66.297
0.3783,72.164
0.37439,80.183
0.37146,89.374
0.36852,98.761
0.36657,107.56
0.36364,115.58
0.3607,122.43
0.35679,127.71
0.35386,131.42
0.35093,133.57
0.348,134.35
0.34506,134.16
0.34213,132.99
0.33822,131.23
0.33529,129.27
0.33333,127.12
0.33138,124.58
0.32942,121.84
0.32649,118.9
0.32356,115.58
0.32063,112.26
0.31769,108.34
0.31476,104.43
0.31183,100.33
0.30792,96.024
0.30499,92.112
0.30205,88.788
0.30205,85.854
0.30499,83.312
0.31281,81.356
0.32649,79.987
0.34897,78.814
0.38025,78.227
0.41935,77.64
0.4653,77.445
0.51417,77.249
0.56305,77.054
0.61095,77.054
0.65396,77.054
0.69208,76.858
0.71848,76.858
0.73803,76.662
0.75562,76.467
0.76833,76.076
0.77615,75.685
0.78006,75.293
0.78006,74.707
0.77615,74.12
0.76833,73.533
0.75855,72.947
0.74487,72.36
0.72825,71.773
0.70968,71.186
0.6911,70.6
0.67155,70.209
0.65005,69.622
0.62659,69.035
0.60313,68.644
0.57869,68.253
0.55621,67.666
0.53372,67.08
0.51417,66.688
0.4956,66.102
0.47996,65.515
0.46628,64.928
0.45455,64.342
0.44575,63.755
0.43695,63.168
0.42913,62.777
0.42229,62.19
0.41544,61.799
0.40958,61.213
0.40469,60.821
0.39883,60.43
0.39394,60.039
0.38905,59.844
0.38416,60.235
0.37928,61.213
0.37537,63.755
0.37146,68.253
0.36755,75.293
0.36266,84.289
0.35777,93.872
0.35288,103.06
0.348,111.67
0.34311,119.1
0.33822,124.97
0.33333,129.47
0.32845,132.01
0.32454,133.38
0.32063,133.57
0.31867,132.79
0.31476,131.23
0.31085,129.27
0.30694,126.92
0.30303,124.58
0.29912,121.84
0.29521,119.1
0.2913,115.97
0.28739,112.45
0.28348,108.74
0.28055,104.82
0.27664,100.72
0.2737,96.415
0.27077,92.308
0.26491,88.592
0.25806,85.463
0.25513,82.725
0.25806,80.574
0.26784,79.009
0.28641,77.64
0.31281,76.662
0.34897,76.271
0.39101,75.685
0.43793,75.489
0.47996,75.489
0.51808,75.293
0.55914,75.293
0.59726,75.293
0.6305,75.293
0.65787,75.098
0.67937,74.902
0.69501,74.707
0.70577,74.511
0.71065,74.316
0.71163,73.924
0.7087,73.338
0.70283,72.947
0.69404,72.36
0.68328,71.773
0.6696,71.186
0.65396,70.6
0.63539,70.013
0.61486,69.426
0.59335,69.035
0.56989,68.449
0.54643,67.862
0.52297,67.471
0.50049,66.884
0.47898,66.493
0.46139,65.906
0.44673,65.515
0.43206,64.928
0.41838,64.342
0.40567,63.755
0.39492,63.364
0.38612,62.777
0.3783,62.19
0.37146,61.604
0.36559,61.213
0.3607,60.626
0.35582,60.235
0.35288,59.844
0.34995,59.452
0.34702,59.061
0.34311,58.866
0.34018,59.061
0.33627,59.844
0.33236,61.799
0.32845,65.515
0.32454,71.578
0.32063,79.791
0.31672,88.788
0.31281,97.979
0.3089,106.39
0.30694,114.02
0.30401,120.27
0.30108,125.16
0.29814,128.29
0.29423,130.05
0.2913,130.64
0.28739,130.05
0.28446,128.68
0.28055,126.92
0.27761,124.58
0.27468,122.03
0.27077,119.49
0.26882,116.36
0.26686,113.23
0.26393,109.71
0.26197,105.8
0.25904,101.69
0.25513,97.588
0.2522,93.481
0.24927,89.374
0.24536,86.05
0.2434,83.116
0.24242,80.574
0.24633,78.618
0.25611,77.054
0.26979,76.076
0.28935,75.098
0.31769,74.707
0.35484,74.316
0.39883,74.12
0.44673,74.12
0.49462,73.924
0.54057,73.924
0.58162,73.924
0.61779,73.924
0.64809,73.924
0.67058,73.729
0.68622,73.533
0.69501,73.338
0.70088,73.142
0.70283,72.751
0.70186,72.36
0.69697,71.969
0.68915,71.382
0.67742,70.795
0.66373,70.404
0.64712,69.818
0.62757,69.231
0.60704,68.644
0.58358,68.253
0.56305,67.666
0.54252,67.275
0.52102,66.688
0.49951,66.297
0.47898,65.906
0.45943,65.319
0.44184,64.733
0.4262,64.342
0.41251,63.755
0.40078,63.168
0.39101,62.777
0.38221,62.19
0.37634,61.604
0.37146,61.213
0.36657,60.626
0.36168,60.235
0.35777,59.844
0.35386,59.257
0.34995,58.866
0.34604,58.67
0.34311,58.67
0.3392,58.866
0.33627,59.648
0.33236,61.604
0.32942,65.515
0.32649,71.578
0.32454,79.596
0.3216,88.396
0.31769,97.001
0.31476,105.02
0.31085,112.26
0.30792,118.32
0.30401,122.82
0.30108,125.95
0.29814,127.51
0.29423,128.1
0.2913,127.51
0.28935,126.14
0.28739,124.19
0.28446,122.03
0.28152,119.49
0.27859,116.75
0.27468,113.62
0.27175,110.5
0.26882,106.78
0.26588,102.87
0.26197,98.761
0.25904,94.655
0.25611,90.548
0.2522,86.636
0.25024,83.507
0.24927,80.769
0.24927,78.422
0.2522,76.662
0.26002,75.489
0.27468,74.511
0.29814,73.924
0.32845,73.533
0.36755,73.338
0.41056,73.142
0.45748,73.142
0.5044,73.142
0.5435,73.142
0.57674,73.142
0.60899,73.142
0.63734,73.142
0.66178,72.947
0.67937,72.751
0.6911,72.555
0.69892,72.36
0.70186,72.164
0.6999,71.578
0.69404,71.186
0.68524,70.6
0.67351,70.209
0.65982,69.622
0.64418,69.035
0.62659,68.644
0.60606,68.057
0.58358,67.471
0.56012,67.08
0.53666,66.493
0.51417,66.102
0.49169,65.711
0.47116,65.124
0.45259,64.537
0.43597,64.146
0.42326,63.559
0.41251,62.973
0.40274,62.582
0.39296,61.995
0.38514,61.408
0.3783,61.017
0.37243,60.626
0.36657,60.039
0.36266,59.648
0.35875,59.061
0.35484,58.67
0.35191,58.279
0.34897,58.083
0.34604,58.279
0.34409,58.475
0.34213,59.844
0.3392,62.582
0.33627,67.471
0.33236,74.902
0.32942,83.507
0.32551,92.699
0.3216,101.3
0.31769,109.13
0.31476,116.17
0.31085,121.64
0.30792,125.75
0.30596,128.29
0.30303,129.66
0.3001,129.86
0.29717,128.88
0.29326,127.51
0.29032,125.55
0.28641,123.4
0.28348,120.86
0.28055,118.12
0.27664,115.19
0.2737,111.86
0.26979,108.54
0.26784,104.63
0.26588,100.52
0.26393,96.415
0.261,92.112
0.25709,88.201
0.25415,84.876
0.25318,82.138
0.25415,79.791
0.25904,78.031
0.27077,76.662
0.2913,75.685
0.31965,75.098
0.35093,74.707
0.38416,74.511
0.4262,74.316
0.47312,74.316
0.52102,74.511
0.56598,74.511
0.60704,74.511
0.64125,74.511
0.67058,74.707
0.70088,74.511
0.72923,74.511
0.74585,74.12
0.75269,73.924
0.75464,73.533
0.75269,73.142
0.74682,72.555
0.73803,72.164
0.72532,71.773
0.71065,71.186
0.69208,70.6
0.67155,70.013
0.64809,69.622
0.62366,69.035
0.59824,68.644
0.57283,68.057
0.55132,67.666
0.53079,67.275
0.51026,66.688
0.49071,66.297
0.47214,65.711
0.4565,65.319
0.44184,64.733
0.43011,64.342
0.41935,63.95
0.41056,63.364
0.40371,62.973
0.39785,62.582
0.39296,61.995
0.39003,61.604
0.38612,61.213
0.38319,60.821
0.37928,60.626
0.37634,60.43
0.37341,60.821
0.37048,61.799
0.36755,64.146
0.36364,68.84
0.3607,75.685
0.35679,84.289
0.35288,93.481
0.34995,102.48
0.348,110.69
0.34506,117.93
0.34115,123.99
0.33822,128.49
0.33431,131.23
0.33138,132.79
0.32845,132.99
0.32551,132.2
0.3216,130.83
0.31867,129.07
0.31574,126.92
0.31378,124.58
0.31183,121.84
0.30987,119.1
0.30792,115.97
0.30499,112.84
0.30303,109.32
0.3001,105.61
0.29717,101.69
0.29423,97.588
0.2913,93.481
0.28837,89.961
0.28739,86.832
0.28837,84.289
0.29326,82.138
0.30205,80.574
0.31965,79.4
0.34506,78.422
0.37928,77.836
0.42033,77.64
0.46823,77.445
0.51808,77.445
0.56891,77.445
0.61584,77.445
0.65885,77.445
0.69501,77.445
0.72141,77.249
0.73998,77.054
0.75562,76.858
0.76735,76.467
0.77419,75.88
0.77713,75.293
0.77615,74.707
0.77126,74.12
0.76344,73.533
0.75269,72.751
0.73803,72.164
0.72141,71.578
0.70283,70.991
0.68328,70.6
0.66471,70.013
0.64223,69.622
0.61975,69.035
0.59629,68.644
0.57283,68.057
0.55034,67.666
0.52981,67.08
0.51124,66.688
0.4956,66.102
0.48094,65.515
0.46823,64.928
0.45943,64.342
0.45161,63.755
0.44379,63.168
0.43695,62.582
0.43109,62.19
0.4262,61.604
0.42131,61.017
0.4174,60.626
0.41251,60.235
0.4086,60.039
0.40371,60.235
0.39883,61.213
0.39492,63.364
0.39101,67.862
0.3871,74.902
0.38319,83.898
0.3783,93.481
0.37341,102.87
0.36852,111.67
0.36364,119.3
0.35875,125.55
0.35484,130.25
0.34995,133.18
0.34506,134.75
0.34115,135.14
0.33724,134.35
0.33431,132.99
0.3304,131.23
0.32649,129.07
0.3216,126.92
0.31672,124.38
0.31281,121.84
0.30792,118.9
0.30303,115.58
0.29912,112.06
0.29423,108.34
0.29032,104.24
0.28543,99.935
0.2825,95.828
0.27957,91.721
0.27664,88.201
0.27566,85.267
0.27761,82.725
0.28641,80.769
0.30205,79.205
0.32747,78.031
0.36168,77.249
0.40469,76.662
0.45259,76.467
0.50342,76.271
0.54839,76.076
0.58651,76.076
0.62659,76.076
0.66276,75.88
0.69404,75.88
0.71848,75.685
0.73705,75.489
0.74976,75.293
0.7566,74.902
0.75953,74.511
0.75758,74.12
0.75269,73.533
0.74487,72.947
0.73412,72.36
0.72141,71.773
0.70674,71.186
0.68817,70.6
0.66862,70.209
0.64614,69.622
0.6217,69.035
0.59726,68.449
0.57283,68.057
0.54741,67.471
0.52395,67.08
0.50147,66.493
0.48387,65.906
0.46823,65.319
0.45259,64.928
0.43793,64.342
0.42522,63.755
0.41447,63.168
0.40567,62.777
0.39687,62.19
0.39003,61.604
0.38416,61.213
0.37928,60.821
0.37439,60.235
0.3695,60.039
0.36657,59.648
0.36364,59.648
0.3607,59.844
0.35679,61.017
0.35288,63.755
0.34897,68.449
0.34506,75.685
0.34115,84.681
0.33627,94.068
0.33236,103.06
0.32747,111.28
0.32356,118.51
0.32063,124.38
0.31769,128.68
0.31476,131.23
0.31085,132.59
0.30792,132.59
0.30401,131.81
0.3001,130.25
0.29619,128.29
0.29228,126.14
0.28935,123.6
0.28543,120.86
0.28152,117.93
0.27761,114.6
0.27566,111.28
0.2737,107.37
0.27077,103.46
0.26784,99.153
0.26393,94.85
0.261,90.743
0.25709,87.223
0.25513,84.094
0.25513,81.552
0.26002,79.596
0.27175,78.031
0.2913,76.858
0.31574,76.076
0.34506,75.489
0.38416,75.293
0.43109,75.098
0.48094,75.098
0.53177,74.902
0.57967,74.902
0.62268,74.902
0.65982,74.707
0.69013,74.707
0.71359,74.707
0.73021,74.511
0.73998,74.12
0.74389,73.924
0.74487,73.533
0.74291,72.947
0.73705,72.555
0.72923,71.969
0.7175,71.578
0.70283,70.991
0.68524,70.404
0.66471,69.818
0.64321,69.231
0.61877,68.644
0.59433,68.253
0.57185,67.666
0.55132,67.275
0.52884,66.688
0.50244,66.102
0.47605,65.711
0.45455,65.124
0.43695,64.537
0.42131,64.146
0.4086,63.559
0.39785,62.973
0.38905,62.582
0.38123,61.995
0.37634,61.408
0.37146,61.017
0.36755,60.626
0.36364,60.039
0.35973,59.648
0.35582,59.257
0.35191,59.061
0.34897,59.257
0.34506,59.648
0.34213,61.017
0.33822,64.146
0.33529,69.426
0.33138,76.858
0.32845,85.658
0.32551,94.655
0.32258,103.26
0.31965,111.28
0.31574,117.93
0.31183,123.21
0.3089,126.92
0.30499,129.27
0.30205,130.25
0.29814,130.05
0.29521,129.27
0.2913,127.71
0.28935,125.75
0.28739,123.4
0.28446,120.86
0.28152,118.12
0.27859,114.99
0.27468,111.67
0.27175,107.95
0.26882,103.85
0.26588,99.739
0.26197,95.437
0.25904,91.33
0.25513,87.419
0.2522,84.289
0.25122,81.747
0.25318,79.596
0.25806,78.031
0.26784,76.662
0.28543,75.88
0.31085,75.098
0.34506,74.707
0.38612,74.511
0.43109,74.511
0.47898,74.511
0.5259,74.511
0.56891,74.316
0.60313,74.316
0.6305,74.316
0.65591,74.12
0.67644,74.12
0.69208,73.924
0.70283,73.533
0.7087,73.338
0.71065,72.751
0.7087,72.36
0.70186,71.969
0.69306,71.382
0.68035,70.795
0.66471,70.404
0.64907,69.818
0.63148,69.426
0.61193,68.84
0.58944,68.253
0.56598,67.862
0.54252,67.471
0.52004,66.884
0.49756,66.493
0.47703,65.906
0.45846,65.319
0.44184,64.733
0.42717,64.342
0.41642,63.755
0.40762,63.168
0.39883,62.777
0.39101,62.19
0.38416,61.604
0.3783,61.213
0.37243,60.626
0.36852,60.235
0.36364,59.844
0.3607,59.452
0.35679,59.061
0.35288,59.061
0.34995,59.452
0.34702,60.43
0.34506,62.973
0.34213,67.471
0.3392,74.316
0.33627,82.725
0.33236,91.917
0.32845,100.52
0.32551,108.74
0.3216,115.78
0.31867,121.64
0.31476,125.95
0.31183,128.68
0.3089,130.05
0.30694,130.44
0.30401,129.86
0.30108,128.68
0.29814,126.73
0.29423,124.58
0.2913,122.23
0.28837,119.49
0.28446,116.56
0.28152,113.23
0.27761,109.71
0.27468,105.8
0.27175,101.69
0.26882,97.393
0.26686,93.09
0.26491,89.179
0.26197,85.658
0.25904,82.725
0.25904,80.378
0.26197,78.422
0.27077,76.858
0.28641,75.88
0.31085,75.098
0.34311,74.707
0.38221,74.511
0.42131,74.316
0.45943,74.316
0.50244,74.316
0.54643,74.316
0.58749,74.316
0.62366,74.316
0.65396,74.316
0.6784,74.316
0.69697,74.12
0.70968,73.924
0.71652,73.729
0.71945,73.338
0.7175,72.947
0.71261,72.555
0.70479,72.164
0.69501,71.578
0.68133,71.186
0.66471,70.6
0.64614,70.209
0.62463,69.622
0.60215,69.035
0.57869,68.644
0.55425,68.253
0.53079,67.862
0.50831,67.471
0.48876,66.884
0.47214,66.493
0.45552,65.906
0.43988,65.515
0.4262,64.928
0.41349,64.537
0.40371,64.146
0.39492,63.755
0.3871,63.168
0.38025,62.777
0.37439,62.19
0.3695,61.799
0.36559,61.408
0.36266,61.017
0.35973,60.626
0.35777,60.626
0.35484,61.017
0.35191,61.995
0.34897,64.537
0.34604,69.035
0.34311,76.076
0.3392,84.681
0.33627,94.068
0.33236,103.06
0.32942,111.28
0.32649,118.51
0.32454,124.58
0.3216,129.07
0.31867,132.01
0.31574,133.38
0.31281,133.77
0.30987,133.18
0.30694,131.81
0.30401,129.86
0.30108,127.71
0.29814,125.55
0.29521,122.82
0.29326,120.08
0.29228,116.95
0.28935,113.62
0.28739,110.1
0.28446,106
0.2825,101.89
0.27957,97.588
0.27664,93.677
0.2737,89.961
0.27175,86.832
0.27175,84.289
0.27664,82.334
0.28641,80.769
0.30108,79.596
0.32063,78.618
0.34995,78.227
0.3871,78.031
0.43011,77.836
0.47703,77.836
0.52493,77.64
0.57087,77.836
0.6129,77.836
0.64907,77.836
0.67937,77.836
0.70283,77.64
0.71848,77.445
0.72825,77.054
0.73509,76.662
0.73803,76.271
0.73803,75.685
0.73412,75.098
0.72727,74.707
0.7175,74.12
0.70479,73.533
0.69013,72.947
0.67253,72.555
0.65298,71.969
0.63148,71.382
0.61095,70.991
0.5914,70.6
0.56989,70.209
0.54839,69.622
0.52786,69.035
0.50831,68.449
0.49071,68.057
0.4741,67.471
0.46041,66.884
0.44868,66.297
0.43891,65.711
0.43011,65.124
0.42424,64.537
0.41838,63.95
0.41349,63.364
0.40958,62.777
0.40567,62.19
0.40176,61.799
0.39785,61.408
0.39492,61.408
0.39101,61.799
0.38807,63.168
0.38514,66.493
0.38221,71.969
0.3783,79.987
0.37537,89.374
0.37341,99.153
0.3695,108.34
0.36657,116.75
0.36266,123.99
0.35875,129.47
0.35484,133.38
0.35093,135.72
0.348,136.7
0.34409,136.51
0.34018,135.72
0.33627,134.16
0.33431,132.2
0.33138,130.05
0.32845,127.71
0.32454,125.16
0.3216,122.43
0.31769,119.3
0.31378,115.97
0.30987,112.45
0.30694,108.54
0.30303,104.24
0.29814,99.935
0.29423,95.828
0.29032,91.917
0.28837,88.592
0.28837,85.854
0.29228,83.507
0.30108,81.747
0.31867,80.378
0.34409,79.4
0.37732,78.814
0.41838,78.227
0.46432,78.031
0.51124,77.836
0.55816,77.64
0.60117,77.64
0.63539,77.445
0.66178,77.445
0.68622,77.249
0.70674,77.054
0.72141,76.858
0.73216,76.467
0.73803,76.076
0.739,75.685
0.73705,75.098
0.73216,74.511
0.72336,73.924
0.71261,73.338
0.69892,72.751
0.68328,72.164
0.66764,71.578
0.64907,70.991
0.62757,70.6
0.60508,70.013
0.58162,69.426
0.55816,69.035
0.5347,68.449
0.51222,67.862
0.49169,67.471
0.47312,66.884
0.45552,66.297
0.44184,65.711
0.43109,65.124
0.42033,64.537
0.41056,63.95
0.40176,63.559
0.39394,62.973
0.3871,62.582
0.38123,61.995
0.37537,61.604
0.37048,61.213
0.36657,60.821
0.36168,60.626
0.35777,60.821
0.35386,61.799
0.35093,64.146
0.348,68.449
0.34409,75.489
0.3392,84.289
0.33529,94.068
0.33138,103.65
0.32649,112.65
0.32258,120.27
0.31867,126.73
0.31378,131.42
0.30987,134.35
0.30792,135.92
0.30499,136.31
0.30205,135.72
0.29912,134.16
0.29521,132.4
0.29228,130.25
0.28837,127.9
0.28543,125.16
0.28152,122.43
0.27859,119.3
0.27468,115.78
0.27175,112.26
0.26882,108.15
0.26588,104.04
0.26393,99.544
0.261,95.437
0.25806,91.525
0.25513,88.005
0.25415,85.267
0.25709,82.921
0.26393,80.965
0.27957,79.596
0.30303,78.618
0.33529,77.836
0.37537,77.249
0.41447,77.054
0.45357,76.858
0.49853,76.662
0.54448,76.662
0.58749,76.467
0.62561,76.467
0.65787,76.271
0.68328,76.076
0.70186,75.88
0.71554,75.685
0.72336,75.293
0.72727,74.902
0.7263,74.511
0.72141,73.924
0.71457,73.533
0.70479,72.947
0.69208,72.36
0.67742,71.773
0.65982,71.186
0.64027,70.6
0.61877,70.013
0.59531,69.622
0.57185,69.035
0.54741,68.449
0.52395,68.057
0.5044,67.471
0.48583,66.884
0.46823,66.297
0.45064,65.906
0.43597,65.319
0.42131,64.733
0.40958,64.342
0.39883,63.755
0.39003,63.168
0.38221,62.777
0.37537,62.19
0.37048,61.604
0.36461,61.213
0.36168,60.821
0.35777,60.43
0.35484,60.235
0.35093,60.235
0.348,60.626
0.34409,61.995
0.34018,65.124
0.33627,70.404
0.33236,77.836
0.32845,86.636
0.32454,95.828
0.31965,104.63
0.31672,112.65
0.31476,119.49
0.31085,124.77
0.30792,128.68
0.30401,131.03
0.3001,132.01
0.29717,132.01
0.29326,131.03
0.28935,129.27
0.28641,127.31
0.2825,124.97
0.27957,122.43
0.27761,119.49
0.27566,116.36
0.27273,113.04
0.27077,109.13
0.26784,105.22
0.26491,100.91
0.26197,96.61
0.25904,92.308
0.25513,88.396
0.2522,85.267
0.25024,82.529
0.25122,80.183
0.25611,78.618
0.26491,77.249
0.27859,76.467
0.30205,75.685
0.33333,75.293
0.37146,75.098
0.41642,75.098
0.46334,74.902
0.51124,74.902
0.55621,74.902
0.59629,74.902
0.6305,74.707
0.65885,74.707
0.6784,74.511
0.6911,74.316
0.70088,74.12
0.70772,73.729
0.70968,73.338
0.7087,72.947
0.70283,72.36
0.69404,71.969
0.68231,71.382
0.66764,70.795
0.65005,70.404
0.62952,69.818
0.60802,69.231
0.58749,68.84
0.56696,68.253
0.54545,67.666
0.52199,67.275
0.50049,66.688
0.47898,66.102
0.45943,65.711
0.44282,65.124
0.42717,64.537
0.41349,64.146
0.40274,63.559
0.39296,62.973
0.38612,62.582
0.38025,61.995
0.37439,61.408
0.3695,61.017
0.36559,60.43
0.36168,60.039
0.35777,59.648
0.35386,59.452
0.35093,59.452
0.348,59.844
0.34409,60.821
0.34115,63.364
0.33822,68.253
0.33529,75.293
0.33333,84.094
0.3304,93.286
0.32649,102.28
0.32356,110.5
0.31965,117.73
0.31672,123.6
0.31281,127.71
0.30987,130.44
0.30596,131.81
0.30303,132.01
0.29912,131.42
0.29717,129.86
0.29521,128.1
0.29228,125.75
0.28935,123.21
0.28739,120.47
0.28446,117.34
0.28152,114.02
0.27859,110.3
0.27566,106.19
0.27273,101.89
0.26979,97.588
0.26588,93.286
0.26295,89.179
0.26002,85.854
0.25904,82.921
0.25904,80.574
0.261,78.618
0.26882,77.249
0.2825,76.271
0.30499,75.685
0.33627,75.293
0.37634,75.098
0.42131,74.902
0.46921,74.902
0.51808,74.902
0.55914,74.902
0.59335,74.902
0.62854,74.902
0.65885,74.902
0.68426,74.707
0.70381,74.511
0.7175,74.316
0.7263,73.924
0.72923,73.533
0.72923,73.142
0.72434,72.555
0.71652,71.969
0.70479,71.382
0.6911,70.991
0.67644,70.404
0.65787,69.818
0.63734,69.231
0.61388,68.84
0.59042,68.253
0.56598,67.862
0.54154,67.471
0.51808,66.884
0.4956,66.297
0.47507,65.906
0.45748,65.319
0.44282,64.733
0.43109,64.342
0.41935,63.755
0.4086,63.168
0.3998,62.777
0.39198,62.19
0.38612,61.604
0.38025,61.213
0.37537,60.626
0.37048,60.039
0.36657,59.844
0.36364,59.452
0.35973,59.452
0.35679,59.648
0.35484,60.626
0.35191,62.973
0.34897,67.471
0.34506,74.12
0.34213,82.725
0.33822,91.917
0.33431,101.11
0.3304,109.32
0.32649,116.75
0.32258,122.82
0.31867,127.51
0.31574,130.44
0.31378,132.01
0.31085,132.59
0.30792,132.01
0.30401,130.64
0.30108,128.88
0.29717,126.73
0.29423,124.19
0.29032,121.45
0.28739,118.51
0.28348,115.19
0.27957,111.86
0.27664,107.95
0.27468,103.85
0.27273,99.544
0.26979,95.046
0.26686,91.134
0.26393,87.614
0.261,84.681
0.25904,82.138
0.261,80.183
0.26882,78.618
0.28348,77.64
0.30596,76.858
0.33724,76.467
0.37048,76.271
0.40567,76.076
0.44966,76.076
0.49756,76.076
0.54448,76.076
0.58847,76.076
0.62757,76.271
0.66178,76.076
0.68817,76.076
0.7087,76.076
0.72336,75.685
0.73216,75.489
0.73607,75.098
0.73509,74.707
0.73118,74.12
0.72434,73.533
0.71457,73.142
0.70088,72.555
0.68524,71.969
0.66667,71.382
0.64614,70.991
0.62366,70.404
0.6002,70.013
0.57576,69.426
0.55132,69.035
0.53079,68.644
0.51222,68.057
0.49267,67.666
0.4741,67.275
0.45748,66.688
0.44282,66.102
0.43011,65.711
0.41935,65.124
0.40958,64.537
0.40176,64.146
0.39589,63.755
0.39003,63.168
0.38612,62.777
0.38319,62.19
0.37928,61.799
0.37634,61.604
0.37341,61.604
0.37048,61.995
0.36755,63.364
0.36461,66.297
0.3607,71.578
0.35777,79.205
0.35484,88.396
0.35191,97.979
0.348,107.37
0.34604,115.78
0.34311,123.21
0.34115,128.88
0.33822,133.18
0.33529,135.72
0.33236,136.9
0.32942,136.9
0.32649,135.92
0.32356,134.55
0.32063,132.59
0.31867,130.44
0.31574,128.1
0.31378,125.55
0.31183,122.82
0.30987,119.69
0.30792,116.36
0.30499,112.65
0.30303,108.74
0.3001,104.43
0.29814,100.13
0.29521,96.024
0.29228,92.308
0.29032,88.983
0.29032,86.441
0.29521,84.289
0.30401,82.725
0.31672,81.356
0.3392,80.574
0.37048,80.183
0.40958,79.791
0.45455,79.791
0.50342,79.596
0.5523,79.596
0.59922,79.596
0.64125,79.596
0.6784,79.4
0.7087,79.205
0.72923,79.009
0.74291,78.618
0.75367,78.227
0.76149,77.64
0.7654,77.054
0.76442,76.271
0.76149,75.685
0.75464,75.098
0.74487,74.316
0.73216,73.729
0.71652,73.142
0.69892,72.555
0.6784,71.969
0.65885,71.382
0.6393,70.991
0.61779,70.6
0.59531,70.013
0.57185,69.622
0.55034,69.035
0.52981,68.449
0.51026,67.862
0.49365,67.275
0.47898,66.688
0.46628,65.906
0.45552,65.515
0.44673,64.928
0.43988,64.342
0.43304,63.755
0.42717,63.168
0.42229,62.777
0.4174,62.19
0.41251,61.799
0.40762,61.408
0.40371,61.408
0.39883,61.995
0.39394,63.559
0.39003,67.08
0.38514,73.142
0.38123,81.356
0.37732,91.134
0.37243,100.91
0.36852,110.3
0.36364,118.51
0.35875,125.55
0.35386,131.03
0.34995,134.75
0.34506,136.7
0.34115,137.68
0.33627,137.29
0.33236,136.11
0.32845,134.35
0.32551,132.4
0.3216,130.05
0.31769,127.51
0.31281,124.97
0.3089,122.03
0.30401,118.71
0.3001,115.19
0.29619,111.47
0.2913,107.17
0.28739,102.87
0.28348,98.566
0.27859,94.459
0.27566,90.548
0.2737,87.419
0.27273,84.681
0.27566,82.529
0.28446,80.965
0.30108,79.791
0.32649,78.814
0.35973,78.227
0.40176,77.836
0.4477,77.64
0.49267,77.64
0.5347,77.445
0.57087,77.445
0.60215,77.445
0.63245,77.249
0.65885,77.054
0.68035,76.858
0.69599,76.662
0.70674,76.271
0.71261,75.88
0.71359,75.489
0.71163,74.902
0.70674,74.316
0.69795,73.729
0.68719,73.338
0.67449,72.555
0.65982,72.164
0.64321,71.578
0.62366,70.991
0.60215,70.404
0.57967,69.818
0.55621,69.231
0.53275,68.84
0.51026,68.253
0.48876,67.666
0.46823,67.275
0.44966,66.688
0.435,65.906
0.42326,65.515
0.41056,64.928
0.3998,64.537
0.39101,63.755
0.38221,63.168
0.37537,62.777
0.3695,62.19
0.36461,61.799
0.35973,61.408
0.35582,61.017
0.35191,60.626
0.348,60.626
0.34506,60.821
0.34213,61.995
0.3392,64.537
0.33529,69.231
0.33138,76.467
0.32845,85.463
0.32454,95.241
0.32063,104.63
0.31672,113.43
0.31281,121.06
0.3089,126.92
0.30499,131.23
0.30205,133.77
0.3001,135.14
0.29717,135.33
0.29326,134.55
0.29032,132.99
0.28641,131.03
0.28348,128.68
0.28055,126.14
0.27664,123.4
0.2737,120.47
0.26979,117.14
0.26686,113.43
0.26295,109.52
0.261,105.41
0.25904,101.11
0.25709,96.61
0.25415,92.503
0.25024,88.788
0.24829,85.463
0.24633,82.921
0.24927,80.769
0.25611,79.205
0.26979,78.031
0.29228,77.249
0.32258,76.662
0.35582,76.467
0.39101,76.271
0.43402,76.271
0.47996,76.271
0.5259,76.271
0.56891,76.271
0.60704,76.271
0.6393,76.076
0.66373,76.076
0.68328,75.88
0.69599,75.685
0.70381,75.293
0.70674,74.902
0.70577,74.316
0.70088,73.924
0.69404,73.338
0.68426,72.751
0.67155,72.164
0.65591,71.578
0.63734,70.795
0.61779,70.404
0.59531,69.818
0.57283,69.231
0.54936,68.644
0.52493,68.057
0.5044,67.666
0.48583,67.08
0.46725,66.688
0.44868,66.102
0.43206,65.515
0.4174,64.928
0.40469,64.342
0.39394,63.755
0.38416,63.364
0.37634,62.777
0.3695,62.19
0.36364,61.799
0.35973,61.408
0.35679,60.821
0.35288,60.43
0.34995,60.235
0.34604,60.039
0.34311,60.235
0.34018,61.213
0.33627,62.973
0.33333,66.884
0.3304,73.142
0.32649,81.16
0.32258,90.352
0.31867,99.348
0.31574,107.76
0.31281,115.38
0.30987,121.64
0.30596,126.34
0.30303,129.47
0.29912,131.42
0.29521,131.81
0.29228,131.42
0.28837,130.05
0.28543,128.1
0.28152,125.75
0.27859,123.21
0.27566,120.47
0.27468,117.54
0.27175,114.02
0.26882,110.3
0.26588,106.39
0.26295,102.09
0.25904,97.784
0.25611,93.481
0.25318,89.374
0.24927,85.854
0.24633,83.116
0.24536,80.769
0.24633,78.814
0.25122,77.445
0.26002,76.467
0.27664,75.88
0.3001,75.489
0.33236,75.098
0.37146,75.098
0.41544,75.098
0.46237,75.098
0.50733,75.098
0.55034,75.098
0.58847,75.098
0.62072,74.902
0.64418,74.902
0.6608,74.707
0.67351,74.316
0.68328,74.12
0.68915,73.729
0.69013,73.338
0.68719,72.751
0.68133,72.164
0.67155,71.773
0.65885,70.991
0.64418,70.6
0.62561,70.013
0.60508,69.426
0.58553,69.035
0.56598,68.449
0.54448,67.862
0.52199,67.471
0.49951,66.884
0.47898,66.493
0.45846,65.906
0.44086,65.319
0.42522,64.733
0.41153,64.342
0.39883,63.755
0.38905,63.168
0.38123,62.777
0.37634,62.19
0.37048,61.604
0.36559,61.213
0.3607,60.626
0.35679,60.235
0.35288,59.844
0.34897,59.648
0.34604,59.452
0.34213,59.648
0.3392,60.43
0.33529,62.386
0.33236,66.297
0.32942,72.555
0.32747,80.769
0.32454,89.961
0.3216,99.153
0.31769,107.76
0.31378,115.58
0.31085,122.03
0.30694,126.92
0.30303,130.25
0.3001,132.01
0.29619,132.79
0.29326,132.2
0.29032,131.03
0.28837,129.27
0.28641,127.12
0.28348,124.58
0.27957,121.84
0.27664,118.71
0.2737,115.38
0.27077,111.67
0.26686,107.76
0.26393,103.46
0.261,99.153
0.25709,94.85
0.25415,90.743
0.25122,87.419
0.25024,84.289
0.24829,81.943
0.24829,79.987
0.25318,78.618
0.26295,77.64
0.27957,76.858
0.30499,76.467
0.33822,76.271
0.3783,76.076
0.42326,76.076
0.47019,76.271
0.51026,76.271
0.54545,76.271
0.58162,76.467
0.61486,76.467
0.64321,76.271
0.66569,76.271
0.68231,76.076
0.69306,75.685
0.6999,75.293
0.70088,74.902
0.69892,74.316
0.69306,73.924
0.68328,73.338
0.67253,72.751
0.65885,72.164
0.64321,71.773
0.62366,71.186
0.60899,70.6
0.59433,70.209
0.57478,69.622
0.55327,69.035
0.53079,68.644
0.50831,68.253
0.48778,67.666
0.46921,67.275
0.45455,66.688
0.44282,66.102
0.43109,65.711
0.42033,65.124
0.41056,64.733
0.40274,64.342
0.39589,63.755
0.39003,63.364
0.38514,62.973
0.38123,62.386
0.37732,61.995
0.37439,61.799
0.37146,61.799
0.36852,62.19
0.36657,63.559
0.36461,66.493
0.36168,71.578
0.35875,79.009
0.35582,88.201
0.35288,97.588
0.34995,106.78
0.34604,114.99
0.34311,122.43
0.3392,128.1
0.33627,132.2
0.33431,134.75
0.33236,135.72
0.32942,135.72
0.32649,134.75
0.32356,133.18
0.32063,131.23
0.31769,128.88
0.31476,126.34
0.31183,123.79
0.30987,120.67
0.30694,117.54
0.30401,113.82
0.30205,110.1
0.3001,105.8
0.29912,101.69
0.29717,97.393
0.29423,93.481
0.2913,90.157
0.28935,87.223
0.28935,84.681
0.29228,82.921
0.3001,81.356
0.31476,80.378
0.3392,79.791
0.37048,79.4
0.40469,79.205
0.43988,79.009
0.48387,79.009
0.52981,79.009
0.57576,79.205
0.61877,79.205
0.65689,79.205
0.68915,79.009
0.71457,78.814
0.73314,78.422
0.74682,78.031
0.75464,77.445
0.75855,76.662
0.75758,76.076
0.75367,75.293
0.74682,74.707
0.73705,73.924
0.72434,73.338
0.70968,72.751
0.6911,72.164
0.67155,71.773
0.65005,71.186
0.62757,70.795
0.60411,70.404
0.58065,69.818
0.56012,69.231
0.54252,68.84
0.52395,68.253
0.50635,67.666
0.49071,67.08
0.47605,66.297
0.46432,65.906
0.45357,65.319
0.44477,64.733
0.43695,64.146
0.43011,63.559
0.42424,62.973
0.42033,62.582
0.41642,62.19
0.41251,61.799
0.4086,61.408
0.40469,61.408
0.40078,62.19
0.39687,64.146
0.39198,68.057
0.3871,74.316
0.38319,82.921
0.3783,92.699
0.37341,102.67
0.36852,111.86
0.36461,120.08
0.3607,126.92
0.35679,132.01
0.35288,135.53
0.348,137.48
0.34409,138.07
0.34018,137.68
0.33529,136.31
0.33138,134.55
0.32649,132.2
0.32258,129.86
0.31769,127.12
0.31378,124.19
0.31085,121.06
0.30792,117.73
0.30401,113.82
0.29912,109.91
0.29521,105.61
0.2913,101.3
0.28641,96.806
0.2825,92.894
0.27761,89.179
0.27468,86.245
0.27468,83.898
0.27859,81.943
0.28739,80.378
0.30108,79.4
0.32356,78.618
0.35582,78.227
0.39492,78.031
0.44086,77.836
0.48876,77.836
0.53666,77.836
0.58162,77.836
0.6217,77.836
0.65689,77.64
0.68524,77.445
0.70381,77.249
0.71652,77.054
0.7263,76.662
0.73314,76.271
0.73509,75.685
0.73314,75.098
0.72825,74.511
0.72043,73.924
0.7087,73.338
0.69501,72.751
0.6784,72.164
0.65885,71.578
0.63832,70.991
0.61779,70.404
0.59726,70.013
0.57478,69.426
0.55132,68.84
0.52884,68.253
0.50635,67.666
0.48583,67.275
0.46725,66.688
0.45064,66.102
0.43597,65.515
0.42326,64.928
0.41251,64.342
0.40371,63.755
0.39785,63.168
0.39101,62.777
0.38514,62.386
0.38025,61.799
0.37537,61.408
0.37146,61.213
0.36755,60.821
0.36364,60.821
0.35973,61.408
0.35582,62.777
0.35191,65.906
0.348,71.186
0.34506,78.618
0.34213,87.81
0.33822,97.393
0.33431,106.58
0.32942,114.8
0.32551,121.84
0.3216,127.31
0.31769,131.23
0.31378,133.57
0.30987,134.55
0.30596,134.35
0.30205,133.18
0.3001,131.42
0.29717,129.07
0.29423,126.73
0.2913,123.99
0.28739,120.86
0.28446,117.73
0.28055,114.02
0.27761,110.3
0.2737,106
0.27077,101.69
0.26686,97.197
0.26393,92.894
0.26002,89.179
0.25806,85.854
0.25709,83.312
0.25611,81.16
0.25806,79.4
0.26491,78.227
0.27859,77.249
0.3001,76.662
0.3304,76.271
0.36852,76.076
0.41251,76.076
0.45943,76.076
0.50831,75.88
0.54839,75.88
0.5826,75.88
0.61681,75.88
0.64809,75.685
0.67351,75.685
0.69306,75.293
0.70674,75.098
0.71457,74.707
0.71848,74.316
0.7175,73.729
0.71359,73.338
0.70577,72.751
0.69404,72.164
0.68133,71.578
0.66667,70.991
0.64809,70.404
0.62757,69.818
0.60606,69.231
0.5826,68.84
0.55816,68.253
0.5347,67.666
0.51124,67.275
0.48974,66.688
0.46921,66.102
0.45161,65.711
0.43793,65.124
0.4262,64.537
0.41544,64.146
0.40567,63.559
0.39687,62.973
0.38905,62.386
0.38221,61.995
0.37732,61.408
0.37243,61.017
0.36755,60.626
0.36364,60.235
0.35875,60.039
0.35288,60.039
0.34897,60.626
0.34604,61.799
0.34311,64.733
0.34018,69.622
0.33627,76.858
0.33333,85.854
0.32942,95.046
0.32551,103.85
0.3216,112.06
0.31769,119.1
0.31476,124.58
0.31085,128.68
0.30792,131.23
0.30596,132.2
0.30303,132.2
0.3001,131.23
0.29717,129.47
0.29326,127.12
0.29032,124.77
0.28739,122.03
0.28348,119.1
0.28055,115.78
0.27761,112.06
0.2737,107.95
0.27077,103.85
0.26882,99.348
0.26686,95.046
0.26491,90.743
0.26197,87.223
0.25806,84.094
0.25611,81.552
0.25415,79.596
0.25611,78.031
0.26295,76.858
0.27664,76.076
0.29717,75.489
0.32649,75.293
0.35777,75.293
0.39198,75.098
0.43304,75.098
0.47898,75.098
0.52493,75.098
0.56794,75.098
0.60606,75.098
0.63832,75.098
0.66471,74.902
0.68426,74.707
0.69795,74.511
0.70674,74.12
0.70968,73.729
0.7087,73.142
0.70479,72.751
0.69795,72.164
0.68817,71.578
0.67449,70.991
0.65787,70.404
0.6393,69.818
0.61779,69.231
0.59531,68.84
0.57185,68.253
0.54741,67.666
0.52395,67.275
0.5044,66.688
0.4868,66.102
0.46823,65.711
0.45161,65.124
0.43597,64.537
0.42326,64.146
0.41153,63.559
0.40078,62.973
0.39296,62.582
0.38612,61.995
0.38025,61.408
0.37439,61.017
0.37146,60.626
0.36852,60.039
0.36559,59.844
0.36266,59.648
0.35875,59.844
0.35582,60.235
0.35288,61.799
0.34995,65.124
0.34604,70.6
0.34311,78.227
0.3392,87.223
0.33529,96.415
0.33138,105.22
0.32845,113.23
0.32649,120.08
0.32258,125.55
0.31965,129.07
0.31574,131.42
0.31281,132.2
0.3089,132.01
0.30596,130.83
0.30205,129.07
0.29912,126.92
0.29619,124.38
0.29228,121.64
0.29032,118.71
0.28837,115.58
0.28543,111.86
0.2825,107.95
0.27957,103.65
0.27566,99.348
0.27273,95.046
0.26882,90.939
0.26491,87.419
0.26197,84.485
0.25904,81.943
0.25806,79.987
0.26197,78.618
0.26784,77.64
0.27957,77.054
0.3001,76.662
0.32747,76.271
0.36364,76.271
0.40665,76.271
0.45259,76.271
0.50049,76.467
0.54741,76.467
0.58944,76.662
0.62757,76.662
0.65885,76.662
0.68035,76.467
0.69501,76.271
0.70772,76.076
0.71554,75.685
0.72043,75.293
0.72043,74.707
0.71652,74.316
0.7087,73.729
0.69795,73.338
0.68426,72.751
0.66764,72.164
0.64809,71.578
0.62659,71.186
0.60606,70.6
0.58553,70.209
0.56403,69.622
0.54057,69.231
0.51906,68.644
0.49756,68.253
0.47801,67.666
0.46139,67.08
0.44575,66.493
0.43304,66.102
0.42229,65.515
0.41349,64.928
0.40665,64.537
0.40078,63.95
0.39589,63.559
0.39101,62.973
0.3871,62.777
0.38416,62.386
0.38025,62.19
0.3783,62.19
0.37537,62.582
0.37243,63.95
0.37048,67.08
0.36755,72.36
0.36461,80.183
0.36266,89.374
0.3607,99.153
0.35777,108.34
0.35484,116.75
0.35191,123.99
0.34897,129.86
0.34702,133.77
0.34409,136.31
0.34115,137.29
0.33822,137.09
0.33529,136.11
0.33236,134.55
0.3304,132.4
0.32845,130.05
0.32649,127.71
0.32454,124.97
0.3216,122.03
0.31867,118.9
0.31672,115.38
0.31378,111.47
0.31085,107.37
0.30792,103.06
0.30499,98.761
0.30205,94.655
0.3001,91.134
0.29814,88.201
0.29814,85.658
0.30108,83.703
0.30694,82.334
0.31965,81.16
0.34018,80.378
0.3695,79.791
0.40567,79.596
0.44868,79.4
0.4956,79.205
0.5435,79.205
0.59042,79.205
0.62757,79.009
0.65787,79.009
0.68622,78.814
0.71163,78.618
0.73216,78.227
0.74682,77.836
0.75562,77.445
0.76051,76.858
0.76149,76.467
0.75855,75.88
0.75269,75.293
0.74291,74.707
0.73021,73.924
0.71652,73.338
0.70186,72.751
0.68328,72.164
0.66276,71.578
0.64125,70.991
0.61779,70.6
0.59433,69.818
0.57185,69.231
0.54936,68.84
0.52884,68.253
0.51026,67.471
0.49365,67.08
0.47996,66.493
0.46921,65.906
0.45846,65.319
0.44966,64.733
0.44086,64.146
0.43402,63.559
0.42717,63.168
0.42131,62.777
0.41642,62.19
0.41153,61.995
0.40665,61.799
0.40176,61.995
0.39785,62.973
0.39394,65.515
0.39003,70.209
0.38612,77.249
0.38123,86.245
0.37634,96.219
0.37146,105.8
0.36657,114.99
0.3607,122.82
0.35582,129.07
0.35093,133.77
0.34604,136.51
0.34115,138.07
0.33724,138.27
0.33333,137.29
0.32942,135.72
0.32551,133.77
0.3216,131.42
0.31574,129.07
0.30987,126.34
0.30401,123.4
0.29912,120.27
0.29521,116.95
0.2913,113.23
0.28739,109.13
0.28348,104.82
0.28055,100.33
0.27761,96.024
0.27468,92.112
0.27175,88.592
0.26882,85.854
0.26882,83.507
0.27175,81.747
0.28152,80.378
0.29912,79.4
0.32551,78.618
0.35875,78.227
0.3998,78.031
0.43891,77.836
0.47605,77.836
0.51906,77.836
0.56109,77.836
0.59922,77.836
0.63245,77.64
0.65982,77.445
0.68133,77.249
0.69599,76.858
0.70577,76.662
0.71163,76.271
0.71261,75.685
0.70968,75.098
0.70381,74.511
0.69599,73.924
0.68524,73.338
0.67253,72.751
0.65689,72.164
0.63832,71.578
0.61877,70.991
0.59629,70.404
0.5738,69.818
0.55034,69.426
0.52786,68.84
0.50538,68.253
0.4868,67.666
0.47019,67.275
0.45357,66.493
0.43793,65.906
0.42424,65.515
0.41153,64.928
0.40176,64.342
0.39198,63.755
0.38514,63.364
0.3783,62.777
0.37243,62.386
0.36755,61.799
0.36364,61.408
0.3607,61.213
0.35777,61.017
0.35386,61.408
0.35093,62.19
0.34702,64.537
0.34311,68.84
0.3392,75.489
0.33529,84.289
0.3304,94.068
0.32649,103.65
0.32258,112.45
0.31867,120.27
0.31574,126.53
0.31281,131.23
0.30987,134.16
0.30694,135.72
0.30303,135.92
0.29912,135.33
0.29619,133.77
0.29228,131.81
0.28837,129.47
0.28446,126.92
0.28152,123.99
0.27761,120.86
0.27566,117.54
0.2737,113.82
0.27077,109.71
0.26784,105.61
0.26491,101.11
0.26197,96.61
0.25904,92.308
0.25611,88.592
0.25318,85.463
0.25122,82.921
0.25122,80.965
0.25611,79.4
0.26686,78.227
0.28152,77.64
0.30108,77.054
0.33138,76.858
0.36852,76.662
0.41251,76.662
0.45943,76.662
0.50635,76.662
0.55132,76.662
0.5914,76.662
0.62561,76.662
0.65396,76.467
0.67546,76.271
0.68915,76.076
0.69795,75.685
0.70283,75.293
0.70479,74.707
0.70283,74.12
0.69795,73.533
0.68915,72.947
0.6784,72.36
0.66373,71.969
0.64614,71.186
0.62757,70.6
0.60606,70.209
0.5826,69.622
0.56207,69.035
0.54154,68.644
0.52004,68.057
0.49853,67.471
0.47801,67.08
0.45846,66.493
0.44086,65.906
0.4262,65.319
0.41251,64.733
0.40176,64.342
0.39198,63.755
0.38416,63.168
0.3783,62.777
0.37341,62.19
0.36852,61.799
0.36461,61.408
0.3607,60.821
0.35679,60.626
0.35386,60.626
0.34995,60.821
0.34702,61.604
0.34311,63.755
0.34018,67.666
0.33627,74.12
0.33236,82.334
0.32942,91.721
0.32747,100.91
0.32454,109.52
0.32063,117.14
0.31672,123.4
0.31281,127.9
0.30987,130.83
0.30596,132.4
0.30205,132.79
0.29912,132.2
0.29521,130.83
0.29228,128.88
0.29032,126.53
0.28837,123.99
0.28543,121.06
0.2825,117.93
0.27957,114.6
0.27664,110.69
0.2737,106.58
0.27077,102.28
0.26784,97.979
0.26393,93.481
0.261,89.57
0.25806,86.05
0.25513,83.312
0.25415,80.965
0.25415,79.205
0.25806,77.836
0.26491,76.858
0.27957,76.271
0.30205,75.88
0.33236,75.489
0.37048,75.489
0.41349,75.489
0.45943,75.489
0.50635,75.489
0.55034,75.489
0.58456,75.489
0.6129,75.293
0.6393,75.293
0.66178,75.098
0.67937,74.902
0.6911,74.511
0.69892,74.12
0.70088,73.729
0.6999,73.142
0.69501,72.555
0.68622,72.164
0.67449,71.578
0.65885,70.991
0.64321,70.404
0.62659,69.818
0.60606,69.231
0.58456,68.84
0.56109,68.253
0.53763,67.862
0.51515,67.275
0.49267,66.688
0.47214,66.297
0.45357,65.711
0.43695,65.124
0.42229,64.537
0.41153,64.146
0.40274,63.559
0.39394,62.973
0.38612,62.582
0.38025,61.995
0.37439,61.408
0.3695,61.017
0.36461,60.626
0.3607,60.235
0.35777,60.039
0.35386,59.844
0.35093,60.235
0.348,61.408
0.34506,64.146
0.34311,69.231
0.34115,76.662
0.33724,85.658
0.33431,95.241
0.3304,104.43
0.32747,112.84
0.32356,120.27
0.31965,126.14
0.31574,130.25
0.31281,132.99
0.3089,134.16
0.30596,134.16
0.30401,133.18
0.30205,131.62
0.29814,129.47
0.29521,127.12
0.29228,124.58
0.28935,121.84
0.28641,118.71
0.2825,115.38
0.27957,111.67
0.27664,107.56
0.2737,103.26
0.26979,98.761
0.26784,94.459
0.26588,90.548
0.26393,87.223
0.261,84.289
0.25904,81.943
0.25904,80.183
0.26393,78.814
0.27468,78.031
0.29228,77.445
0.31867,77.054
0.35386,76.858
0.3998,76.662
0.44575,76.662
0.48876,76.662
0.53666,76.858
0.58358,76.858
0.62659,77.054
0.66373,77.054
0.69501,76.858
0.71945,76.662
0.73705,76.467
0.74878,76.076
0.75464,75.685
0.7566,75.293
0.75367,74.902
0.74682,74.316
0.73803,73.729
0.72532,73.142
0.70968,72.555
0.6911,71.969
0.67058,71.382
0.64712,70.991
0.62268,70.6
0.59824,70.013
0.57283,69.622
0.54839,69.035
0.52395,68.449
0.5044,67.862
0.48778,67.471
0.47019,67.08
0.45455,66.493
0.44086,65.906
0.42913,65.515
0.41935,64.928
0.41056,64.537
0.40371,63.95
0.39785,63.559
0.39296,62.973
0.38905,62.582
0.38612,62.386
0.38319,62.19
0.38025,62.386
0.37732,63.168
0.37439,65.319
0.37146,69.426
0.36852,76.076
0.36461,84.876
0.36168,94.459
0.35777,104.04
0.35484,113.04
0.35093,121.06
0.34702,127.51
0.34409,132.4
0.34213,135.53
0.3392,137.29
0.33627,137.68
0.33333,136.9
0.3304,135.53
0.32649,133.57
0.32356,131.62
0.32063,129.27
0.31769,126.73
0.31476,123.99
0.31281,121.06
0.31085,117.73
0.3089,114.21
0.30694,110.3
0.30401,106.19
0.30205,101.69
0.29912,97.588
0.29619,93.481
0.29326,90.157
0.2913,87.419
0.2913,85.072
0.29521,83.312
0.30596,81.943
0.32356,81.16
0.34604,80.378
0.37341,79.987
0.41056,79.987
0.4565,79.791
0.50538,79.791
0.55621,79.791
0.60508,79.791
0.65005,79.791
0.68915,79.791
0.72141,79.4
0.74682,79.205
0.7654,78.618
0.77615,78.227
0.78104,77.64
0.78397,76.858
0.78299,76.271
0.77908,75.489
0.77224,74.902
0.76246,74.316
0.74976,73.729
0.73314,73.338
0.71457,72.751
0.69404,72.164
0.67155,71.578
0.64712,71.186
0.62561,70.6
0.60411,70.209
0.58162,69.622
0.55914,69.035
0.53861,68.449
0.51906,67.666
0.50147,67.08
0.48583,66.493
0.47312,65.906
0.46139,65.319
0.45161,64.733
0.44379,64.342
0.43695,63.755
0.43206,63.168
0.42717,62.582
0.42229,62.19
0.4174,61.995
0.41251,61.995
0.4086,62.386
0.40371,63.95
0.39883,67.275
0.39492,73.338
0.39003,81.552
0.38514,91.525
0.37928,101.69
0.37537,111.47
0.37146,120.08
0.36755,127.31
0.36266,132.79
0.35777,136.51
0.35288,138.85
0.348,139.83
0.34311,139.44
0.33822,138.27
0.33333,136.51
0.32942,134.55
0.32454,132.4
0.32063,129.86
0.31769,127.31
0.31378,124.38
0.3089,121.25
0.30499,117.73
0.3001,113.82
0.29619,109.71
0.2913,105.41
0.28641,100.91
0.28152,96.61
0.27761,92.699
0.2737,89.374
0.27077,86.441
0.27175,84.094
0.27761,82.334
0.28837,80.965
0.30792,79.987
0.33724,79.4
0.37439,79.009
0.42033,78.814
0.47019,78.618
0.52102,78.422
0.57185,78.422
0.61779,78.422
0.65787,78.227
0.68817,78.227
0.70968,78.031
0.72825,77.64
0.74291,77.445
0.75269,77.054
0.75758,76.467
0.75855,76.076
0.75562,75.489
0.74976,74.902
0.73998,74.316
0.72825,73.533
0.71261,72.947
0.69404,72.36
0.67644,71.969
0.65689,71.382
0.63539,70.795
0.61095,70.209
0.58553,69.622
0.56012,69.035
0.53568,68.644
0.51222,68.057
0.49071,67.471
0.47116,66.884
0.45357,66.297
0.43793,65.711
0.4262,65.124
0.41642,64.537
0.40665,63.95
0.39883,63.559
0.39101,62.973
0.38514,62.582
0.37928,61.995
0.37439,61.604
0.37048,61.408
0.36559,61.213
0.36168,61.604
0.35777,62.777
0.35288,65.319
0.34995,70.404
0.34702,77.836
0.34409,87.027
0.34018,97.001
0.33529,106.58
0.33138,115.58
0.32649,123.21
0.32258,129.07
0.31769,133.38
0.31378,135.92
0.30987,137.29
0.30596,137.29
0.30303,136.31
0.3001,134.75
0.29717,132.59
0.29326,130.25
0.28935,127.71
0.28543,124.97
0.28152,122.03
0.27859,118.71
0.27468,114.99
0.27175,111.08
0.26784,106.98
0.26393,102.67
0.26197,98.175
0.26002,94.068
0.25709,90.352
0.25318,87.027
0.25122,84.289
0.25024,82.334
0.25415,80.769
0.26491,79.4
0.2825,78.618
0.31085,78.031
0.348,77.64
0.39198,77.64
0.44282,77.445
0.48778,77.445
0.52981,77.249
0.5738,77.249
0.61681,77.054
0.65396,76.858
0.68524,76.662
0.70968,76.662
0.72727,76.271
0.739,75.88
0.74585,75.489
0.7478,75.098
0.74585,74.511
0.73998,73.729
0.73118,73.338
0.71945,72.555
0.70479,72.164
0.68817,71.382
0.66764,70.795
0.6393,70.404
0.60704,69.818
0.57869,69.231
0.5523,68.84
0.52786,68.253
0.5044,67.666
0.48289,67.275
0.46432,66.688
0.44966,66.102
0.435,65.515
0.42131,64.928
0.4086,64.537
0.39883,63.95
0.38905,63.364
0.38123,62.973
0.37537,62.386
0.3695,61.799
0.36461,61.408
0.35973,61.017
0.35679,60.626
0.35386,60.626
0.35093,60.821
0.348,61.408
0.34409,63.559
0.34115,67.471
0.33724,73.924
0.33333,82.334
0.32942,91.917
0.32551,101.3
0.3216,110.1
0.31769,117.93
0.31378,124.58
0.31085,129.27
0.3089,132.59
0.30596,134.16
0.30303,134.75
0.29912,133.96
0.29619,132.59
0.29228,130.64
0.28935,128.49
0.28543,125.75
0.2825,123.01
0.27859,120.08
0.27566,116.75
0.2737,113.04
0.27175,109.13
0.26979,104.82
0.26686,100.52
0.26393,96.024
0.261,91.917
0.25806,88.005
0.25415,84.876
0.2522,82.334
0.25122,80.183
0.25318,78.618
0.261,77.445
0.27664,76.662
0.29521,76.271
0.31965,76.076
0.35386,75.88
0.39492,75.88
0.44086,75.88
0.48876,75.88
0.53568,75.88
0.57869,75.685
0.61584,75.685
0.64712,75.489
0.67253,75.489
0.69013,75.098
0.70186,74.902
0.70674,74.511
0.70968,74.12
0.70968,73.533
0.70577,73.142
0.69892,72.36
0.68817,71.969
0.67546,71.382
0.65885,70.6
0.64027,70.209
0.61975,69.622
0.59726,69.035
0.5738,68.644
0.5523,68.057
0.53177,67.471
0.51026,67.08
0.48974,66.493
0.46921,65.906
0.45064,65.319
0.43402,64.733
0.42033,64.146
0.40762,63.559
