0.36755,53.977
0.36364,53.781
0.35973,53.585
0.35679,53.39
0.35288,53.585
0.34897,53.977
0.34506,55.15
0.34115,57.497
0.33627,61.213
0.33236,66.297
0.32747,72.36
0.32356,78.618
0.31965,84.876
0.31769,90.352
0.31378,95.437
0.30987,99.739
0.30596,103.06
0.30205,105.61
0.29814,107.17
0.29423,107.76
0.29032,107.76
0.28641,106.98
0.2825,105.61
0.27859,104.04
0.27468,101.89
0.27273,99.348
0.26882,96.61
0.26588,93.481
0.26197,89.961
0.25806,86.245
0.25415,82.725
0.25024,79.596
0.24633,76.662
0.24242,73.924
0.23851,71.969
0.23656,70.209
0.23656,68.644
0.23949,67.666
0.24633,66.688
0.26002,66.102
0.28152,65.711
0.30987,65.319
0.34702,65.124
0.39003,64.928
0.43695,64.928
0.48485,64.733
0.53177,64.733
0.57478,64.733
0.6129,64.537
0.64223,64.537
0.66373,64.537
0.68328,64.342
0.69892,64.146
0.7087,63.755
0.71457,63.559
0.71554,63.168
0.71163,62.777
0.70381,62.386
0.6911,61.995
0.67546,61.604
0.65591,61.213
0.63636,60.821
0.61681,60.43
0.59335,60.039
0.56891,59.844
0.54448,59.452
0.52004,59.061
0.49756,58.67
0.47605,58.279
0.4565,57.692
0.43891,57.301
0.42424,56.91
0.41056,56.519
0.3998,55.932
0.39101,55.541
0.38416,55.15
0.37732,54.759
0.37146,54.172
0.36559,53.781
0.3607,53.585
0.35679,53.194
0.35288,52.803
0.34995,52.608
0.34604,52.412
0.34311,52.412
0.34018,52.608
0.33724,53.39
0.33529,54.759
0.33236,57.106
0.32845,61.017
0.32551,66.102
0.3216,71.969
0.31769,77.836
0.31378,83.507
0.30987,88.592
0.30694,93.09
0.30303,97.001
0.29912,99.935
0.29619,102.09
0.29326,103.46
0.2913,103.85
0.28837,103.65
0.28446,102.87
0.28152,101.5
0.27761,99.544
0.27273,97.197
0.26882,94.655
0.26491,91.525
0.261,88.201
0.25709,84.876
0.25318,81.356
0.25415,78.227
0.25709,75.098
0.25709,72.751
0.25611,70.6
0.25415,68.84
0.2522,67.471
0.25318,66.297
0.25611,65.515
0.26491,64.733
0.27957,64.342
0.30108,63.95
0.3304,63.559
0.36461,63.364
0.39883,63.364
0.43304,63.168
0.47214,63.168
0.51124,63.168
0.54936,63.168
0.58358,62.973
0.61388,62.973
0.63734,62.777
0.65591,62.582
0.6696,62.386
0.67742,61.995
0.68133,61.799
0.67937,61.408
0.67449,61.017
0.66569,60.626
0.65396,60.43
0.6393,60.039
0.62072,59.648
0.60117,59.452
0.57967,59.061
0.55718,58.67
0.5347,58.475
0.51222,58.083
0.49169,57.692
0.47214,57.301
0.4565,56.91
0.44379,56.715
0.43011,56.128
0.41838,55.737
0.40762,55.346
0.39785,54.954
0.39003,54.368
0.38319,53.977
0.37732,53.585
0.37146,53.194
0.36755,52.803
0.36364,52.412
0.3607,52.216
0.35875,51.825
0.35582,51.63
0.35288,51.63
0.35093,51.63
0.348,52.216
0.34506,53.194
0.34213,55.346
0.3392,58.866
0.33627,63.559
0.33236,69.231
0.32942,75.293
0.32649,81.16
0.32454,86.636
0.32258,91.33
0.32063,95.241
0.31769,98.566
0.31476,101.11
0.31183,102.67
0.3089,103.46
0.30596,103.46
0.30303,102.87
0.29912,101.69
0.29619,100.13
0.29228,97.979
0.29032,95.437
0.28837,92.503
0.28543,89.374
0.28152,86.05
0.27859,82.529
0.27566,79.205
0.27175,76.271
0.26882,73.533
0.26491,71.382
0.26197,69.426
0.26002,67.862
0.25904,66.688
0.26197,65.711
0.26784,64.928
0.27761,64.342
0.29423,63.95
0.31867,63.559
0.35093,63.364
0.38807,63.168
0.42913,62.973
0.47312,62.973
0.51515,62.973
0.55621,62.973
0.59238,62.973
0.62366,62.777
0.64614,62.777
0.66276,62.582
0.67644,62.386
0.68719,61.995
0.69306,61.799
0.69501,61.408
0.69208,61.213
0.68524,60.821
0.67449,60.43
0.65982,60.039
0.64223,59.648
0.62268,59.257
0.60117,59.061
0.58065,58.67
0.56207,58.475
0.54057,58.083
0.52004,57.888
0.49951,57.497
0.47996,57.106
0.46334,56.715
0.4477,56.323
0.43402,55.737
0.42131,55.346
0.41153,54.954
0.40176,54.563
0.39492,54.172
0.39003,53.781
0.38514,53.39
0.38025,52.803
0.37634,52.412
0.37243,52.216
0.36852,51.825
0.36559,51.63
0.36168,51.434
0.35875,51.434
0.35582,51.825
0.35288,52.608
0.34995,54.368
0.34702,57.497
0.34506,61.995
0.34213,67.471
0.3392,73.533
0.33627,79.596
0.33333,85.267
0.3304,90.352
0.32747,94.85
0.32454,98.566
0.32063,101.3
0.31769,103.46
0.31476,104.43
0.31281,104.82
0.31085,104.63
0.30792,103.65
0.30499,102.28
0.30108,100.33
0.29717,97.979
0.29423,95.437
0.29032,92.308
0.28739,88.983
0.28348,85.658
0.28055,82.138
0.27664,78.814
0.2737,75.685
0.27175,73.142
0.26979,70.991
0.26686,69.035
0.26491,67.666
0.26491,66.493
0.26882,65.515
0.27859,64.928
0.29423,64.342
0.31867,63.95
0.34995,63.755
0.3871,63.559
0.43011,63.364
0.46823,63.364
0.5044,63.168
0.5435,63.168
0.58162,63.168
0.61584,63.168
0.64614,63.168
0.67058,62.973
0.68915,62.777
0.70283,62.582
0.71065,62.386
0.71457,61.995
0.71261,61.604
0.70772,61.408
0.69892,61.017
0.68622,60.626
0.67058,60.235
0.652,59.844
0.63148,59.648
0.60899,59.257
0.58553,58.866
0.56207,58.475
0.53861,58.279
0.51711,57.888
0.49658,57.497
0.47703,57.106
0.46237,56.715
0.44868,56.323
0.43695,55.737
0.42522,55.346
0.41447,54.954
0.40567,54.563
0.39785,54.172
0.39101,53.781
0.38612,53.39
0.38123,52.999
0.37634,52.608
0.37341,52.412
0.37048,52.216
0.36852,52.021
0.36559,52.021
0.36266,52.216
0.35973,52.999
0.35679,54.759
0.35288,57.497
0.34995,61.799
0.34604,67.471
0.34311,73.533
0.3392,79.791
0.33627,85.658
0.33236,90.743
0.3304,95.437
0.32845,99.348
0.32551,102.28
0.32258,104.43
0.31965,105.8
0.31672,106.19
0.31281,106
0.30987,105.22
0.30596,104.04
0.30303,102.28
0.29912,100.13
0.29521,97.784
0.29228,94.85
0.29032,91.917
0.28739,88.592
0.28446,85.072
0.28152,81.747
0.27761,78.618
0.27468,75.88
0.27175,73.533
0.26882,71.578
0.26686,70.013
0.26784,68.644
0.27175,67.666
0.2825,66.884
0.29619,66.297
0.31476,65.906
0.34213,65.711
0.37732,65.515
0.41838,65.319
0.46237,65.319
0.5132,65.319
0.565,65.319
0.61095,65.319
0.65103,65.124
0.68426,65.124
0.71163,65.124
0.73021,64.928
0.74194,64.733
0.75073,64.537
0.75562,64.146
0.7566,63.755
0.75269,63.559
0.74487,63.168
0.73314,62.777
0.7175,62.582
0.69892,62.19
0.6784,61.799
0.65494,61.408
0.6305,61.017
0.60899,60.821
0.58847,60.43
0.56598,60.039
0.54448,59.648
0.52493,59.257
0.50538,58.866
0.48876,58.475
0.4741,58.083
0.46139,57.692
0.45064,57.301
0.44086,56.91
0.43304,56.519
0.42717,56.128
0.42229,55.737
0.41838,55.346
0.41447,54.954
0.41056,54.563
0.40762,54.368
0.40567,54.172
0.40274,54.172
0.3998,54.368
0.39687,55.15
0.39492,56.715
0.39198,59.648
0.38807,64.146
0.38612,70.013
0.38319,76.467
0.38123,82.921
0.3783,88.983
0.37537,94.459
0.37243,99.348
0.3695,103.26
0.36657,106.39
0.36364,108.54
0.3607,109.71
0.35777,110.1
0.35386,109.71
0.35191,108.74
0.34995,107.37
0.34702,105.61
0.34311,103.26
0.34018,100.91
0.33724,97.979
0.33333,94.85
0.3304,91.525
0.32649,88.005
0.32356,84.485
0.32063,81.16
0.31672,78.422
0.31378,75.88
0.31183,73.924
0.31085,72.164
0.31183,70.795
0.31476,69.622
0.32454,68.84
0.34018,68.253
0.36364,67.666
0.39589,67.471
0.43597,67.275
0.48094,67.08
0.52786,66.884
0.57576,66.688
0.61584,66.493
0.64907,66.493
0.68328,66.297
0.71359,66.102
0.739,65.906
0.75953,65.711
0.77419,65.319
0.78299,64.928
0.78788,64.537
0.7869,64.146
0.78201,63.755
0.77224,63.364
0.75953,62.973
0.74487,62.582
0.72825,61.995
0.70772,61.604
0.68524,61.408
0.66178,61.017
0.63636,60.626
0.61193,60.235
0.58847,59.844
0.565,59.452
0.54448,59.061
0.52493,58.67
0.50733,58.279
0.49267,57.692
0.48094,57.301
0.46921,56.91
0.45846,56.323
0.44868,55.932
0.44086,55.346
0.43304,54.954
0.4262,54.563
0.42033,54.172
0.41447,53.781
0.4086,53.39
0.40371,52.999
0.39883,52.999
0.39492,52.803
0.39101,53.194
0.38612,53.977
0.38123,55.737
0.37634,58.866
0.37146,63.559
0.36657,69.426
0.36168,75.88
0.35679,82.334
0.35191,88.201
0.34702,93.677
0.34213,98.175
0.3392,102.09
0.33627,104.82
0.33236,106.78
0.32845,107.76
0.32356,108.15
0.31965,107.56
0.31476,106.58
0.30987,105.02
0.30596,103.06
0.30108,100.72
0.29619,97.979
0.29228,95.046
0.28837,91.917
0.28543,88.396
0.2825,84.681
0.27859,81.356
0.2737,78.227
0.26979,75.489
0.26588,73.142
0.26197,71.186
0.25904,69.818
0.25904,68.449
0.26295,67.471
0.2737,66.688
0.2913,66.102
0.31378,65.906
0.34018,65.515
0.37732,65.319
0.42033,65.124
0.46823,64.928
0.51613,64.928
0.56207,64.928
0.60508,64.928
0.64223,64.733
0.67253,64.733
0.69795,64.537
0.71554,64.342
0.72727,64.146
0.73216,63.755
0.73509,63.559
0.73314,62.973
0.72825,62.582
0.71848,62.19
0.70479,61.799
0.68817,61.408
0.66862,61.017
0.64712,60.626
0.62268,60.235
0.59824,59.844
0.57283,59.648
0.55034,59.257
0.53079,58.866
0.51026,58.475
0.48974,58.083
0.47116,57.692
0.45455,57.301
0.43988,56.715
0.42717,56.323
0.41642,55.932
0.40665,55.346
0.39785,54.954
0.39101,54.563
0.38612,54.172
0.38221,53.781
0.3783,53.39
0.37439,52.999
0.37048,52.803
0.36755,52.412
0.36364,52.412
0.3607,52.412
0.35679,52.803
0.35288,53.585
0.34897,55.346
0.34506,58.279
0.34115,62.777
0.33822,68.253
0.33627,74.12
0.33333,79.987
0.32942,85.463
0.32551,90.352
0.3216,94.655
0.31867,98.175
0.31476,100.72
0.31085,102.48
0.30694,103.46
0.30401,103.65
0.3001,103.26
0.29717,102.09
0.29521,100.52
0.29228,98.566
0.28837,96.024
0.28446,93.286
0.28055,90.157
0.27664,86.636
0.27273,83.116
0.26979,79.791
0.26588,76.662
0.26197,73.924
0.25806,71.578
0.25513,69.622
0.25318,67.862
0.2522,66.688
0.25318,65.711
0.25709,64.928
0.26686,64.342
0.2825,63.95
0.30596,63.559
0.33724,63.364
0.37537,63.168
0.41838,63.168
0.46432,63.168
0.51124,63.168
0.55034,62.973
0.5826,62.973
0.61584,62.973
0.64516,62.973
0.6696,62.777
0.68817,62.582
0.70186,62.19
0.70968,61.995
0.71163,61.604
0.70968,61.408
0.70283,61.017
0.6911,60.626
0.67546,60.235
0.65103,59.844
0.62268,59.648
0.59726,59.257
0.57283,59.061
0.54839,58.67
0.52493,58.279
0.50342,58.083
0.48192,57.692
0.46334,57.301
0.44575,56.91
0.43011,56.519
0.41642,56.128
0.40567,55.541
0.39687,55.15
0.38905,54.759
0.38221,54.368
0.37537,53.781
0.3695,53.585
0.36461,53.194
0.3607,52.803
0.35679,52.412
0.35386,52.216
0.35093,51.825
0.348,51.63
0.34506,51.63
0.34311,51.825
0.34213,52.412
0.3392,53.781
0.33627,56.128
0.33333,59.648
0.3304,64.537
0.32747,70.209
0.32454,76.076
0.3216,81.552
0.31965,86.441
0.31672,90.939
0.31378,94.655
0.31183,97.784
0.30987,99.935
0.30792,101.3
0.30499,101.89
0.30205,101.69
0.29912,100.91
0.29619,99.544
0.29326,97.784
0.28935,95.632
0.28641,92.894
0.2825,89.765
0.27859,86.441
0.27566,83.116
0.27273,79.791
0.27077,76.662
0.26882,73.924
0.26588,71.382
0.26197,69.426
0.25904,67.862
0.25709,66.493
0.25709,65.515
0.25904,64.733
0.26588,64.146
0.27761,63.559
0.29717,63.364
0.31965,62.973
0.34506,62.973
0.37928,62.777
0.41838,62.582
0.46041,62.582
0.50244,62.582
0.54252,62.582
0.57869,62.386
0.60899,62.386
0.63441,62.19
0.65396,61.995
0.66862,61.799
0.67742,61.604
0.68133,61.408
0.67937,61.017
0.67546,60.626
0.66667,60.43
0.65494,60.039
0.64027,59.844
0.62268,59.452
0.60215,59.061
0.58065,58.866
0.55914,58.475
0.53666,58.279
0.51515,57.888
0.49658,57.497
0.47996,57.106
0.46334,56.715
0.4477,56.323
0.43304,55.932
0.42033,55.346
0.40958,54.954
0.3998,54.563
0.39198,54.172
0.38514,53.781
0.3783,53.39
0.37341,52.999
0.3695,52.608
0.36559,52.216
0.36364,52.021
0.3607,51.825
0.35777,51.63
0.35582,51.63
0.35288,51.825
0.34995,52.412
0.34702,53.781
0.34506,56.323
0.34213,60.039
0.3392,65.124
0.33627,70.991
0.33431,76.662
0.33236,82.334
0.32942,87.419
0.32649,91.917
0.32454,95.828
0.3216,98.761
0.31867,100.91
0.31476,102.28
0.31183,102.87
0.3089,102.67
0.30596,102.09
0.30303,100.72
0.3001,98.957
0.29814,96.806
0.29619,94.068
0.29228,91.134
0.28935,87.81
0.28543,84.485
0.2825,81.16
0.27859,77.836
0.27566,75.098
0.27175,72.555
0.26882,70.6
0.26588,68.84
0.26393,67.471
0.26393,66.297
0.26686,65.319
0.27273,64.733
0.28446,64.146
0.30205,63.755
0.32747,63.559
0.35973,63.364
0.39785,63.168
0.43988,63.168
0.48289,62.973
0.5259,62.973
0.565,62.973
0.59629,62.973
0.6217,62.973
0.64516,62.777
0.66471,62.582
0.67937,62.386
0.69013,62.19
0.69501,61.799
0.69599,61.408
0.69208,61.213
0.68328,60.821
0.67155,60.43
0.65591,60.235
0.63734,59.844
0.61975,59.648
0.60117,59.257
0.57967,58.866
0.55718,58.67
0.53568,58.279
0.51417,57.888
0.49365,57.497
0.47507,57.106
0.45748,56.715
0.44282,56.323
0.42913,55.932
0.41838,55.346
0.4086,54.954
0.40176,54.563
0.39492,54.172
0.38807,53.781
0.38319,53.39
0.3783,52.999
0.37439,52.608
0.37048,52.412
0.36657,52.216
0.36364,52.021
0.3607,52.216
0.35777,52.412
0.35484,53.39
0.35191,55.15
0.34995,58.279
0.348,62.777
0.34506,68.449
0.34213,74.316
0.3392,80.378
0.33529,85.854
0.33236,90.939
0.32942,95.241
0.32649,98.957
0.32356,101.5
0.32063,103.46
0.31867,104.43
0.31672,104.82
0.31378,104.43
0.31085,103.46
0.30792,102.09
0.30401,100.13
0.30108,97.784
0.29717,95.046
0.29326,92.112
0.29032,88.983
0.28641,85.463
0.28348,82.138
0.27957,79.009
0.27664,76.076
0.27468,73.533
0.27273,71.578
0.26979,69.622
0.26784,68.253
0.26784,67.275
0.27175,66.297
0.28055,65.711
0.29619,65.124
0.31867,64.733
0.34897,64.537
0.38514,64.146
0.42033,64.146
0.45552,63.95
0.49658,63.95
0.53763,63.95
0.57771,63.755
0.6129,63.755
0.64223,63.755
0.66667,63.559
0.68524,63.364
0.69892,63.168
0.70674,62.973
0.70968,62.777
0.70772,62.582
0.70186,62.19
0.69306,61.799
0.68133,61.604
0.66667,61.408
0.64809,61.017
0.62757,60.821
0.60606,60.43
0.58358,60.235
0.56012,59.844
0.53763,59.452
0.51613,59.061
0.4956,58.866
0.47801,58.475
0.46432,58.083
0.44966,57.692
0.43597,57.106
0.42424,56.715
0.41349,56.323
0.40469,56.128
0.39883,55.737
0.39394,55.346
0.38905,54.954
0.38514,54.563
0.38025,54.172
0.37634,53.977
0.37341,53.781
0.37048,53.781
0.36755,53.977
0.36461,54.563
0.36168,55.737
0.35875,58.279
0.35582,62.19
0.35288,67.275
0.34995,73.338
0.34702,79.596
0.34311,85.463
0.34018,90.939
0.33822,95.632
0.33627,99.739
0.33431,103.06
0.33138,105.61
0.32845,107.17
0.32551,107.95
0.32258,107.95
0.31867,107.17
0.31574,106.19
0.31281,104.63
0.30987,102.67
0.30596,100.33
0.30303,97.588
0.3001,94.459
0.29814,91.33
0.29619,87.81
0.29326,84.289
0.29032,81.16
0.28739,78.422
0.28446,76.076
0.28152,73.924
0.27957,72.36
0.27957,70.991
0.2825,70.013
0.29032,69.231
0.30205,68.644
0.31867,68.253
0.34409,67.862
0.3783,67.666
0.41935,67.666
0.46432,67.471
0.5132,67.471
0.56109,67.471
0.60606,67.471
0.64712,67.471
0.68231,67.275
0.71163,67.08
0.73509,66.884
0.74976,66.688
0.75855,66.297
0.7654,65.906
0.76833,65.711
0.76637,65.319
0.76051,64.928
0.74976,64.537
0.73607,64.342
0.71848,63.95
0.69795,63.559
0.67644,63.364
0.65298,62.973
0.6305,62.582
0.60997,62.19
0.58749,61.799
0.56598,61.408
0.54448,61.017
0.52493,60.626
0.50831,60.235
0.49267,59.844
0.47898,59.452
0.46725,59.061
0.45748,58.475
0.44868,58.279
0.44184,57.692
0.43695,57.301
0.43206,56.91
0.42717,56.519
0.42326,55.932
0.41935,55.541
0.41544,55.346
0.41251,55.346
0.4086,55.346
0.40469,56.323
0.40078,58.083
0.39785,61.408
0.39394,66.493
0.39101,72.555
0.38807,79.205
0.38514,85.658
0.38123,91.525
0.37732,96.806
0.37439,101.5
0.37048,105.22
0.36755,107.95
0.36364,109.71
0.3607,110.69
0.35679,110.69
0.35386,110.1
0.35093,108.93
0.348,107.37
0.34506,105.41
0.34115,103.06
0.33822,100.52
0.33431,97.588
0.3304,94.263
0.32649,90.939
0.32258,87.419
0.31867,83.898
0.31476,80.769
0.31085,78.031
0.30694,75.489
0.30401,73.533
0.30303,71.969
0.30205,70.795
0.30499,69.818
0.31378,69.035
0.32845,68.449
0.35191,68.057
0.38319,67.862
0.42229,67.666
0.46628,67.666
0.5132,67.471
0.56012,67.471
0.59922,67.275
0.63148,67.275
0.66373,67.275
0.69306,67.08
0.7175,66.884
0.73607,66.493
0.74878,66.297
0.7566,65.906
0.75953,65.515
0.7566,65.124
0.75073,64.733
0.73998,64.342
0.72532,63.95
0.70968,63.559
0.6911,63.168
0.67058,62.777
0.64614,62.386
0.6217,61.995
0.59531,61.604
0.56989,61.213
0.54545,60.821
0.52297,60.43
0.50147,60.039
0.48192,59.452
0.4653,59.061
0.45161,58.475
0.43988,58.083
0.42913,57.692
0.42033,57.106
0.41153,56.715
0.40371,56.128
0.39785,55.737
0.39198,55.346
0.3871,54.954
0.38221,54.759
0.37732,54.368
0.37341,54.368
0.3695,54.368
0.36559,54.759
0.36266,55.737
0.35973,57.497
0.35484,60.821
0.35093,65.515
0.34702,71.186
0.34213,77.64
0.33822,83.703
0.33333,89.57
0.32942,94.85
0.32551,99.348
0.3216,103.06
0.31867,105.8
0.31574,107.76
0.31281,108.74
0.3089,108.93
0.30499,108.54
0.30108,107.37
0.29717,105.8
0.29228,103.85
0.28837,101.3
0.28446,98.566
0.27957,95.437
0.27566,92.112
0.27175,88.592
0.26882,85.072
0.26686,81.747
0.26393,78.618
0.26002,76.076
0.25611,73.729
0.25318,71.969
0.25122,70.6
0.25122,69.426
0.25513,68.449
0.26393,67.862
0.28055,67.471
0.30499,66.884
0.33236,66.688
0.36266,66.493
0.40274,66.297
0.4477,66.297
0.49462,66.297
0.54057,66.102
0.58358,66.102
0.62072,65.906
0.65298,65.906
0.6784,65.711
0.69795,65.515
0.71163,65.319
0.71945,64.928
0.72141,64.537
0.71945,64.146
0.71261,63.755
0.70283,63.559
0.69013,63.168
0.67253,62.777
0.65298,62.386
0.63148,61.995
0.60704,61.604
0.5826,61.213
0.55718,60.821
0.53275,60.43
0.51222,60.039
0.49365,59.844
0.47507,59.257
0.4565,58.866
0.44086,58.279
0.4262,57.888
0.41349,57.301
0.40274,56.91
0.39394,56.519
0.38514,55.932
0.3783,55.541
0.37341,55.346
0.36852,54.954
0.36461,54.563
0.36168,54.172
0.35875,53.977
0.35582,53.977
0.35288,54.172
0.34897,54.563
0.34604,55.346
0.34213,56.91
0.3392,59.844
0.33529,64.146
0.33138,69.231
0.32747,75.098
0.32551,80.769
0.32258,86.05
0.31867,90.939
0.31476,95.046
0.31183,98.566
0.3089,101.3
0.30499,103.06
0.30205,104.04
0.29814,104.24
0.29521,103.85
0.2913,102.87
0.28739,101.3
0.28348,99.153
0.28055,96.806
0.27761,93.872
0.27468,90.548
0.27077,87.223
0.26784,83.703
0.26393,80.378
0.261,77.249
0.25709,74.707
0.25415,72.36
0.25122,70.6
0.24829,69.035
0.24731,67.862
0.24829,67.08
0.25122,66.297
0.25806,65.906
0.27077,65.515
0.29032,65.124
0.31672,64.928
0.34995,64.928
0.38807,64.733
0.42913,64.733
0.47214,64.537
0.5132,64.537
0.55132,64.537
0.58553,64.537
0.61095,64.342
0.62952,64.146
0.64614,63.95
0.65982,63.559
0.66764,63.364
0.67155,62.973
0.67058,62.777
0.66471,62.386
0.65494,61.995
0.64125,61.604
0.62463,61.408
0.60508,61.017
0.58651,60.821
0.56696,60.43
0.54545,60.039
0.52395,59.844
0.50147,59.452
0.48094,59.061
0.46139,58.67
0.44379,58.279
0.42815,57.888
0.41447,57.301
0.40274,56.91
0.39296,56.519
0.38514,55.932
0.37928,55.541
0.37341,55.15
0.36852,54.759
0.36364,54.368
0.35973,53.977
0.35582,53.781
0.35288,53.585
0.34995,53.39
0.34702,53.39
0.34409,53.781
0.34115,54.368
0.33822,55.541
0.33627,57.888
0.33431,61.604
0.33236,66.493
0.32942,72.164
0.32649,78.031
0.32356,83.703
0.32063,88.983
0.31769,93.481
0.31574,97.393
0.31281,100.72
0.30987,102.87
0.30694,104.43
0.30401,105.02
0.30303,104.82
0.3001,104.04
0.29717,102.67
0.29423,101.11
0.29032,98.761
0.28739,96.219
0.28348,93.09
0.28055,89.765
0.27664,86.245
0.2737,82.725
0.26979,79.596
0.26588,76.662
0.26393,74.12
0.26197,72.164
0.26002,70.404
0.25806,68.84
0.25709,67.862
0.25806,66.884
0.26295,66.297
0.2737,65.906
0.29032,65.515
0.31476,65.319
0.34702,65.124
0.38416,65.124
0.42033,64.928
0.45455,64.928
0.49462,64.928
0.5347,64.928
0.57185,64.733
0.60508,64.733
0.63343,64.537
0.65591,64.342
0.67253,64.146
0.68426,63.755
0.69013,63.559
0.6911,63.168
0.68719,62.973
0.68035,62.582
0.6696,62.19
0.65591,61.799
0.63832,61.408
0.61877,61.213
0.59726,60.821
0.5738,60.43
0.55132,60.235
0.52786,59.844
0.50635,59.452
0.48485,59.061
0.46628,58.475
0.45064,58.083
0.43793,57.692
0.42522,57.301
0.41349,56.91
0.40371,56.519
0.39492,56.128
0.3871,55.541
0.38025,55.15
0.37439,54.759
0.3695,54.368
0.36559,53.977
0.36168,53.781
0.35777,53.781
0.35582,53.585
0.35386,53.781
0.35093,54.172
0.348,55.346
0.34506,57.301
0.34213,60.626
0.3392,65.319
0.33627,70.795
0.33333,76.858
0.32942,82.725
0.32649,88.201
0.32356,92.894
0.32063,97.197
0.31867,100.72
0.31574,103.26
0.31281,105.02
0.30987,106
0.30694,106.19
0.30401,105.61
0.3001,104.43
0.29717,103.06
0.29326,101.11
0.28935,98.566
0.28641,95.828
0.2825,92.699
0.27957,89.179
0.27761,85.658
0.27468,82.334
0.27175,79.009
0.26784,76.271
0.26491,73.924
0.261,71.969
0.25904,70.404
0.25709,69.035
0.25806,67.862
0.26197,67.275
0.27175,66.493
0.28446,66.102
0.30205,65.711
0.32747,65.515
0.3607,65.319
0.3998,65.319
0.44282,65.319
0.48583,65.124
0.52884,65.124
0.56794,65.124
0.60313,64.928
0.63343,64.928
0.65689,64.733
0.67546,64.537
0.68622,64.342
0.69208,64.146
0.69501,63.755
0.69404,63.364
0.68915,63.168
0.68035,62.777
0.66764,62.386
0.652,61.995
0.63245,61.604
0.61193,61.408
0.58944,61.017
0.56598,60.626
0.54448,60.235
0.52493,59.844
0.5044,59.648
0.48485,59.061
0.46628,58.67
0.44868,58.279
0.43304,57.888
0.42033,57.301
0.4086,56.91
0.39785,56.519
0.39003,56.128
0.38221,55.737
0.37537,55.346
0.37146,54.954
0.36755,54.368
0.36364,54.172
0.3607,53.781
0.35679,53.781
0.35386,53.781
0.35093,54.172
0.348,55.15
0.34506,56.91
0.34213,60.235
0.33822,65.124
0.33529,70.795
0.33236,77.054
0.3304,83.312
0.32845,88.983
0.32551,94.263
0.3216,98.761
0.31867,102.67
0.31574,105.41
0.31183,107.37
0.3089,108.54
0.30596,108.74
0.30205,108.34
0.29912,107.37
0.29521,106
0.29326,104.04
0.29032,101.89
0.28739,99.153
0.28446,96.219
0.28055,92.894
0.27664,89.374
0.2737,85.854
0.27175,82.529
0.26979,79.4
0.26784,76.662
0.26393,74.316
0.261,72.36
0.26002,70.795
0.261,69.622
0.26393,68.644
0.27077,68.057
0.28446,67.471
0.30694,67.275
0.33724,66.884
0.37537,66.884
0.41935,66.688
0.46823,66.688
0.51808,66.688
0.56696,66.688
0.61193,66.688
0.64712,66.688
0.67546,66.493
0.70186,66.493
0.72336,66.297
0.74096,66.102
0.75269,65.906
0.75855,65.711
0.75953,65.319
0.75562,64.928
0.74682,64.537
0.73412,64.342
0.7175,63.95
0.69892,63.559
0.68035,63.168
0.65689,62.973
0.63148,62.582
0.60606,62.19
0.57967,61.799
0.55425,61.408
0.52981,61.017
0.50733,60.626
0.48778,60.235
0.46921,59.648
0.45357,59.257
0.44086,58.866
0.43109,58.279
0.42131,58.083
0.41251,57.497
0.40469,57.106
0.39785,56.91
0.39296,56.519
0.38807,56.128
0.38319,55.932
0.38025,55.737
0.37732,55.737
0.37439,56.128
0.37146,56.91
0.3695,58.866
0.36755,61.995
0.36559,66.688
0.36266,72.555
0.35973,79.009
0.35679,85.267
0.35288,91.134
0.34995,96.61
0.34702,101.3
0.34409,105.02
0.34115,107.95
0.33822,110.1
0.33627,111.08
0.33431,111.47
0.33138,111.08
0.32845,110.3
0.32551,108.93
0.32258,107.17
0.31867,105.02
0.31476,102.48
0.31183,99.739
0.30792,96.61
0.30499,93.286
0.30205,89.765
0.29912,86.245
0.29717,82.921
0.29521,80.183
0.29228,77.836
0.29032,75.685
0.28837,74.12
0.28837,72.751
0.2913,71.773
0.3001,70.991
0.31574,70.6
0.33822,70.209
0.37048,69.818
0.40958,69.622
0.4477,69.622
0.48583,69.426
0.53079,69.426
0.57771,69.426
0.62268,69.426
0.66373,69.231
0.69892,69.231
0.72923,69.035
0.75269,68.84
0.77028,68.449
0.78201,68.253
0.78788,67.862
0.78983,67.471
0.78592,67.08
0.77908,66.493
0.76833,65.906
0.75464,65.515
0.73705,64.928
0.71652,64.537
0.69404,64.146
0.6696,63.559
0.64516,62.973
0.61975,62.582
0.59531,62.19
0.57185,61.799
0.5523,61.408
0.53568,60.821
0.51906,60.43
0.50342,60.039
0.48974,59.648
0.47703,59.061
0.46628,58.67
0.45748,58.279
0.45064,57.692
0.44379,57.301
0.43793,56.91
0.43304,56.323
0.42913,56.128
0.42522,55.737
0.42229,55.541
0.41838,55.737
0.41447,56.323
0.41153,57.888
0.40762,60.821
0.40371,65.319
0.39883,70.991
0.39492,77.445
0.39101,84.094
0.38612,90.548
0.38221,96.415
0.3783,101.5
0.37537,105.8
0.37146,109.13
0.36657,111.47
0.36266,112.65
0.35777,113.23
0.35288,113.04
0.348,112.26
0.34311,110.89
0.33822,109.13
0.33431,106.98
0.32942,104.43
0.32454,101.69
0.32063,98.566
0.31769,95.046
0.31281,91.525
0.3089,88.005
0.30401,84.485
0.29912,81.356
0.29326,78.618
0.28837,76.271
0.28348,74.316
0.28055,72.947
0.28152,71.773
0.28641,70.795
0.29619,70.013
0.31183,69.426
0.33627,69.035
0.3695,68.84
0.40958,68.644
0.45552,68.644
0.5044,68.449
0.55327,68.449
0.59922,68.253
0.64125,68.253
0.67644,68.057
0.70577,67.862
0.72923,67.666
0.74389,67.471
0.75269,67.08
0.75758,66.688
0.75953,66.297
0.75758,65.906
0.75073,65.319
0.73998,64.928
0.72532,64.537
0.70772,64.146
0.68719,63.755
0.66373,63.364
0.63832,62.973
0.61486,62.582
0.59238,62.19
0.56794,61.799
0.5435,61.408
0.52004,61.017
0.49853,60.43
0.47801,60.039
0.46041,59.648
0.44477,59.061
0.43109,58.475
0.41838,58.083
0.4086,57.497
0.3998,57.106
0.39296,56.715
0.38807,56.323
0.38319,55.932
0.3783,55.541
0.37439,55.15
0.3695,54.954
0.36559,54.954
0.36168,55.346
0.35777,55.932
0.35386,57.497
0.34995,60.039
0.34604,64.342
0.34311,69.622
0.34115,75.88
0.33724,82.334
0.33431,88.201
0.3304,93.677
0.32649,98.566
0.32258,102.67
0.31867,105.8
0.31476,107.95
0.31183,109.32
0.30792,109.91
0.30401,109.52
0.3001,108.74
0.29717,107.17
0.29423,105.41
0.2913,103.06
0.28739,100.52
0.2825,97.588
0.27859,94.263
0.27468,90.743
0.26979,87.027
0.26588,83.507
0.26197,80.183
0.25806,77.445
0.25415,74.902
0.2522,72.947
0.25024,71.186
0.24927,70.013
0.25024,69.035
0.25415,68.057
0.26491,67.471
0.28348,67.275
0.30987,66.884
0.34409,66.688
0.38514,66.493
0.43206,66.493
0.47996,66.297
0.52199,66.297
0.56012,66.297
0.58944,66.102
0.6129,66.102
0.63539,65.906
0.65591,65.711
0.67155,65.515
0.68328,65.319
0.68915,64.928
0.6911,64.537
0.68817,64.146
0.68133,63.755
0.67058,63.364
0.65787,62.973
0.64321,62.582
0.62463,62.19
0.60411,61.995
0.58162,61.604
0.55816,61.213
0.5347,60.821
0.51124,60.43
0.48876,60.039
0.46823,59.648
0.44966,59.061
0.43304,58.67
0.42033,58.279
0.40958,57.692
0.3998,57.106
0.39003,56.715
0.38221,56.323
0.37439,55.932
0.36852,55.541
0.36266,55.15
0.35777,54.759
0.35386,54.368
0.34995,54.172
0.34702,53.977
0.34409,53.977
0.34213,54.368
0.34018,54.954
0.33724,56.519
0.33431,59.061
0.33138,62.973
0.32845,68.253
0.32551,74.12
0.32258,80.183
0.31867,85.854
0.31574,91.134
0.31281,95.632
0.30987,99.544
0.30792,102.48
0.30596,104.63
0.30303,106
0.3001,106.58
0.29717,106.39
0.29423,105.41
0.29032,104.04
0.28739,102.09
0.28348,99.739
0.28055,97.001
0.27664,94.068
0.27273,90.743
0.26979,87.027
0.26686,83.507
0.26491,80.183
0.26197,77.249
0.25904,74.707
0.25611,72.555
0.25318,70.795
0.25024,69.231
0.24927,68.253
0.25024,67.275
0.25513,66.688
0.26588,66.102
0.28348,65.906
0.30303,65.515
0.32845,65.515
0.36168,65.319
0.3998,65.124
0.44282,65.124
0.48583,65.124
0.52688,65.124
0.565,64.928
0.59824,64.928
0.62659,64.733
0.64907,64.537
0.66569,64.342
0.67742,64.146
0.68231,63.755
0.68328,63.559
0.68035,63.168
0.67449,62.777
0.66373,62.386
0.65005,62.19
0.63343,61.799
0.61388,61.408
0.59238,61.017
0.56891,60.626
0.54643,60.43
0.52297,60.039
0.50342,59.648
0.48583,59.257
0.46823,58.67
0.45161,58.279
0.43597,57.888
0.42131,57.497
0.40958,56.91
0.39883,56.519
0.38905,56.128
0.38123,55.737
0.37439,55.346
0.36852,54.954
0.36364,54.563
0.3607,54.172
0.35777,53.781
0.35484,53.781
0.35288,53.585
0.34995,53.781
0.34702,54.172
0.34506,55.346
0.34213,57.497
0.3392,61.017
0.33627,65.906
0.33333,71.578
0.3304,77.445
0.32845,83.312
0.32649,88.788
0.32356,93.481
0.3216,97.784
0.31867,101.11
0.31574,103.85
0.31281,105.41
0.30987,106.19
0.30694,106.39
0.30303,105.8
0.3001,104.63
0.29717,103.06
0.29326,101.11
0.2913,98.566
0.28935,95.632
0.28641,92.503
0.2825,88.983
0.27957,85.463
0.27566,81.943
0.27273,78.814
0.26882,76.076
0.26588,73.533
0.26197,71.578
0.26002,70.013
0.25806,68.644
0.25806,67.666
0.261,66.884
0.26784,66.297
0.28055,65.906
0.29912,65.515
0.32551,65.319
0.35777,65.124
0.39687,65.124
0.43891,64.928
0.48192,64.928
0.52395,64.928
0.56305,64.928
0.59824,64.928
0.62463,64.733
0.64516,64.537
0.66276,64.342
0.67742,64.146
0.68622,63.95
0.6911,63.559
0.69208,63.168
0.68719,62.777
0.67937,62.582
0.66764,62.19
0.652,61.799
0.63343,61.408
0.61486,61.213
0.59629,61.017
0.57478,60.626
0.5523,60.235
0.52981,59.844
0.50831,59.452
0.48778,58.866
0.46823,58.475
0.45064,58.083
0.435,57.692
0.42229,57.106
0.40958,56.715
0.3998,56.323
0.39198,55.737
0.38612,55.346
0.38025,54.954
0.37439,54.563
0.3695,54.172
0.36559,53.977
0.36168,53.781
0.35875,53.585
0.35484,53.585
0.35191,53.977
0.34897,54.759
0.34604,56.519
0.34311,59.648
0.34213,64.146
0.3392,69.818
0.33724,76.076
0.33431,82.138
0.33138,88.005
0.32845,93.09
0.32551,97.784
0.32258,101.5
0.31965,104.43
0.31672,106.58
0.31378,107.76
0.31085,108.34
0.3089,107.95
0.30694,107.17
0.30401,105.8
0.3001,103.85
0.29717,101.69
0.29423,98.957
0.29032,96.024
0.28641,92.699
0.28348,89.179
0.27957,85.658
0.27566,82.334
0.27273,79.205
0.26979,76.467
0.26784,73.924
0.26588,72.164
0.26295,70.6
0.26197,69.231
0.26295,68.253
0.26784,67.471
0.27859,66.884
0.29619,66.493
0.3216,66.102
0.35386,65.906
0.39296,65.711
0.42913,65.711
0.4653,65.515
0.50538,65.515
0.54643,65.515
0.58553,65.319
0.61975,65.319
0.64907,65.124
0.67253,64.928
0.69013,64.733
0.70283,64.537
0.70968,64.146
0.71163,63.95
0.70968,63.559
0.70283,63.168
0.69404,62.777
0.68035,62.582
0.66471,62.19
0.64516,61.799
0.62366,61.408
0.60117,61.213
0.57771,60.821
0.55914,60.43
0.5435,60.039
0.52493,59.648
0.50538,59.061
0.48778,58.67
0.47312,58.279
0.45846,57.692
0.44477,57.301
0.43206,56.91
0.42033,56.323
0.41056,55.932
0.40274,55.541
0.39492,55.15
0.38905,54.759
0.38319,54.368
0.3783,53.977
0.37439,53.781
0.37048,53.781
0.36852,53.781
0.36559,54.368
0.36168,55.737
0.35875,58.279
0.35582,62.386
0.35288,67.666
0.34897,73.924
0.34604,80.378
0.34311,86.441
0.3392,91.917
0.33529,97.001
0.33333,101.3
0.3304,104.82
0.32845,107.37
0.32551,108.93
0.3216,109.71
0.31867,109.52
0.31476,108.93
0.31085,107.76
0.30694,106.19
0.30303,104.24
0.29912,101.69
0.29521,99.153
0.2913,96.024
0.28935,92.699
0.28641,89.179
0.28348,85.658
0.28055,82.334
0.27664,79.4
0.27273,76.662
0.26882,74.511
0.26588,72.751
0.26295,71.382
0.26295,70.209
0.26686,69.231
0.27664,68.644
0.29032,68.057
0.30987,67.862
0.33822,67.471
0.37439,67.471
0.41838,67.275
0.4653,67.275
0.5132,67.275
0.56109,67.275
0.60411,67.275
0.64321,67.08
0.67644,67.08
0.70381,66.884
0.72434,66.688
0.73803,66.297
0.74487,66.102
0.74878,65.711
0.74976,65.319
0.74585,65.124
0.73803,64.733
0.7263,64.342
0.71163,63.95
0.69306,63.559
0.67155,63.168
0.64809,62.973
0.62366,62.582
0.60117,62.19
0.58065,61.799
0.55816,61.408
0.53666,61.017
0.51613,60.626
0.49658,60.039
0.47898,59.648
0.46432,59.257
0.45064,58.866
0.43891,58.279
0.42913,58.083
0.42131,57.497
0.41447,57.106
0.4086,56.715
0.40469,56.323
0.40078,56.128
0.39687,55.737
0.39394,55.737
0.39101,55.737
0.38807,56.323
0.38514,57.497
0.38221,60.039
0.38025,63.95
0.37732,69.426
0.37439,75.685
0.37146,82.334
0.3695,88.592
0.36755,94.459
0.36461,99.544
0.36168,104.04
0.35875,107.56
0.35679,110.3
0.35386,111.86
0.35093,112.84
0.348,112.84
0.34506,112.06
0.34213,111.08
0.3392,109.52
0.33724,107.56
0.33529,105.41
0.33236,102.67
0.32942,99.739
0.32649,96.61
0.32356,93.286
0.32063,89.765
0.31769,86.05
0.31476,82.921
0.31183,79.987
0.3089,77.64
0.30596,75.489
0.30499,73.924
0.30596,72.555
0.3089,71.578
0.31672,70.795
0.3304,70.209
0.35288,69.818
0.38221,69.426
0.41935,69.231
0.46237,69.035
0.50929,69.035
0.55718,68.84
0.60313,68.84
0.64516,68.644
0.6784,68.449
0.70479,68.253
0.72923,68.057
0.74976,67.862
0.7654,67.471
0.77615,67.08
0.78201,66.688
0.78299,66.297
0.78006,65.711
0.77322,65.319
0.76149,64.928
0.74682,64.537
0.73021,63.95
0.71261,63.559
0.6911,63.168
0.66862,62.777
0.64321,62.386
0.61877,61.799
0.59433,61.408
0.57185,61.017
0.55034,60.43
0.53079,59.844
0.5132,59.452
0.49658,58.866
0.48289,58.475
0.47214,58.083
0.46334,57.497
0.45455,57.106
0.44575,56.715
0.43891,56.128
0.43206,55.737
0.42717,55.541
0.42131,55.15
0.41642,54.954
0.41251,54.954
0.40762,55.15
0.40274,55.932
0.39883,57.692
0.39492,60.821
0.39101,65.515
0.38612,71.382
0.38025,77.836
0.37537,84.289
0.37048,90.352
0.36461,95.828
0.35973,100.72
0.35484,104.82
0.34995,107.76
0.34506,109.91
0.34115,111.28
0.33822,111.67
0.33333,111.28
0.32942,110.3
0.32454,108.93
0.31965,106.98
0.31476,104.82
0.3089,102.28
0.30401,99.348
0.29912,96.219
0.29423,92.699
0.28935,88.983
0.28543,85.463
0.28152,81.943
0.27957,79.009
0.27566,76.467
0.27175,74.316
0.26784,72.555
0.26588,71.186
0.26588,70.013
0.26979,69.231
0.27957,68.644
0.29717,68.057
0.32258,67.862
0.35582,67.471
0.39003,67.275
0.4262,67.275
0.46921,67.08
0.51417,67.08
0.55816,66.884
0.59922,66.884
0.63539,66.688
0.66667,66.493
0.6911,66.297
0.7087,65.906
0.72141,65.711
0.72923,65.319
0.73118,64.928
0.72923,64.537
0.72336,64.146
0.71359,63.559
0.70088,63.168
0.68426,62.973
0.66569,62.386
0.64418,61.995
0.62072,61.604
0.59531,61.408
0.57087,60.821
0.54643,60.43
0.52297,60.039
0.50244,59.648
0.48583,59.257
0.46823,58.67
0.45161,58.279
0.43695,57.888
0.42424,57.301
0.41251,56.91
0.40274,56.323
0.39492,55.932
0.3871,55.541
0.38123,55.15
0.37537,54.759
0.37146,54.368
0.36755,53.977
0.36461,53.781
0.35777,53.781
0.348,53.977
0.34115,54.563
0.33627,55.932
0.33236,58.475
0.32845,62.386
0.32454,67.471
0.32063,73.533
0.31672,79.791
0.31281,85.854
0.30987,91.525
0.30694,96.415
0.30401,100.52
0.30108,103.85
0.29814,106.19
0.29423,107.56
0.2913,108.34
0.28837,108.15
0.28446,107.37
0.28152,106
0.27761,104.24
0.27468,101.89
0.27077,99.153
0.26784,96.219
0.26588,92.894
0.26295,89.179
0.26002,85.658
0.25611,82.138
0.25318,79.009
0.24927,76.271
0.24633,73.924
0.24242,71.969
0.23949,70.404
0.23851,69.035
0.23851,68.057
0.24145,67.275
0.24731,66.688
0.26002,66.297
0.27957,65.906
0.30596,65.711
0.34018,65.515
0.37928,65.515
0.42229,65.515
0.46725,65.319
0.51026,65.319
0.55034,65.319
0.58651,65.124
0.61681,65.124
0.63832,64.928
0.65396,64.733
0.66667,64.342
0.67546,64.146
0.67937,63.755
0.67937,63.364
0.67546,62.973
0.66667,62.582
0.65396,62.19
0.63832,61.799
0.61877,61.408
0.59824,61.017
0.57771,60.626
0.55816,60.43
0.53666,60.039
0.51515,59.648
0.49267,59.257
0.47214,58.67
0.45259,58.279
0.43597,57.888
0.42033,57.497
0.40665,56.91
0.39492,56.519
0.38514,56.128
0.37634,55.541
0.37048,55.346
0.36461,54.759
0.35973,54.368
0.35484,53.977
0.35093,53.781
0.34702,53.585
0.34311,53.39
0.34018,53.39
0.33724,53.585
0.33431,54.172
0.33138,55.541
0.32845,58.083
0.32649,61.995
0.32454,66.884
0.3216,72.555
0.31867,78.422
0.31476,84.094
0.31183,89.179
0.3089,93.677
0.30596,97.588
0.30303,100.52
0.3001,102.67
0.29717,104.04
0.29326,104.63
0.29032,104.43
0.28837,103.65
0.28641,102.28
0.28446,100.33
0.28152,97.979
0.27761,95.241
0.27468,92.112
0.27077,88.788
0.26784,85.463
0.26393,81.943
0.261,78.814
0.25709,75.88
0.25415,73.533
0.25122,71.382
0.25024,69.622
0.24829,68.253
0.24633,67.275
0.24633,66.297
0.24927,65.711
0.25611,65.319
0.26882,64.928
0.28935,64.537
0.31672,64.537
0.34995,64.342
0.38807,64.342
0.43011,64.146
0.46725,64.146
0.50049,64.146
0.53666,63.95
0.56989,63.95
0.6002,63.755
0.62561,63.559
0.64418,63.364
0.65885,62.973
0.66667,62.582
0.67058,62.386
0.6696,61.995
0.66373,61.604
0.65494,61.408
0.64321,61.017
0.62854,60.626
0.60997,60.235
0.58944,60.039
0.56794,59.648
0.54643,59.452
0.52395,59.061
0.50244,58.67
0.48192,58.279
0.46237,57.888
0.44477,57.301
0.42913,56.91
0.41642,56.519
0.40665,55.932
0.39589,55.541
0.3871,55.15
0.37928,54.759
0.37146,54.172
0.36559,53.781
0.3607,53.585
0.35582,53.194
0.35191,52.803
0.348,52.608
0.34506,52.608
0.34311,52.803
0.34018,53.39
0.33822,54.368
0.33529,56.519
0.33236,59.844
0.32942,64.537
0.32649,70.209
0.32356,76.271
0.32063,81.943
0.31769,87.419
0.31476,92.308
0.31183,96.61
0.30987,99.935
0.30792,102.67
0.30596,104.24
0.30303,105.22
0.3001,105.41
0.29717,105.02
0.29423,103.85
0.2913,102.28
0.28837,100.13
0.28446,97.588
0.28152,94.85
0.27761,91.525
0.27468,88.005
0.27175,84.485
0.26979,81.16
0.26784,78.031
0.26491,75.098
0.26197,72.751
0.25806,70.795
0.25513,69.231
0.25318,67.862
0.2522,66.884
0.25415,66.102
0.26002,65.515
0.27175,65.124
0.28641,64.733
0.30596,64.537
0.33431,64.342
0.37048,64.342
0.41056,64.146
0.45357,64.146
0.49658,64.146
0.53861,64.146
0.57674,63.95
0.60997,63.95
0.63734,63.755
0.65982,63.559
0.67546,63.364
0.68524,62.973
0.68915,62.777
0.6911,62.386
0.68817,61.995
0.68133,61.604
0.67058,61.408
0.65591,61.017
0.6393,60.626
0.61877,60.43
0.59726,60.039
0.5738,59.648
0.55034,59.452
0.52981,59.061
0.51026,58.67
0.49169,58.279
0.47214,57.888
0.45455,57.301
0.43891,56.91
0.42424,56.519
0.41153,55.932
0.40078,55.541
0.39101,55.15
0.38319,54.759
0.37537,54.368
0.3695,53.977
0.36461,53.585
0.3607,53.194
0.35777,52.803
0.35386,52.608
0.35093,52.608
0.348,52.999
0.34506,53.781
0.34213,55.15
0.3392,57.888
0.33627,62.19
0.33333,67.471
0.3304,73.533
0.32845,79.596
0.32649,85.463
0.32356,90.743
0.32063,95.437
0.31769,99.348
0.31476,102.48
0.31183,104.63
0.3089,106
0.30596,106.58
0.30694,106.39
0.31183,105.61
0.31183,104.43
0.30987,102.67
0.30792,100.52
0.30694,97.979
0.30401,95.046
0.3001,91.721
0.29717,88.396
0.29326,84.681
0.28935,81.16
0.28543,78.227
0.2825,75.293
0.27859,73.142
0.27468,71.186
0.27175,69.426
0.26979,68.253
0.27077,67.275
0.2737,66.493
0.28152,65.906
0.29521,65.515
0.31769,65.124
0.34702,64.928
0.38514,64.733
0.42815,64.733
0.47605,64.733
0.52395,64.537
0.57087,64.537
0.61486,64.537
0.64907,64.537
0.67644,64.342
0.70186,64.146
0.72336,63.95
0.73998,63.755
0.75073,63.364
0.75562,62.973
0.7566,62.777
0.75171,62.19
0.74291,61.799
0.73021,61.604
0.71261,61.213
0.69501,60.821
0.67546,60.626
0.65298,60.235
0.62757,59.844
0.60215,59.648
0.57674,59.257
0.5523,58.866
0.52884,58.475
0.50733,58.083
0.48778,57.692
0.47019,57.106
0.45552,56.91
0.44184,56.323
0.43109,55.932
0.42326,55.541
0.41447,55.346
0.40762,54.954
0.40078,54.563
0.39492,54.172
0.38905,53.781
0.38514,53.781
0.38123,53.585
0.37732,53.781
0.37341,54.172
0.37048,55.541
0.36755,57.692
0.36559,61.408
0.36266,66.493
0.35875,72.555
0.35582,78.814
0.35191,84.876
0.34897,90.548
0.34506,95.632
0.34213,99.935
0.33822,103.46
0.33529,106.19
0.33138,107.95
0.32845,108.93
0.32649,108.93
0.32454,108.54
0.3216,107.37
0.31867,105.8
0.31574,103.85
0.31183,101.5
0.30792,98.761
0.30499,95.632
0.30108,92.308
0.29814,88.788
0.29423,85.267
0.2913,81.943
0.28935,79.009
0.28739,76.271
0.28446,74.12
0.2825,72.36
0.27957,70.991
0.27957,69.818
0.28152,69.035
0.28837,68.449
0.30108,67.862
0.3216,67.666
0.35093,67.471
0.38807,67.275
0.43109,67.275
0.47214,67.275
0.51124,67.08
0.56696,67.08
0.61681,67.08
0.65103,67.08
0.68524,66.884
0.71457,66.688
0.739,66.493
0.75758,66.297
0.77126,65.906
0.77908,65.711
0.78104,65.319
0.77908,64.928
0.77322,64.537
0.76246,64.342
0.74878,63.95
0.73216,63.559
0.71163,63.168
0.68915,62.973
0.66471,62.582
0.6393,62.19
0.61486,61.799
0.59042,61.408
0.56696,61.017
0.54741,60.626
0.53079,60.039
0.51417,59.648
0.49853,59.061
0.48485,58.67
0.47312,58.279
0.46237,57.888
0.45455,57.301
0.44673,56.91
0.44086,56.715
0.43597,56.323
0.43109,55.932
0.42717,55.737
0.42424,55.541
0.42131,55.541
0.41935,55.932
0.41642,56.91
0.41349,58.866
0.41056,62.386
0.40665,67.275
0.40371,73.338
0.40078,79.791
0.39785,86.245
0.39492,92.112
0.39198,97.393
0.38807,101.89
0.38612,105.61
0.38416,108.34
0.38123,110.1
0.3783,110.89
0.37537,111.08
0.37243,110.5
0.36852,109.52
0.36559,107.95
0.36168,106
0.35777,103.85
0.35484,101.3
0.35093,98.37
0.348,95.046
0.34604,91.721
0.34213,88.201
0.33822,84.681
0.33627,81.552
0.33236,78.618
0.32942,76.271
0.32551,74.316
0.32258,72.751
0.3216,71.382
0.32356,70.404
0.32942,69.426
0.33822,68.84
0.35288,68.449
0.3871,68.057
0.42424,67.862
0.45455,67.666
0.49462,67.666
0.55132,67.471
0.61388,67.471
0.65494,67.275
0.69013,67.275
0.72825,67.08
0.7566,66.884
0.77419,66.688
0.78397,66.297
0.79081,65.906
0.79472,65.515
0.79374,65.124
0.7869,64.733
0.77713,64.342
0.76833,63.755
0.75367,63.364
0.72923,62.973
0.70479,62.582
0.67937,62.19
0.65591,61.799
0.63343,61.408
0.60899,61.017
0.58456,60.626
0.56109,60.235
0.53959,59.844
0.51906,59.257
0.50049,58.866
0.48485,58.279
0.47019,57.888
0.45846,57.497
0.4477,56.91
0.43793,56.519
0.43109,56.128
0.42522,55.541
0.41838,55.346
0.41251,54.954
0.40762,54.563
0.40274,54.368
0.39687,54.172
0.39198,54.172
0.3871,54.563
0.38319,55.346
0.3783,57.301
0.37341,60.626
0.37048,65.515
0.36657,71.578
0.36266,77.836
0.35875,84.094
0.35386,89.961
0.34995,95.241
0.34506,99.935
0.34115,103.65
0.33724,106.39
0.33333,108.34
0.32845,109.32
0.32454,109.52
0.32063,109.13
0.31769,107.95
0.31476,106.39
0.31183,104.43
0.30694,102.09
0.30303,99.348
0.29814,96.219
0.29423,92.894
0.28935,89.179
0.28543,85.658
0.28152,82.138
0.27761,79.009
0.2737,76.467
0.27077,74.12
0.26882,72.164
0.26784,70.6
0.26393,69.426
0.261,68.449
0.26686,67.666
0.28055,67.275
0.30303,66.688
0.33333,66.493
0.37048,66.297
0.41251,66.102
0.45748,66.102
0.50244,65.906
0.54057,65.906
0.57283,65.906
0.60508,65.906
0.63441,65.711
0.65787,65.515
0.67742,65.319
0.69013,64.928
0.69795,64.537
0.70088,64.342
0.69892,63.95
0.69306,63.559
0.68328,63.168
0.67058,62.777
0.65591,62.386
0.63734,61.995
0.61681,61.604
0.59433,61.213
0.57087,60.821
0.54741,60.43
0.52395,60.039
0.50147,59.648
0.47996,59.257
0.46041,58.866
0.44282,58.279
0.42717,57.888
0.41544,57.497
0.40469,56.91
0.39589,56.519
0.3871,56.128
0.37928,55.541
0.37243,55.15
0.36657,54.759
0.36168,54.368
0.35777,53.977
0.35386,53.781
0.34995,53.39
0.34702,53.39
0.34409,53.39
0.34115,53.585
0.33822,54.368
0.33529,55.737
0.33236,58.279
0.32845,62.19
0.32551,67.471
0.3216,73.142
0.31867,79.009
0.31476,84.485
0.31183,89.57
0.3089,94.068
0.30596,97.784
0.30303,100.72
0.30108,102.67
0.29912,104.04
0.29619,104.43
0.29326,104.04
0.28935,103.06
0.28641,101.5
0.2825,99.544
0.27859,97.197
0.27468,94.263
0.27077,91.134
0.26784,87.81
0.26491,84.289
0.26295,80.965
0.26002,77.836
0.25709,75.098
0.25415,72.751
0.25122,70.795
0.24829,69.035
0.24633,67.862
0.24633,66.884
0.24829,65.906
0.25611,65.319
0.26882,64.928
0.28935,64.537
0.31281,64.342
0.3392,64.146
0.37439,63.95
0.41447,63.95
0.4565,63.95
0.49951,63.755
0.53861,63.755
0.57478,63.559
0.60606,63.559
0.63148,63.364
0.65005,63.168
0.66373,62.973
0.67155,62.777
0.67351,62.386
0.67253,61.995
0.66764,61.799
0.65787,61.408
0.64516,61.017
0.62952,60.626
0.61095,60.235
0.58944,60.039
0.56794,59.648
0.54448,59.257
0.52199,59.061
0.50244,58.67
0.48485,58.279
0.46725,57.888
0.44966,57.497
0.43304,56.91
0.41935,56.519
0.40567,56.128
0.39492,55.737
0.38514,55.346
0.37732,54.954
0.3695,54.368
0.36364,53.977
0.35875,53.585
0.35484,53.194
0.35191,52.803
0.34897,52.608
0.34604,52.412
0.34311,52.412
0.34018,52.412
0.33724,52.803
0.33431,53.585
0.33138,55.346
0.32942,58.279
0.32649,62.386
0.32356,67.666
0.32063,73.533
0.31965,79.205
0.31672,84.485
0.31476,89.374
0.31183,93.677
0.30987,97.197
0.30694,99.739
0.30401,101.69
0.30108,102.67
0.29814,103.06
0.29521,102.67
0.29228,101.69
0.28837,99.935
0.28641,97.979
0.28446,95.241
0.28152,92.503
0.27859,89.179
0.27468,85.854
0.27175,82.334
0.26784,79.009
0.26491,76.076
0.26197,73.533
0.25904,71.382
0.25611,69.426
0.25318,68.057
0.2522,66.884
0.25318,65.906
0.25611,65.124
0.26393,64.537
0.27664,64.146
0.29619,63.755
0.32356,63.559
0.35679,63.559
0.39589,63.364
0.43891,63.364
0.48192,63.168
0.52395,63.168
0.56305,63.168
0.59335,63.168
0.61779,62.973
0.64027,62.973
0.65885,62.777
0.67253,62.386
0.68133,62.19
0.68426,61.799
0.68328,61.408
0.67742,61.213
0.66764,60.821
0.65298,60.626
0.63539,60.235
0.61779,59.844
0.59922,59.648
0.57869,59.257
0.55621,58.866
0.53372,58.475
0.51124,58.279
0.49071,57.888
0.47116,57.301
0.45357,56.91
0.43793,56.519
0.42424,56.128
0.41153,55.737
0.40078,55.346
0.39296,54.759
0.38612,54.368
0.38025,53.977
0.37439,53.585
0.3695,53.194
0.36461,52.803
0.3607,52.608
0.35679,52.412
0.35386,52.216
0.34995,52.216
0.34702,52.412
0.34506,53.194
0.34311,54.563
0.34115,57.106
0.33822,61.017
0.33529,65.906
0.33333,71.578
0.3304,77.445
0.32747,82.921
0.32454,88.005
0.3216,92.308
0.31867,96.024
0.31574,98.957
0.31281,101.11
0.30987,102.48
0.30792,103.06
0.30596,103.06
0.30303,102.28
0.3001,101.11
0.29717,99.153
0.29423,96.806
0.2913,94.263
0.28739,91.134
0.28446,87.81
0.28055,84.289
0.27761,80.965
0.2737,77.836
0.27175,75.098
0.26979,72.555
0.26686,70.6
0.26393,69.035
0.26197,67.666
0.261,66.493
0.26295,65.711
0.26882,64.928
0.28055,64.537
0.29912,64.146
0.32551,63.755
0.35875,63.559
0.39687,63.559
0.43402,63.364
0.46921,63.364
0.50831,63.364
0.54839,63.364
0.58553,63.168
0.61779,63.168
0.64516,62.973
0.66764,62.777
0.68426,62.582
0.70577,62.386
0.72727,61.995
0.73509,61.799
0.73509,61.408
0.72825,61.213
0.7175,60.821
0.70186,60.43
0.68231,60.235
0.6608,59.844
0.63734,59.452
0.61193,59.257
0.58749,58.866
0.56305,58.475
0.53959,58.279
0.51711,57.888
0.49756,57.497
0.48094,56.91
0.46628,56.519
0.45259,56.128
0.44086,55.737
0.42913,55.346
0.41935,54.759
0.41056,54.368
0.40274,53.977
0.39589,53.585
0.39003,53.194
0.38514,52.999
0.38025,52.608
0.37732,52.608
0.37439,52.412
0.37243,52.803
0.3695,53.39
0.36559,54.563
0.36266,57.106
0.35973,61.017
0.35582,66.102
0.35288,71.969
0.34995,77.836
0.34604,83.703
0.34311,88.983
0.34018,93.481
0.33822,97.588
0.33627,100.91
0.33333,103.46
0.3304,104.82
0.32747,105.61
0.32454,105.61
0.32063,104.82
0.31769,103.65
0.31378,101.89
0.30987,99.739
0.30596,97.197
0.30205,94.263
0.29912,90.939
0.29717,87.614
0.29423,84.094
0.2913,80.574
0.28739,77.64
0.28446,74.902
0.28055,72.555
0.27761,70.6
0.27468,69.231
0.2737,67.862
0.27566,66.884
0.2825,66.102
0.29619,65.711
0.31281,65.124
0.33529,64.928
0.36657,64.733
0.40665,64.537
0.45161,64.537
0.49951,64.537
0.54839,64.537
0.59531,64.537
0.63832,64.537
0.67546,64.342
0.70674,64.342
0.73216,64.146
0.7478,64.146
0.75758,63.755
0.76442,63.559
0.76637,63.364
0.76344,62.973
0.7566,62.777
0.74487,62.386
0.72923,61.995
0.70968,61.604
0.68719,61.408
0.66276,61.213
0.63734,60.821
0.61388,60.626
0.5914,60.235
0.56891,59.844
0.54545,59.648
0.52395,59.061
0.50342,58.67
0.48485,58.279
0.46823,57.888
0.45357,57.497
0.44086,57.106
0.43011,56.715
0.42033,56.323
0.41251,55.932
0.40665,55.541
0.40176,55.15
0.39785,54.759
0.39296,54.563
0.38905,54.368
0.38612,54.368
0.38221,54.368
0.37928,54.954
0.37634,56.323
0.37341,58.67
0.3695,62.386
0.36657,67.471
0.36461,73.533
0.36266,79.596
0.35973,85.658
0.35679,90.939
0.35386,95.828
0.35093,100.13
0.348,103.46
0.34506,106
0.34213,107.56
0.3392,108.34
0.33627,108.34
0.33333,107.76
0.32942,106.58
0.32747,105.02
0.32551,103.06
0.32356,100.72
0.31965,97.979
0.31672,95.046
0.31378,91.721
0.31085,88.201
0.30792,84.876
0.30499,81.747
0.30205,78.814
0.29912,76.467
0.29717,74.316
0.29521,72.555
0.29521,71.186
0.29717,70.209
0.30205,69.426
0.31378,68.84
0.33138,68.449
0.35777,68.057
0.39296,67.862
0.43402,67.862
0.48094,67.862
0.52981,67.666
0.57869,67.666
0.62561,67.666
0.66276,67.471
0.69306,67.471
0.72336,67.471
0.74878,67.275
0.76931,67.08
0.78495,66.688
0.79374,66.297
0.79863,65.906
0.79765,65.711
0.79179,65.319
0.78201,64.928
0.76735,64.537
0.75171,64.342
0.73412,63.95
0.71261,63.559
0.68915,63.168
0.66471,62.777
0.64027,62.582
0.61584,62.19
0.59238,61.799
0.56989,61.408
0.55034,61.017
0.53275,60.43
0.51613,60.039
0.50244,59.452
0.49169,59.061
0.48289,58.475
0.4741,58.083
0.46628,57.497
0.45943,57.106
0.45357,56.519
0.44868,56.128
0.44477,55.737
0.43988,55.346
0.43597,55.15
0.43206,55.15
0.42913,55.541
0.42522,56.519
0.42229,58.67
0.41935,62.386
0.41544,67.471
0.41251,73.533
0.4086,79.987
0.40469,86.441
0.40078,92.308
0.39785,97.588
0.39394,102.09
0.39101,105.8
0.3871,108.54
0.38319,110.3
0.38025,111.08
0.37732,111.28
0.37439,110.5
0.37146,109.52
0.36755,107.95
0.36461,105.8
0.3607,103.65
0.35679,100.91
0.35288,97.979
0.34897,94.655
0.34506,91.134
0.34018,87.614
0.33724,84.289
0.33431,81.16
0.33138,78.422
0.32747,76.076
0.32356,74.12
0.32063,72.555
0.31965,71.186
0.32356,70.209
0.33236,69.426
0.34897,68.84
0.37439,68.449
0.40665,68.253
0.4477,67.862
0.48583,67.862
0.52395,67.666
0.56794,67.666
0.6129,67.471
0.65494,67.471
0.69208,67.275
0.72434,67.08
0.74976,66.884
0.76931,66.688
0.78201,66.297
0.78983,65.906
0.79179,65.515
0.78886,65.124
0.78201,64.733
0.77224,64.342
0.75855,63.95
0.74096,63.559
0.72043,63.168
0.69697,62.777
0.67253,62.386
0.64712,61.995
0.62072,61.604
0.59433,61.213
0.56989,60.821
0.54545,60.43
0.5259,59.844
0.50831,59.452
0.49169,58.866
0.46725,58.475
0.44086,57.888
0.42229,57.497
0.40958,56.91
0.39883,56.519
0.39003,56.128
0.38319,55.737
0.37634,55.346
0.37146,54.954
0.36755,54.563
0.36364,54.563
0.35973,54.368
0.35582,54.563
0.35191,55.15
0.348,56.323
0.34409,58.475
0.34018,61.995
0.33529,67.08
0.33138,72.947
0.32747,79.009
0.32258,84.876
0.31867,90.548
0.31574,95.437
0.31281,99.739
0.30987,103.06
0.30694,105.61
0.30303,106.98
0.29912,107.76
0.29521,107.56
0.29228,106.98
0.28837,105.61
0.28446,103.85
0.28055,101.69
0.27664,99.153
0.2737,96.219
0.27077,92.894
0.26784,89.374
0.26491,85.854
0.261,82.529
0.25806,79.4
0.25415,76.662
0.25122,74.12
0.24731,72.164
0.24536,70.6
0.2434,69.231
0.24536,68.253
0.25024,67.471
0.25904,66.884
0.27273,66.493
0.29423,66.102
0.32258,65.906
0.35875,65.711
0.3998,65.515
0.44477,65.515
0.48974,65.319
0.53275,65.319
0.57283,65.319
0.60704,65.124
0.63636,64.928
0.65689,64.733
0.67058,64.537
0.68133,64.342
0.68817,63.95
0.69013,63.559
0.68817,63.168
0.68133,62.973
0.67058,62.582
0.65591,62.19
0.63832,61.799
0.61779,61.408
0.59629,61.213
0.57478,60.821
0.55523,60.43
0.53275,60.039
0.51026,59.648
0.48876,59.257
0.46823,58.866
0.44966,58.279
0.43206,57.888
0.4174,57.497
0.40371,56.91
0.39198,56.519
0.38221,56.128
0.37341,55.541
0.36755,55.15
0.36168,54.759
0.35679,54.368
0.35288,53.977
0.348,53.781
0.34409,53.585
0.34018,53.585
0.33724,53.585
0.33431,53.781
0.3304,54.368
0.32747,55.737
0.32454,58.083
0.3216,61.799
0.31965,66.688
0.31672,72.164
0.31378,78.031
0.31085,83.507
0.30694,88.592
0.30401,93.09
0.3001,96.806
0.29717,99.739
0.29423,101.89
0.2913,103.26
0.28739,103.85
0.28446,103.65
0.2825,102.87
0.28055,101.5
0.27761,99.544
0.27468,97.393
0.27077,94.655
0.26784,91.525
0.26393,88.005
0.26002,84.681
0.25709,81.356
0.25318,78.227
0.25024,75.489
0.24731,72.947
0.24536,70.991
0.24438,69.231
0.24242,68.057
0.24145,67.08
0.24242,66.102
0.24731,65.515
0.25709,65.124
0.2737,64.733
0.29814,64.537
0.32942,64.342
0.36559,64.342
0.40762,64.146
0.45064,64.146
0.48876,64.146
0.52297,63.95
0.55718,63.95
0.59042,63.755
0.61877,63.559
0.64125,63.364
0.65885,63.168
0.67058,62.973
0.67742,62.777
0.6784,62.386
0.67449,61.995
0.66569,61.604
0.65494,61.408
0.64125,61.017
0.62463,60.626
0.60508,60.43
0.5826,60.039
0.56012,59.844
0.53666,59.452
0.51417,59.061
0.49267,58.67
0.47214,58.279
0.45259,57.888
0.43597,57.301
0.42033,56.91
0.4086,56.519
0.3998,55.932
0.39003,55.541
0.38123,55.15
0.37341,54.759
0.36755,54.368
0.36168,53.977
0.35679,53.585
0.35288,53.39
0.34897,52.999
0.34604,52.803
0.34311,52.803
0.34018,52.999
0.33822,53.585
0.33627,54.759
0.33333,56.715
0.3304,60.039
0.32747,64.537
0.32356,70.013
0.32063,75.685
0.31769,81.356
0.31574,86.441
0.31281,90.939
0.30987,95.046
0.30694,97.979
0.30499,100.52
0.30303,102.09
0.30108,102.87
0.29814,102.87
0.29521,102.28
0.29228,101.11
0.28935,99.348
0.28543,97.197
0.28152,94.655
0.27859,91.721
0.27468,88.396
0.27077,84.876
0.26784,81.552
0.26588,78.227
0.26295,75.489
0.261,73.142
0.25806,70.991
0.25513,69.231
0.2522,67.862
0.25122,66.884
0.2522,65.906
0.25611,65.319
0.26588,64.928
0.28152,64.537
0.30401,64.342
0.32845,64.146
0.35679,63.95
0.39296,63.755
0.43402,63.755
0.47703,63.755
0.52004,63.755
0.56012,63.755
0.59531,63.559
0.62561,63.364
0.65005,63.168
0.66862,62.973
0.68133,62.777
0.68817,62.582
0.69013,62.19
0.68817,61.799
0.68133,61.408
0.67155,61.213
0.65689,61.017
0.64027,60.626
0.61975,60.235
0.59824,60.039
0.57478,59.648
0.55132,59.257
0.52884,58.866
0.50635,58.475
0.48778,58.279
0.47116,57.888
0.45455,57.497
0.43891,56.91
0.42522,56.519
0.41251,56.128
0.40176,55.737
0.39198,55.346
0.38416,54.759
0.37732,54.368
0.37146,53.977
0.36559,53.585
0.36168,53.39
0.35875,52.999
0.35582,52.999
0.35288,52.803
0.34995,52.999
0.34702,53.585
0.34409,54.759
0.34018,56.91
0.33724,60.43
0.33431,65.319
0.33627,70.991
0.34018,76.858
0.34018,82.529
0.3392,87.81
0.33822,92.699
0.33529,96.61
0.33333,100.13
0.3304,102.48
0.32649,104.24
0.32356,105.02
0.32063,105.22
0.31672,104.63
0.31378,103.46
0.30987,101.89
0.30596,99.739
0.30303,97.197
0.30108,94.459
0.29717,91.134
0.29326,87.81
0.29032,84.289
0.28641,80.965
0.2825,78.031
0.27859,75.293
0.27468,73.142
0.27175,71.186
0.26882,69.622
0.26784,68.253
0.26784,67.275
0.27175,66.493
0.28055,65.906
0.29521,65.515
0.31867,65.124
0.34995,64.928
0.38807,64.733
0.43304,64.537
0.48192,64.537
0.53177,64.537
0.58065,64.537
0.62561,64.537
0.66471,64.537
0.69501,64.342
0.7175,64.146
0.73705,63.95
0.75269,63.755
0.76344,63.364
0.76833,63.168
0.76735,62.973
0.76149,62.582
0.75073,62.19
0.73607,61.799
0.7175,61.408
0.69501,61.213
0.67253,60.821
0.65103,60.43
0.62659,60.235
0.6002,59.844
0.57478,59.452
0.55034,59.061
0.52688,58.475
0.50538,58.083
0.48583,57.692
0.46823,57.301
0.45357,56.91
0.43988,56.323
0.42815,55.932
0.41935,55.346
0.41153,54.954
0.40469,54.563
0.39883,54.172
0.39394,53.781
0.38905,53.585
0.38416,53.39
0.38025,53.39
0.37634,53.585
0.37243,53.977
0.3695,55.346
0.36559,57.497
0.36266,61.408
0.3607,66.297
0.35679,72.164
0.35386,78.227
0.34995,84.094
0.34702,89.57
0.34311,94.459
0.34018,98.566
0.33627,101.89
0.33333,104.43
0.32942,106
0.32551,106.98
0.32258,107.17
0.31965,106.58
0.31672,105.41
0.31378,103.85
0.30987,101.89
0.30596,99.544
0.30205,96.61
0.29814,93.481
0.29326,90.157
0.28935,86.832
0.28543,83.312
0.2825,80.183
0.27859,77.445
0.27566,74.902
0.2737,72.947
0.27175,71.186
0.26979,69.818
0.26979,68.84
0.2737,68.057
0.2825,67.275
0.29912,66.884
0.32454,66.493
0.35777,66.297
0.39883,66.102
0.44575,65.906
0.49658,65.906
0.54057,65.906
0.58065,65.906
0.62268,65.906
0.66178,65.906
0.69697,65.906
0.7263,65.906
0.74976,65.711
0.76637,65.515
0.77713,65.124
0.78201,64.928
0.78104,64.537
0.77517,64.342
0.7654,63.95
0.75269,63.559
0.73509,63.168
0.71554,62.973
0.69208,62.582
0.66667,62.19
0.64027,61.799
0.6129,61.604
0.58651,61.213
0.56109,60.821
0.53763,60.43
0.51613,59.844
0.4956,59.452
0.47996,59.061
0.46725,58.475
0.45357,58.279
0.44282,57.692
0.43206,57.301
0.42326,56.91
0.41544,56.519
0.4086,56.128
0.40274,55.932
0.39785,55.541
0.39394,55.346
0.39003,55.346
0.38807,55.541
0.38612,56.128
0.38319,57.497
0.38123,60.235
0.3783,64.342
0.37537,69.818
0.37243,76.076
0.3695,82.529
0.36657,88.592
0.36266,94.068
0.35973,99.153
0.35679,103.26
0.35386,106.58
0.35093,109.13
0.34897,110.5
0.34702,111.28
0.34409,111.08
0.34115,110.5
0.33822,109.13
0.33529,107.56
0.33236,105.61
0.32845,103.26
0.32551,100.52
0.32258,97.588
0.31867,94.263
0.31672,90.743
0.31476,87.223
0.31281,83.898
0.30987,80.965
0.30694,78.422
0.30401,76.271
0.30205,74.511
0.30108,72.947
0.30303,71.969
0.3089,70.991
0.32258,70.404
0.34311,70.013
0.37243,69.622
0.40371,69.426
0.43891,69.426
0.48387,69.231
0.53275,69.231
0.58456,69.231
0.63441,69.231
0.68035,69.035
0.72141,69.035
0.75562,68.84
0.78397,68.449
0.8045,68.253
0.82014,67.862
0.82698,67.471
0.82991,67.08
0.82796,66.493
0.82307,66.102
0.81427,65.711
0.80059,65.124
0.78397,64.537
0.76344,64.146
0.73998,63.755
0.71457,63.168
0.68817,62.973
0.66178,62.386
0.63539,61.995
0.61193,61.604
0.5914,61.213
0.57087,60.821
0.5523,60.235
0.53372,59.844
0.51808,59.257
0.5044,58.866
0.49267,58.279
0.48289,57.888
0.4741,57.497
0.46725,56.91
0.46041,56.519
0.45455,56.128
0.45064,55.737
0.44575,55.346
0.44086,55.346
0.43597,55.346
0.43206,56.128
0.42717,57.497
0.42326,60.235
0.41838,64.342
0.41349,70.013
0.40958,76.271
0.40469,82.725
0.3998,88.788
0.39492,94.459
0.39101,99.544
0.3871,103.85
0.38221,107.17
0.37732,109.52
0.37243,110.89
0.36755,111.67
0.36266,111.47
0.35777,110.69
0.35288,109.32
0.34702,107.56
0.34213,105.61
0.33724,103.06
0.33333,100.33
0.32942,97.197
0.32356,93.872
0.31281,90.352
0.3001,86.636
0.29032,83.312
0.28348,80.183
0.27859,77.445
0.27273,75.293
0.26882,73.338
0.26588,71.969
0.26588,70.6
0.26882,69.622
0.27566,69.035
0.28935,68.449
0.31085,68.057
0.34018,67.862
0.37634,67.666
0.41642,67.471
0.46041,67.471
0.5044,67.471
0.54643,67.275
0.58456,67.08
0.61779,67.08
0.64125,66.884
0.65885,66.688
0.67449,66.297
0.68622,66.102
0.69306,65.711
0.69599,65.319
0.69501,64.928
0.68915,64.537
0.67937,64.146
0.66667,63.755
0.65005,63.168
0.63148,62.973
0.61193,62.582
0.59335,62.19
0.57087,61.799
0.54741,61.408
0.52395,61.017
0.50147,60.626
0.47898,60.039
0.45943,59.648
0.44086,59.061
0.42424,58.67
0.40958,58.279
0.39687,57.692
0.38612,57.106
0.37732,56.715
0.37146,56.323
0.36461,55.932
0.35875,55.541
0.35386,55.15
0.34897,54.759
0.34506,54.563
0.34115,54.368
0.33822,54.368
0.33431,54.759
0.33138,55.346
0.32747,57.106
0.32454,60.039
0.32258,64.537
0.31965,70.209
0.31574,76.271
0.31281,82.529
0.3089,88.396
0.30596,93.677
0.30205,98.37
0.29912,102.28
0.29521,105.41
0.29228,107.37
0.28837,108.74
0.28543,108.93
0.2825,108.74
0.28055,107.56
0.27761,106
0.2737,104.04
0.27077,101.69
0.26686,98.957
0.26295,95.828
0.25904,92.503
0.25513,88.983
0.2522,85.463
0.24829,81.943
0.24438,79.009
0.24242,76.271
0.24047,73.924
0.23851,72.164
0.23656,70.6
0.2346,69.231
0.23656,68.253
0.24145,67.471
0.2522,67.08
0.26979,66.688
0.29423,66.297
0.32747,66.102
0.36559,65.906
0.4086,65.906
0.44673,65.711
0.48289,65.711
0.52102,65.515
0.55816,65.515
0.5914,65.319
0.61975,65.319
0.64321,65.124
0.65982,64.928
0.67155,64.537
0.67742,64.342
0.67937,63.95
0.67546,63.559
0.66862,63.168
0.65787,62.777
0.64418,62.386
0.62757,61.995
0.60802,61.799
0.58651,61.408
0.56305,61.017
0.53959,60.626
0.51613,60.235
0.49365,59.844
0.47214,59.452
0.45161,58.866
0.43304,58.475
0.41838,58.083
0.40665,57.497
0.39394,57.106
0.38319,56.715
0.37341,56.128
0.36461,55.737
0.35777,55.346
0.35093,54.954
0.34604,54.563
0.34115,54.172
0.33627,53.781
0.33333,53.781
0.3304,53.781
0.32845,53.781
0.32551,54.368
0.32258,55.541
0.31965,57.692
0.31672,61.213
0.31378,65.906
0.30987,71.578
0.30694,77.445
0.30401,82.921
0.30108,88.201
0.29814,92.894
0.29521,96.806
0.29326,100.13
0.2913,102.48
0.28935,104.04
0.28641,104.82
0.28348,104.82
0.28055,104.24
0.27664,102.87
0.2737,101.11
0.27077,98.957
0.26686,96.415
0.26393,93.481
0.26002,90.352
0.25806,86.832
0.25513,83.312
0.25318,79.987
0.24927,77.054
0.24633,74.511
0.2434,72.36
0.23949,70.6
0.23656,69.035
0.23558,67.862
0.23558,66.884
0.23851,66.102
0.24731,65.711
0.26197,65.124
0.27859,64.928
0.30108,64.537
0.33138,64.537
0.36755,64.342
0.4086,64.342
0.45161,64.342
0.49267,64.146
0.53177,64.146
0.56696,63.95
0.59726,63.95
0.6217,63.755
0.64027,63.559
0.652,63.168
0.65885,62.973
0.66178,62.777
0.6608,62.386
0.65689,61.995
0.64809,61.799
0.63539,61.408
0.61975,61.017
0.60117,60.821
0.57967,60.43
0.55816,60.039
0.5347,59.844
0.51222,59.452
0.49267,59.061
0.4741,58.67
0.4565,58.279
0.43891,57.888
0.42229,57.301
0.40762,56.91
0.39492,56.519
0.38416,55.932
0.37439,55.541
0.36559,55.15
0.35777,54.759
0.35191,54.368
0.34702,53.977
0.34409,53.585
0.34018,53.39
0.33724,53.194
0.33431,52.999
0.33138,53.194
0.32845,53.781
0.32551,54.759
0.32258,56.91
0.31965,60.43
0.31672,65.319
0.31378,70.991
0.31183,77.054
0.30987,82.921
0.30792,88.396
0.30499,93.09
0.30205,97.393
0.3001,100.72
0.29717,103.26
0.29423,105.02
0.2913,106
0.28837,106.19
0.28543,105.61
0.2825,104.43
0.27957,102.87
0.27761,100.91
0.27566,98.37
0.27273,95.632
0.26979,92.308
0.26588,88.983
0.26295,85.463
0.25904,81.943
0.25611,78.814
0.2522,76.076
0.24927,73.729
0.24633,71.773
0.2434,70.013
0.24242,68.84
0.2434,67.666
0.24536,66.884
0.25122,66.297
0.26393,65.906
0.2825,65.515
0.3089,65.319
0.34213,65.124
0.38123,65.124
0.42424,64.928
0.46823,64.928
0.52199,64.733
0.57771,64.733
0.61877,64.733
0.64907,64.537
0.67644,64.342
0.69892,64.146
0.71652,63.95
0.72825,63.559
0.73412,63.364
0.73509,62.973
0.73118,62.777
0.72239,62.386
0.70968,61.995
0.69208,61.604
0.67449,61.408
0.65591,61.017
0.63343,60.626
0.60997,60.235
0.58456,59.844
0.56012,59.648
0.53568,59.061
0.5132,58.67
0.49267,58.279
0.4741,57.888
0.45748,57.301
0.44282,56.91
0.42913,56.519
0.41935,55.932
0.41153,55.541
0.40274,55.15
0.39589,54.759
0.38905,54.368
0.38319,53.977
0.3783,53.781
0.37439,53.585
0.37048,53.39
0.36657,53.585
0.36364,54.172
0.35973,55.346
0.35679,57.497
0.35484,61.213
0.35191,66.102
0.34897,71.969
0.34604,78.031
0.34213,83.898
0.3392,89.179
0.33627,94.068
0.33236,98.37
0.32942,101.89
0.32649,104.43
0.32258,106
0.31965,106.98
0.31672,107.17
0.31476,106.58
0.31183,105.61
0.3089,104.04
0.30596,102.09
0.30205,99.544
0.29814,96.806
0.29423,93.872
0.28935,90.352
0.28543,87.027
0.28152,83.507
0.27761,80.183
0.27566,77.445
0.27273,74.902
0.26979,72.751
0.26686,70.991
0.26491,69.622
0.26393,68.449
0.26686,67.666
0.27468,66.884
0.28935,66.493
0.31085,66.102
0.34115,65.906
0.3783,65.515
0.42131,65.319
0.46139,65.319
0.49951,65.124
0.54252,65.124
0.58553,65.124
0.62463,64.928
0.65982,64.928
0.68817,64.733
0.71163,64.537
0.72825,64.342
0.739,63.95
0.74487,63.755
0.74487,63.364
0.74096,62.973
0.73314,62.777
0.72141,62.386
0.70577,61.995
0.68719,61.604
0.66569,61.408
0.64223,61.017
0.61681,60.626
0.5914,60.235
0.56696,59.844
0.54252,59.452
0.52004,59.061
0.49853,58.475
0.48094,58.083
0.46628,57.692
0.45161,57.301
0.43793,56.91
0.4262,56.323
0.41544,55.932
0.40665,55.541
0.39785,55.15
0.39101,54.759
0.38514,54.368
0.38025,53.977
0.37537,53.781
0.37146,53.781
0.36852,53.977
0.36559,54.563
0.36266,55.932
0.35875,58.475
0.35582,62.582
0.35191,67.862
0.34897,74.12
0.34506,80.378
0.34115,86.441
0.33822,91.917
0.33431,97.001
0.33138,101.3
0.32845,104.82
0.32649,107.37
0.32356,109.13
0.32063,109.91
0.31769,110.1
0.31476,109.52
0.31085,108.34
0.30694,106.78
0.30303,104.82
0.29912,102.67
0.29521,99.935
0.2913,96.806
0.28837,93.481
0.28641,89.961
0.28348,86.441
0.28055,83.116
0.27664,79.987
0.2737,77.445
0.26979,75.293
0.26588,73.533
0.26393,71.969
0.26393,70.795
0.26784,69.818
0.27761,69.231
0.29521,68.644
0.31574,68.253
0.34115,68.057
0.37634,67.862
0.41935,67.862
0.46725,67.666
0.51613,67.666
0.56403,67.471
0.60997,67.471
0.65005,67.471
0.68524,67.471
0.71359,67.275
0.73607,67.08
0.74976,66.688
0.75855,66.493
0.76344,66.102
0.7654,65.906
0.76246,65.515
0.75464,65.124
0.74389,64.733
0.72825,64.537
0.70968,64.146
0.68817,63.755
0.66373,63.364
0.6393,62.973
0.6129,62.777
0.59042,62.19
0.56989,61.799
0.54741,61.408
0.52688,61.017
0.50733,60.626
0.48876,60.039
0.47312,59.648
0.45943,59.257
0.4477,58.67
0.43793,58.279
0.42913,57.888
0.42131,57.497
0.41544,57.106
0.41056,56.715
0.40665,56.519
0.40274,56.323
0.39883,56.323
0.39589,56.519
0.39296,57.301
0.39003,59.061
0.3871,61.995
0.38416,66.688
0.38123,72.36
0.3783,78.618
0.37634,85.072
0.37439,91.134
0.37146,96.61
0.3695,101.5
0.36657,105.61
0.36364,108.74
0.3607,111.08
0.35777,112.26
0.35582,112.84
0.35288,112.65
0.34995,111.86
0.34702,110.69
0.34311,108.93
0.34115,106.98
0.3392,104.63
0.33627,101.89
0.33333,98.761
0.3304,95.437
0.32747,91.917
0.32454,88.396
0.32063,85.072
0.31769,82.138
0.31378,79.596
0.31085,77.445
0.3089,75.489
0.30792,73.924
0.3089,72.751
0.31378,71.773
0.32356,70.991
0.34115,70.404
0.36559,70.013
0.39883,69.622
0.43793,69.426
0.48289,69.231
0.53079,69.231
0.57869,69.035
0.62366,69.035
0.66569,68.84
0.69697,68.644
0.72141,68.449
0.74487,68.253
0.76344,67.862
0.7781,67.666
0.78788,67.275
0.79277,66.884
0.79277,66.297
0.78886,65.906
0.78006,65.515
0.76735,64.928
0.75073,64.537
0.73314,64.146
0.71457,63.755
0.69208,63.364
0.66862,62.973
0.64321,62.386
0.60997,61.995
0.5738,61.408
0.54545,61.017
0.52199,60.43
0.50244,59.844
0.48485,59.452
0.47019,59.061
0.45748,58.475
0.44673,58.083
0.43793,57.692
0.43011,57.301
0.42326,56.91
0.41642,56.323
0.41056,55.932
0.40567,55.737
0.3998,55.541
0.39492,55.346
0.39101,55.737
0.38612,56.519
0.38123,58.279
0.37732,61.408
0.37341,65.906
0.36852,71.773
0.36364,78.227
0.35875,84.681
0.35386,90.743
0.34897,96.415
0.34409,101.3
0.3392,105.61
0.33431,108.74
0.32942,110.89
0.32454,112.26
0.31965,112.65
0.31574,112.45
0.31281,111.47
0.3089,110.1
0.30401,108.34
0.3001,106
0.29521,103.46
0.29032,100.72
0.28543,97.393
0.28152,93.872
0.27664,90.157
0.27273,86.636
0.26784,83.116
0.26491,80.183
0.26197,77.445
0.25904,75.293
0.25513,73.533
0.25318,71.969
0.2522,70.795
0.25611,70.013
0.26491,69.231
0.28055,68.84
0.30401,68.449
0.33529,68.057
0.37341,68.057
0.41544,67.862
0.45455,67.666
0.49071,67.666
0.52981,67.666
0.56794,67.471
0.60215,67.275
0.63148,67.08
0.65591,66.884
0.67351,66.688
0.68622,66.297
0.69404,65.906
0.69697,65.515
0.69501,65.124
0.68915,64.733
0.68133,64.342
0.66862,63.95
0.65396,63.559
0.63539,63.168
0.61486,62.777
0.59335,62.386
0.56989,61.995
0.54545,61.408
0.52199,61.213
0.49853,60.626
0.47703,60.235
0.45748,59.844
0.44086,59.452
0.42717,58.866
0.41447,58.279
0.40176,57.888
0.39101,57.497
0.38123,56.91
0.37341,56.519
0.36559,56.128
0.35973,55.737
0.35484,55.346
0.34995,54.954
0.34604,54.759
0.34213,54.759
0.34018,54.759
0.33724,55.346
0.33431,56.323
0.3304,58.475
0.32747,61.799
0.32356,66.688
0.31965,72.36
0.31574,78.422
0.31281,84.485
0.3089,90.157
0.30499,95.046
0.30205,99.544
0.29912,103.06
0.29717,105.8
0.29423,107.56
0.29032,108.54
0.28739,108.74
0.28446,108.15
0.28055,106.98
0.27761,105.41
0.2737,103.46
0.27077,100.91
0.26686,97.979
0.26295,94.85
0.26002,91.33
0.25806,87.81
0.25513,84.289
0.2522,80.965
0.24927,78.031
0.24536,75.489
0.24242,73.338
0.23949,71.578
0.23754,70.209
0.23656,69.035
0.23851,68.057
0.24536,67.471
0.25806,66.884
0.2737,66.493
0.29423,66.297
0.32356,66.102
0.35973,65.906
0.40078,65.906
0.44477,65.711
0.48778,65.711
0.52981,65.711
0.56696,65.515
0.59922,65.319
0.62659,65.124
0.64712,64.928
0.6608,64.733
0.66862,64.537
0.67351,64.146
0.67449,63.755
0.67253,63.364
0.66569,62.973
0.65396,62.582
0.64027,62.19
0.6217,61.799
0.60215,61.604
0.57967,61.213
0.55621,60.821
0.53275,60.43
0.51222,60.039
0.49267,59.648
0.47312,59.257
0.45357,58.866
0.43597,58.279
0.42033,57.888
0.40567,57.497
0.39296,56.91
0.38221,56.519
0.37243,56.128
0.36461,55.737
0.35777,55.346
0.35288,54.954
0.348,54.563
0.34409,54.172
0.34018,53.781
0.33724,53.781
0.33333,53.781
0.3304,53.977
0.32747,54.759
0.32454,56.128
0.32063,58.67
0.31769,62.777
0.31476,67.862
0.31183,73.533
0.30987,79.4
0.30792,85.072
0.30499,90.352
0.30205,94.85
0.29912,98.761
0.29619,102.09
0.29326,104.24
0.29032,105.8
0.28739,106.39
0.28348,106.19
0.28055,105.61
0.27761,104.24
0.27566,102.28
0.2737,99.935
0.27175,97.197
0.26882,94.068
0.26491,90.743
0.26197,87.223
0.25806,83.703
0.25513,80.378
0.2522,77.445
0.24829,74.902
0.24536,72.751
0.24242,70.795
0.24047,69.426
0.23949,68.253
0.24047,67.471
0.24242,66.688
0.25024,66.102
0.26295,65.711
0.28348,65.515
0.31085,65.319
0.34506,65.124
0.38416,64.928
0.42717,64.928
0.47116,64.733
0.5132,64.733
0.54741,64.537
0.57674,64.537
0.60411,64.342
0.62854,64.146
0.64907,63.95
0.66276,63.559
0.67253,63.364
0.67644,62.973
0.67546,62.777
0.67058,62.386
0.6608,61.995
0.64712,61.604
0.63245,61.408
0.61584,61.017
0.59629,60.626
0.57478,60.43
0.55132,60.039
0.52786,59.648
0.50538,59.257
0.48387,58.866
0.46334,58.475
0.44477,58.083
0.42815,57.497
0.41349,57.106
0.40078,56.715
0.39101,56.323
0.38221,55.737
0.37439,55.346
0.36755,54.954
0.36168,54.563
0.35582,54.172
0.35093,53.781
0.34702,53.39
0.34311,53.194
0.34018,53.194
0.33724,53.39
0.3392,53.977
0.34506,55.15
0.34702,57.497
0.34604,61.213
0.34409,66.102
0.34213,71.969
0.3392,77.836
0.33627,83.507
0.33236,88.983
0.32942,93.677
0.32551,97.784
0.32258,101.11
0.31965,103.65
0.31672,105.22
0.31378,106
0.31183,106.19
0.30987,105.61
0.30694,104.24
0.30303,102.67
0.3001,100.52
0.29717,97.979
0.29326,95.046
0.28935,91.917
0.28543,88.396
0.28152,84.681
0.27859,81.356
0.27566,78.227
0.2737,75.489
0.27077,73.338
0.26784,71.186
0.26491,69.622
0.26197,68.449
0.261,67.471
0.26295,66.493
0.26979,65.906
0.28348,65.515
0.30401,65.124
0.33333,64.928
0.37048,64.733
0.40665,64.537
0.44379,64.537
0.48778,64.537
0.53275,64.342
0.57674,64.342
0.61681,64.146
0.652,64.146
0.68133,63.95
0.70479,63.559
0.72141,63.364
0.73216,63.168
0.73803,62.777
0.73803,62.386
0.73314,62.19
0.72532,61.799
0.71261,61.408
0.69697,61.213
0.67742,60.821
0.65591,60.43
0.63148,60.039
0.60606,59.844
0.58065,59.452
0.55523,59.061
0.53177,58.67
0.50929,58.279
0.48974,57.888
0.4741,57.497
0.45846,56.91
0.44379,56.519
0.43011,56.128
0.41838,55.541
0.40762,55.15
0.39883,54.759
0.39101,54.368
0.38514,53.977
0.37928,53.585
0.37341,53.39
0.37048,53.194
0.36755,52.999
0.36461,53.194
0.36168,53.781
0.35777,54.954
0.35484,57.301
0.35191,61.017
0.34897,65.906
0.34506,71.773
0.34213,77.836
0.33822,83.703
0.33529,89.179
0.33138,94.263
0.32942,98.566
0.32747,102.09
0.32454,104.63
0.3216,106.39
0.31867,107.37
0.31574,107.37
0.31281,106.98
0.3089,105.8
0.30596,104.24
0.30205,102.09
0.29814,99.739
0.29423,96.806
0.2913,93.677
0.28837,90.157
0.28543,86.636
0.2825,82.921
0.27859,79.791
0.27566,76.858
0.27175,74.316
0.26882,72.164
0.26491,70.404
0.26295,69.035
0.26197,67.862
0.26491,66.884
0.27175,66.297
0.28348,65.906
0.3001,65.515
0.32551,65.124
0.35973,64.928
0.40078,64.733
0.44673,64.733
0.4956,64.537
0.54448,64.537
0.59042,64.537
0.63148,64.342
0.66764,64.342
0.69795,64.146
0.71848,63.95
0.73216,63.755
0.74291,63.364
0.74976,62.973
0.75269,62.777
0.74976,62.386
0.74291,61.995
0.73118,61.604
0.71554,61.408
0.69599,61.017
0.67351,60.626
0.64907,60.235
0.62659,60.039
0.60411,59.648
0.57967,59.257
0.55523,58.866
0.53079,58.475
0.50831,58.083
0.48778,57.692
0.46921,57.106
0.45259,56.91
0.43793,56.323
0.42522,55.932
0.41349,55.541
0.40469,55.15
0.39687,54.759
0.39198,54.368
0.38612,53.977
0.38123,53.781
0.37634,53.585
0.37243,53.585
0.36852,53.585
0.36559,53.977
0.36168,55.346
0.35777,57.497
0.35484,61.213
0.35093,66.102
0.348,71.969
0.34604,78.227
0.34311,84.289
0.34018,89.961
0.33627,95.046
0.33333,99.544
0.32942,103.06
0.32649,105.8
0.32258,107.56
0.31965,108.54
0.31574,108.74
0.31281,108.34
0.3089,107.17
0.30694,105.61
0.30499,103.65
0.30205,101.5
0.29814,98.761
0.29423,95.828
0.2913,92.503
0.28739,88.983
0.28446,85.658
0.28152,82.334
0.27761,79.205
0.27468,76.662
0.27077,74.511
0.26882,72.555
0.26784,71.186
0.26686,69.818
0.26882,69.035
0.27468,68.253
0.28641,67.862
0.30499,67.471
0.33333,67.08
0.3695,66.884
0.41251,66.688
0.45943,66.688
0.50929,66.688
0.55914,66.688
0.6002,66.493
0.63441,66.493
0.66862,66.297
0.69892,66.297
0.72434,66.102
0.74487,65.906
0.75855,65.515
0.76735,65.124
0.77126,64.928
0.77028,64.537
0.76344,64.146
0.75367,63.755
0.73998,63.559
0.72434,63.168
0.70577,62.777
0.68328,62.386
0.65982,61.995
0.63441,61.604
0.60899,61.408
0.58456,61.017
0.56109,60.626
0.53861,60.039
0.51906,59.648
0.50049,59.257
0.48387,58.866
0.47116,58.475
0.46139,57.888
0.45161,57.497
0.44282,57.106
0.435,56.715
0.42913,56.323
0.42326,55.932
0.41838,55.541
0.41447,55.346
0.41153,55.346
0.40762,55.346
0.40469,55.541
0.40274,56.519
0.3998,58.475
0.39785,61.995
0.39492,67.08
0.39198,73.142
0.38807,79.791
0.38514,86.05
0.38221,91.917
0.37928,97.393
0.37537,101.89
0.37243,105.61
0.3695,108.54
0.36657,110.3
0.36364,111.47
0.36168,111.47
0.35875,110.89
0.35582,109.91
0.35288,108.34
0.34702,106.39
0.33822,104.24
0.33333,101.69
0.32845,98.761
0.32454,95.632
0.32063,92.308
0.31769,88.788
0.31476,85.267
0.31281,81.943
0.30987,79.205
0.30694,76.662
0.30401,74.707
0.30108,72.947
0.29912,71.578
0.29912,70.6
0.30401,69.622
0.31476,69.035
0.33333,68.449
0.35973,68.057
0.39394,67.862
0.42815,67.666
0.46432,67.471
0.50733,67.471
0.5523,67.275
0.59726,67.275
0.63832,67.08
0.67449,66.884
0.70479,66.493
0.73021,66.297
0.74878,65.906
0.76149,65.711
0.76931,65.319
0.77126,64.733
0.76833,64.342
0.76344,63.95
0.75367,63.559
0.74096,63.168
0.72532,62.777
0.70577,62.386
0.68426,61.995
0.6608,61.408
0.63539,61.213
0.60997,60.821
0.58456,60.43
0.56012,60.039
0.53861,59.648
0.52004,59.061
0.50147,58.67
0.48289,58.083
0.46725,57.692
0.45259,57.106
0.43988,56.715
0.42913,56.128
0.41935,55.737
0.41056,55.346
0.40371,54.954
0.39687,54.563
0.39101,54.172
0.3871,53.977
0.38221,53.781
0.37732,53.781
0.37341,54.172
0.36852,54.954
0.36364,56.91
0.35875,60.235
0.35484,65.124
0.34995,70.991
0.34506,77.249
0.34018,83.312
0.33529,89.179
0.33138,94.459
0.32845,99.153
0.32454,102.87
0.32063,105.8
0.31672,107.76
0.31281,108.74
0.3089,109.13
0.30401,108.54
0.3001,107.56
0.29619,106
0.2913,104.04
0.28739,101.69
0.28446,98.957
0.28152,96.024
0.27859,92.699
0.27468,89.179
0.27077,85.658
0.26588,82.138
0.26197,79.205
0.25806,76.467
0.25415,74.12
0.25024,72.164
0.24633,70.6
0.24438,69.231
0.24438,68.057
0.24829,67.471
0.25611,66.688
0.27077,66.297
0.29326,65.906
0.32454,65.711
0.36266,65.515
0.40665,65.319
0.45455,65.319
0.50147,65.124
0.54741,65.124
0.58847,64.928
0.62463,64.733
0.652,64.537
0.67155,64.537
0.68915,64.146
0.70186,63.95
0.70968,63.559
0.71359,63.168
0.71261,62.777
0.70772,62.386
0.69795,61.995
0.68426,61.604
0.66764,61.213
0.64712,60.821
0.62757,60.43
0.60704,60.039
0.58456,59.844
0.56012,59.452
0.53568,59.061
0.51222,58.67
0.48974,58.279
0.46823,57.692
0.44966,57.301
0.43304,56.91
0.41838,56.323
0.40469,55.737
0.39394,55.346
0.38514,54.954
0.3783,54.563
0.37146,54.172
0.36559,53.781
0.35973,53.39
0.35484,52.999
0.34995,52.803
0.34604,52.608
0.34213,52.608
0.3392,52.803
0.33529,53.585
0.33236,54.954
0.32942,57.301
0.32747,61.213
0.32454,66.297
0.32063,72.164
0.31769,77.836
0.31378,83.507
0.30987,88.592
0.30596,93.286
0.30303,97.001
0.29912,100.13
0.29619,102.48
0.29326,103.85
0.28935,104.43
0.28739,104.43
0.28543,103.65
0.2825,102.28
0.27957,100.33
0.27566,97.979
0.27273,95.241
0.26882,92.112
0.26491,88.983
0.261,85.463
0.25709,81.943
0.25318,78.814
0.25024,75.88
0.24829,73.533
0.24633,71.186
0.2434,69.426
0.24145,68.057
0.23851,66.884
0.23754,65.906
0.23949,65.124
0.24633,64.537
0.25806,64.146
0.27859,63.95
0.30596,63.559
0.34115,63.364
0.38221,63.364
0.42131,63.168
0.45846,63.168
0.50049,62.973
0.54154,62.973
0.58065,62.777
0.61388,62.777
0.64223,62.582
0.66471,62.386
0.68035,61.995
0.6911,61.799
0.69599,61.408
0.69599,61.017
0.6911,60.821
0.68328,60.43
0.67155,60.039
0.65591,59.844
0.63734,59.452
0.61584,59.061
0.59238,58.67
0.56891,58.279
0.54448,58.083
0.52004,57.692
0.49756,57.301
0.47605,56.91
0.4565,56.519
0.43988,55.932
0.42717,55.541
0.41349,55.15
0.40176,54.563
0.39101,54.172
0.38123,53.781
0.37243,53.39
0.36559,52.999
0.35973,52.608
0.35386,52.216
0.34897,52.021
0.34506,51.825
0.34213,51.63
0.34018,51.63
0.33724,51.825
0.33431,52.216
0.33138,53.585
0.32845,55.932
0.32551,59.648
0.32258,64.537
0.31965,70.013
0.31574,75.685
0.31281,80.965
0.30987,86.05
0.30596,90.548
0.30401,94.263
0.30205,97.393
0.3001,99.544
0.29717,100.91
0.29521,101.5
0.29228,101.5
0.28935,100.72
0.28641,99.348
0.2825,97.588
0.27859,95.241
0.27566,92.699
0.27175,89.765
0.26882,86.441
0.26686,83.116
0.26393,79.791
0.261,76.662
0.25709,73.924
0.25415,71.382
0.25024,69.426
0.24731,67.666
0.24438,66.297
0.24145,65.124
0.24145,64.342
0.2434,63.559
0.25318,63.168
0.26686,62.777
0.28348,62.386
0.30694,62.19
0.33627,61.995
0.37243,61.799
0.41153,61.799
0.45357,61.799
0.4956,61.604
0.53568,61.604
0.57087,61.408
0.60215,61.408
0.62757,61.213
0.64614,61.017
0.65787,60.626
0.66667,60.43
0.67253,60.039
0.67351,59.844
0.67058,59.452
0.66276,59.061
0.652,58.866
0.63734,58.475
0.61975,58.279
0.6002,57.888
0.57869,57.497
0.55621,57.301
0.29423,96.024
0.2913,93.872
0.28837,91.134
0.28543,88.201
0.28152,85.072
0.27859,81.747
0.27468,78.618
0.27175,75.88
0.26882,73.338
0.26588,70.991
0.26295,69.035
0.26197,67.471
0.25904,66.297
0.25709,65.319
0.25611,64.537
0.25709,63.95
0.26197,63.364
0.27175,62.973
0.28739,62.582
0.31085,62.386
0.34115,62.19
0.37732,61.995
0.41153,61.995
0.44575,61.799
0.48387,61.799
0.52297,61.604
0.56012,61.604
0.59335,61.408
0.62072,61.213
0.64321,61.017
0.65982,60.821
0.67155,60.43
0.67742,60.235
0.67937,59.844
0.67644,59.648
0.6696,59.257
0.65982,59.061
0.64712,58.67
0.6305,58.475
0.61193,58.083
0.5914,57.888
0.56989,57.497
0.54839,57.301
0.5259,56.91
0.50538,56.519
0.48485,56.128
0.46628,55.737
0.45161,55.346
0.43891,54.954
0.4262,54.563
0.41447,54.172
0.40371,53.781
0.39492,53.39
0.3871,52.999
0.37928,52.412
0.37341,52.216
0.36852,51.825
0.36364,51.63
0.35973,51.434
0.35582,51.434
0.35288,51.434
0.35093,51.825
0.348,52.803
0.34506,54.759
0.34213,58.083
0.3392,62.386
0.33627,67.471
0.33333,73.142
0.3304,78.422
0.32747,83.507
0.32551,88.005
0.32258,91.917
0.32063,95.241
0.31867,97.784
0.31672,99.544
0.31476,100.33
0.31183,100.72
0.30987,100.33
0.30694,99.348
0.30401,97.979
0.30108,96.024
0.29814,93.677
0.29521,91.134
0.2913,88.005
0.28837,84.876
0.28641,81.552
0.28446,78.422
0.2825,75.489
0.27957,73.142
0.27664,70.991
0.2737,69.035
0.26979,67.471
0.26784,66.297
0.26588,65.319
0.26491,64.537
0.26686,63.95
0.2737,63.364
0.28348,62.973
0.29717,62.582
0.31965,62.386
0.34897,62.19
0.38416,62.19
0.42424,62.19
0.46628,61.995
0.50831,61.995
0.54839,61.799
0.58456,61.604
0.61584,61.408
0.64223,61.408
0.66276,61.213
0.67644,60.821
0.68328,60.626
0.68817,60.235
0.68915,59.844
0.68622,59.648
0.67937,59.452
0.66862,59.061
0.65396,58.866
0.63734,58.475
0.61779,58.279
0.59629,57.888
0.5738,57.692
0.55425,57.301
0.53568,56.91
0.51613,56.715
0.49658,56.323
0.47801,55.932
0.46041,55.541
0.44477,55.15
0.43109,54.759
0.41838,54.172
0.40762,53.781
0.39883,53.39
0.39003,52.999
0.38319,52.608
0.3783,52.216
0.37341,51.825
0.3695,51.63
0.36559,51.434
0.36168,51.434
0.35875,51.825
0.35582,52.608
0.35191,54.172
0.34897,56.91
0.34604,61.213
0.34311,66.297
0.34018,72.164
0.33822,77.836
0.33627,83.312
0.33333,88.396
0.3304,92.699
0.32845,96.415
0.32551,99.348
0.32258,101.5
0.32063,102.67
0.31769,103.26
0.31476,103.26
0.31183,102.48
0.3089,101.11
0.30596,99.544
0.30401,97.393
0.30205,95.046
0.29912,92.112
0.29619,88.983
0.29326,85.854
0.28935,82.334
0.28641,79.205
0.2825,76.271
0.27957,73.533
0.27664,71.578
0.27273,69.622
0.26979,68.253
0.26784,67.08
0.26784,65.906
0.26784,65.124
0.27175,64.537
0.27957,64.146
0.29423,63.755
0.31574,63.364
0.34506,63.168
0.38123,63.168
0.42229,62.973
0.46628,62.973
0.51026,62.777
0.5523,62.777
0.58651,62.582
0.61486,62.582
0.64125,62.386
0.66471,62.19
0.68328,61.799
0.69795,61.604
0.70674,61.408
0.71065,61.017
0.70968,60.626
0.70479,60.43
0.69501,60.039
0.68231,59.844
0.66764,59.452
0.65103,59.061
0.63245,58.866
0.60997,58.475
0.58749,58.279
0.56403,57.888
0.54057,57.497
0.51808,57.106
0.49756,56.715
0.47801,56.323
0.46041,55.737
0.44477,55.346
0.43206,54.954
0.42131,54.563
0.41153,54.172
0.40274,53.781
0.39394,53.39
0.3871,52.999
0.38025,52.608
0.37439,52.412
0.3695,52.216
0.36559,52.216
0.36168,52.412
0.35875,52.999
0.35582,54.368
0.35288,56.91
0.35093,60.626
0.348,65.906
0.34506,71.578
0.34213,77.445
0.33822,83.116
0.33529,88.396
0.33236,93.09
0.32942,97.197
0.32649,100.52
0.32356,102.87
0.32063,104.43
0.31867,105.41
0.31672,105.61
0.31378,105.02
0.31183,104.04
0.3089,102.48
0.30596,100.52
0.30303,98.37
0.29912,95.828
0.29619,92.894
0.29228,89.765
0.28935,86.441
0.28641,83.116
0.2825,79.987
0.28055,77.054
0.27859,74.707
0.27664,72.555
0.2737,70.991
0.27077,69.426
0.26882,68.449
0.26784,67.471
0.27077,66.884
0.27761,66.297
0.2913,65.906
0.31476,65.515
0.34604,65.319
0.37928,65.319
0.41447,65.124
0.45748,65.124
0.50538,65.124
0.5523,65.124
0.59824,64.928
0.63832,64.928
0.67449,64.733
0.70381,64.537
0.7263,64.342
0.74389,64.146
0.75464,63.755
0.76051,63.559
0.76149,63.168
0.75758,62.973
0.75073,62.582
0.73998,62.386
0.72532,61.995
0.70772,61.604
0.68719,61.408
0.66373,61.017
0.64027,60.821
0.61486,60.43
0.58944,60.039
0.565,59.648
0.54448,59.257
0.5259,58.866
0.50733,58.475
0.48974,58.083
0.4741,57.692
0.46041,57.106
0.4477,56.91
0.43695,56.323
0.42815,55.932
0.42033,55.541
0.41349,55.346
0.4086,54.954
0.40371,54.759
0.3998,54.563
0.39687,54.759
0.39394,55.346
0.39101,56.519
0.38807,58.866
0.38612,62.582
0.38319,67.666
0.38025,73.729
0.37732,79.987
0.37537,85.854
0.37243,91.525
0.3695,96.415
0.36755,100.72
0.36559,104.24
0.36266,106.78
0.3607,108.54
0.35777,109.32
0.35484,109.52
0.35288,108.93
0.34995,107.95
0.34702,106.39
0.34409,104.63
0.34115,102.67
0.33822,99.935
0.33529,97.197
0.33236,94.068
0.3304,90.743
0.32747,87.223
0.32454,83.898
0.3216,80.769
0.31867,78.031
0.31574,75.685
0.31183,73.729
0.3089,72.164
0.30596,70.991
0.30596,70.013
0.3089,69.231
0.31476,68.644
0.32551,68.253
0.34409,67.862
0.37146,67.471
0.40762,67.275
0.44966,67.08
0.4956,66.884
0.54448,66.688
0.5914,66.493
0.63636,66.297
0.67546,66.102
0.70968,65.906
0.73803,65.515
0.75758,65.124
0.77028,64.733
0.78006,64.537
0.78592,64.146
0.78788,63.755
0.78592,63.364
0.78006,62.973
0.76931,62.582
0.75562,62.19
0.73803,61.799
0.7175,61.604
0.69501,61.213
0.67253,60.821
0.65103,60.43
0.62659,60.039
0.60215,59.844
0.57771,59.452
0.55523,58.866
0.53372,58.475
0.51417,58.083
0.49756,57.497
0.48192,56.91
0.46823,56.519
0.4565,56.128
0.44575,55.541
0.43695,55.346
0.43011,54.759
0.42229,54.368
0.41544,54.172
0.40958,53.781
0.40371,53.781
0.39785,53.781
0.39198,54.172
0.38612,55.346
0.38123,57.692
0.37634,61.408
0.37048,66.297
0.36657,72.164
0.36266,78.422
0.35777,84.485
0.35288,89.961
0.348,95.046
0.34409,99.348
0.3392,102.87
0.33431,105.41
0.3304,107.17
0.32649,107.95
0.3216,108.15
0.31769,107.37
0.31378,106.19
0.31085,104.63
0.30792,102.67
0.30401,100.52
0.3001,97.784
0.29619,94.85
0.29228,91.721
0.28739,88.201
0.2825,84.681
0.27859,81.356
0.2737,78.422
0.26979,75.88
0.26491,73.729
0.26197,71.969
0.26002,70.404
0.25709,69.231
0.25513,68.253
0.25611,67.471
0.26197,66.884
0.2737,66.297
0.29326,66.102
0.32063,65.906
0.35777,65.711
0.40078,65.515
0.4477,65.319
0.48974,65.319
0.52884,65.124
0.57087,65.124
0.60997,64.928
0.64516,64.733
0.67546,64.537
0.69892,64.342
0.71652,63.95
0.72825,63.559
0.73509,63.364
0.73607,62.973
0.73216,62.582
0.72434,62.19
0.71457,61.799
0.70088,61.408
0.68328,61.017
0.66373,60.821
0.64125,60.43
0.61681,60.039
0.5914,59.648
0.56598,59.257
0.54154,58.866
0.51808,58.475
0.4956,58.083
0.47507,57.497
0.45846,57.106
0.44477,56.519
0.43109,56.128
0.41838,55.541
0.40762,55.346
0.39785,54.954
0.38905,54.563
0.38123,54.172
0.37537,53.781
0.3695,53.585
0.36461,53.39
0.35973,53.194
0.35582,53.39
0.35288,53.781
0.34995,54.954
0.34702,56.91
0.34311,60.235
0.3392,64.928
0.33627,70.404
0.33236,76.076
0.32845,81.747
0.32454,86.832
0.32063,91.525
0.31769,95.632
0.31378,98.957
0.31183,101.5
0.30987,103.06
0.30694,104.04
0.30401,104.24
0.30108,103.65
0.29717,102.67
0.29326,101.11
0.29032,98.957
0.28641,96.61
0.2825,93.677
0.27859,90.548
0.27468,87.223
0.27077,83.898
0.26784,80.769
0.26588,77.836
0.26295,75.098
0.26002,72.947
0.25611,70.991
0.2522,69.426
0.24927,68.057
0.24633,67.08
0.24536,66.297
0.24731,65.711
0.25415,65.124
0.26686,64.733
0.2825,64.537
0.30401,64.342
0.33529,64.146
0.37341,63.95
0.41642,63.755
0.46334,63.755
0.51026,63.755
0.55425,63.559
0.59433,63.364
0.62952,63.168
0.65885,62.973
0.68133,62.777
0.69795,62.582
0.70772,62.19
0.70283,61.799
0.69013,61.604
0.68133,61.213
0.67058,60.821
0.65885,60.43
0.64418,60.235
0.62659,59.844
0.60704,59.648
0.58553,59.257
0.56305,58.866
0.54057,58.475
0.52102,58.279
0.50244,57.692
0.48387,57.301
0.4653,56.91
0.4477,56.519
0.43206,55.932
0.41838,55.541
0.40665,55.15
0.39589,54.759
0.38612,54.368
0.3783,53.977
0.37146,53.585
0.36461,53.194
0.3607,52.999
0.35679,52.608
0.35386,52.608
0.35093,52.608
0.34702,52.803
0.34409,53.39
0.34115,54.563
0.33822,56.91
0.33529,60.626
0.33236,65.319
0.32942,70.795
0.32649,76.467
0.32356,81.747
0.3216,86.832
0.31965,91.134
0.31769,95.046
0.31476,97.979
0.31183,100.33
0.30987,101.69
0.30694,102.28
0.30401,102.28
0.30108,101.69
0.29912,100.33
0.29619,98.566
0.29326,96.61
0.29032,93.872
0.28935,90.939
0.28641,87.81
0.28348,84.485
0.28055,81.16
0.27664,78.227
0.2737,75.293
0.26979,72.947
0.26686,70.991
0.26393,69.231
0.261,67.862
0.25806,66.688
0.25709,65.906
0.25806,65.124
0.26002,64.537
0.26588,64.146
0.27761,63.95
0.29521,63.559
0.31965,63.364
0.35191,63.168
0.38905,63.168
0.43011,62.973
0.47214,62.973
0.51417,62.973
0.55327,62.777
0.58358,62.582
0.60899,62.582
0.63148,62.386
0.65103,61.995
0.66569,61.799
0.67644,61.408
0.68133,61.213
0.68133,60.821
0.67644,60.43
0.66862,60.235
0.65591,59.844
0.64027,59.648
0.62366,59.257
0.60606,59.061
0.58651,58.67
0.565,58.279
0.54252,58.083
0.52004,57.692
0.49951,57.301
0.47996,56.91
0.46139,56.519
0.44477,55.932
0.43011,55.541
0.4174,55.15
0.40567,54.759
0.39687,54.368
0.39003,53.977
0.38221,53.585
0.37634,53.194
0.37048,52.803
0.36559,52.608
0.36168,52.412
0.35777,52.412
0.35386,52.608
0.35093,52.999
0.348,53.977
0.34409,55.932
0.34213,59.257
0.34018,63.755
0.33724,69.035
0.33431,74.707
0.33138,80.183
0.32845,85.463
0.32551,90.157
0.32356,94.263
0.32063,97.784
0.31769,100.33
0.31574,102.09
0.31281,103.06
0.30987,103.26
0.3089,102.87
0.30694,101.89
0.30499,100.52
0.30205,98.37
0.29912,96.024
0.29619,93.286
0.29228,90.352
0.28935,87.027
0.28641,83.507
0.2825,80.183
0.27957,77.249
0.27664,74.707
0.27468,72.36
0.27273,70.6
0.26979,69.035
0.26784,67.666
0.26491,66.493
0.26393,65.711
0.26491,65.124
0.26882,64.537
0.27957,64.342
0.29619,63.95
0.31965,63.755
0.35093,63.559
0.38221,63.559
0.41544,63.364
0.45455,63.364
0.49658,63.364
0.53763,63.168
0.57576,63.168
0.60997,62.973
0.63832,62.777
0.66178,62.582
0.67937,62.19
0.6911,61.995
0.69795,61.604
0.6999,61.408
0.69697,61.017
0.69013,60.626
0.68035,60.235
0.66667,60.039
0.65005,59.844
0.63148,59.452
0.60997,59.061
0.58749,58.866
0.56403,58.475
0.54057,58.083
0.51808,57.692
0.49658,57.301
0.47898,56.91
0.46334,56.519
0.44868,55.932
0.43402,55.541
0.42131,55.15
0.40958,54.759
0.3998,54.368
0.39101,53.977
0.38416,53.585
0.37732,53.39
0.37243,52.999
0.36755,52.803
0.36266,52.608
0.35973,52.608
0.35777,52.999
0.35484,53.781
0.35191,55.737
0.34897,58.866
0.34604,63.364
0.34311,68.644
0.3392,74.511
0.33627,80.183
0.33333,85.658
0.3304,90.548
0.32747,95.046
0.32454,98.761
0.32356,101.5
0.32063,103.65
0.31867,104.63
0.31574,105.02
0.31281,104.82
0.30987,103.85
0.30694,102.48
0.30401,100.72
0.30108,98.566
0.29814,95.828
0.29521,93.09
0.2913,89.765
0.28935,86.441
0.28739,82.921
0.28446,79.791
0.28152,76.858
0.27859,74.511
0.27468,72.164
0.27175,70.404
0.26882,69.035
0.26588,67.666
0.26393,66.688
0.26491,65.906
0.26882,65.515
0.27664,64.928
0.28837,64.537
0.30792,64.342
0.33529,64.146
0.37048,64.146
0.41056,63.95
0.45357,63.95
0.49853,63.95
0.54154,63.755
0.58162,63.755
0.61681,63.559
0.64712,63.364
0.67155,63.168
0.68719,62.973
0.69795,62.582
0.70479,62.386
0.7087,61.995
0.7087,61.799
0.70381,61.408
0.69501,61.213
0.68231,61.017
0.66569,60.626
0.64712,60.43
0.62561,60.039
0.60313,59.844
0.58162,59.452
0.56207,59.257
0.53959,58.866
0.51808,58.475
0.49756,58.083
0.47703,57.692
0.45943,57.301
0.44282,56.91
0.43109,56.519
0.42131,56.128
0.41153,55.737
0.40274,55.346
0.39394,54.954
0.38807,54.563
0.38221,54.368
0.37732,53.977
0.37243,53.781
0.36755,53.781
0.36364,54.172
0.3607,54.954
0.35679,56.519
0.35386,59.257
0.35093,63.559
0.348,68.84
0.34409,74.707
0.34115,80.769
0.3392,86.245
0.33627,91.525
0.33333,96.219
0.3304,100.13
0.32747,103.26
0.32454,105.61
0.32258,106.98
0.31965,107.56
0.31672,107.37
0.31378,106.78
0.31085,105.61
0.30792,103.85
0.30596,101.89
0.30401,99.544
0.30205,96.806
0.29912,93.677
0.29619,90.548
0.29326,87.027
0.28935,83.703
0.28641,80.574
0.28348,77.836
0.28055,75.489
0.27761,73.533
0.27468,71.969
0.27273,70.6
0.27175,69.622
0.27175,68.84
0.27468,68.253
0.2825,67.666
0.29717,67.471
0.31867,67.275
0.34897,67.08
0.3871,66.884
0.43109,66.884
0.47898,66.884
0.52786,66.688
0.57576,66.688
0.61486,66.493
0.64712,66.297
0.6784,66.102
0.70674,65.906
0.72923,65.711
0.74682,65.319
0.75855,65.124
0.7654,64.733
0.76735,64.342
0.76344,64.146
0.75562,63.755
0.74389,63.364
0.72923,62.973
0.71359,62.777
0.69306,62.386
0.67155,62.19
0.64712,61.799
0.6217,61.408
0.59726,61.017
0.57283,60.626
0.55034,60.235
0.52884,59.844
0.50929,59.452
0.49267,59.061
0.47703,58.475
0.4653,58.279
0.45552,57.888
0.44575,57.497
0.43793,56.91
0.43011,56.519
0.42424,56.323
0.41838,55.932
0.41349,55.737
0.4086,55.541
0.40469,55.541
0.40078,56.128
0.39687,57.301
0.39394,59.648
0.39198,63.559
0.38905,68.84
0.38612,74.707
0.38221,80.965
0.37928,86.832
0.37537,92.308
0.37243,97.393
0.36852,101.69
0.36559,105.02
0.36168,107.56
0.35875,109.13
0.35679,109.91
0.35386,109.71
0.35191,109.13
0.34897,107.95
0.34604,106.19
0.34213,104.24
0.3392,101.69
0.33529,98.957
0.33236,96.024
0.32845,92.699
0.32454,89.179
0.3216,85.658
0.31769,82.334
0.31574,79.4
0.31378,76.662
0.31085,74.511
0.30792,72.751
0.30499,71.186
0.30205,70.013
0.3001,69.035
0.30205,68.449
0.30792,67.862
0.32063,67.471
0.34115,67.275
0.3695,67.08
0.3998,66.884
0.43304,66.884
0.47507,66.688
0.52102,66.688
0.56794,66.493
0.61193,66.297
0.65298,66.102
0.68817,65.906
0.71652,65.711
0.73998,65.319
0.75562,64.928
0.76637,64.537
0.77126,64.342
0.77126,63.95
0.76637,63.364
0.75855,62.973
0.74682,62.582
0.73118,62.19
0.71261,61.799
0.6911,61.408
0.66667,61.213
0.64125,60.821
0.61486,60.43
0.58847,60.039
0.56207,59.648
0.53959,59.257
0.52004,58.866
0.49951,58.279
0.48094,57.888
0.46334,57.497
0.4477,56.91
0.43402,56.519
0.42229,55.932
0.41251,55.541
0.40371,55.15
0.39687,54.759
0.39003,54.368
0.38514,54.172
0.38025,53.781
0.37732,53.781
0.37341,53.781
0.3695,54.368
0.36461,55.541
0.3607,57.692
0.35679,61.408
0.35191,66.297
0.348,72.164
0.34311,78.227
0.3392,84.094
0.33431,89.765
0.33138,94.655
0.32845,98.957
0.32454,102.48
0.3216,105.02
0.31769,106.58
0.31378,107.37
0.30987,107.56
0.30596,106.98
0.30205,105.8
0.29814,104.24
0.29326,102.09
0.28935,99.739
0.28543,97.001
0.2825,93.872
0.27957,90.352
0.27664,87.027
0.27273,83.507
0.26882,80.378
0.26491,77.64
0.261,75.098
0.25709,72.947
0.25318,71.186
0.25024,69.818
0.24731,68.644
0.24536,67.666
0.24731,67.08
0.25122,66.493
0.261,66.102
0.27859,65.906
0.30303,65.515
0.33627,65.319
0.37732,65.319
0.42326,65.124
0.47214,65.124
0.52102,64.928
0.56696,64.928
0.60899,64.733
0.64516,64.537
0.67155,64.342
0.69013,64.146
0.70674,63.755
0.71945,63.364
0.7263,62.973
0.72825,62.582
0.7263,62.19
0.71945,61.799
0.7087,61.604
0.69306,61.213
0.67546,60.821
0.65396,60.626
0.63245,60.235
0.61193,59.844
0.58847,59.452
0.56305,59.061
0.53861,58.67
0.51417,58.279
0.49169,57.888
0.47116,57.497
0.45357,56.91
0.43695,56.519
0.42229,56.128
0.40958,55.541
0.39883,55.15
0.39003,54.759
0.38416,54.368
0.37732,53.977
0.37146,53.585
0.36657,53.39
0.36168,53.194
0.35679,53.194
0.35288,53.194
0.34995,53.781
0.34604,54.759
0.34213,56.715
0.3392,59.844
0.33627,64.146
0.33431,69.426
0.33138,74.902
0.32845,80.183
0.32454,85.267
0.3216,89.765
0.31867,93.677
0.31574,97.001
0.31281,99.348
0.30987,101.11
0.30694,101.89
0.30401,102.09
0.3001,101.5
0.29814,100.33
0.29619,98.761
0.29326,96.61
0.29032,94.068
0.28641,91.33
0.28348,88.005
0.27957,84.681
0.27566,81.356
0.27175,78.422
0.26882,75.489
0.26491,73.142
0.261,70.991
0.25904,69.231
0.25709,67.862
0.25513,66.884
0.2522,65.906
0.25122,65.124
0.25122,64.537
0.25513,64.146
0.26393,63.95
0.27957,63.559
0.30108,63.364
0.33138,63.364
0.36657,63.168
0.40762,62.973
0.44379,62.973
0.47898,62.973
0.51711,62.777
0.55327,62.582
0.58749,62.582
0.61584,62.19
0.63832,61.995
0.65591,61.799
0.66862,61.408
0.67449,61.213
0.67644,60.821
0.67351,60.626
0.66667,60.235
0.65689,59.844
0.64321,59.648
0.62659,59.257
0.60802,59.061
0.58651,58.67
0.56403,58.279
0.54154,58.083
0.51808,57.692
0.49658,57.301
0.47605,56.91
0.45748,56.323
0.44086,55.932
0.42717,55.541
0.41544,55.15
0.40469,54.563
0.39492,54.172
0.38612,53.781
0.3783,53.39
0.37146,52.999
0.36559,52.803
0.3607,52.412
0.35582,52.216
0.35288,52.216
0.34897,52.216
0.34702,52.608
0.34506,53.39
0.34311,55.15
0.34018,57.888
0.33724,61.995
0.33529,66.884
0.33236,72.36
0.32942,77.836
0.32649,83.116
0.32356,87.81
0.32063,92.112
0.31769,95.632
0.31574,98.37
0.31476,100.33
0.31281,101.5
0.31085,101.89
0.30792,101.69
0.30499,100.91
0.30205,99.348
0.29912,97.393
0.29619,95.046
0.29326,92.503
0.28935,89.374
0.28543,86.245
0.2825,82.725
0.27957,79.596
0.27761,76.662
0.27566,73.924
0.27273,71.773
0.26882,70.013
0.26588,68.449
0.26295,67.08
0.26002,66.102
0.25806,65.319
0.25806,64.537
0.261,64.146
0.26882,63.755
0.27957,63.559
0.29521,63.364
0.31965,63.168
0.35191,63.168
0.38905,62.973
0.43206,62.973
0.47605,62.973
0.51906,62.777
0.56012,62.777
0.59629,62.582
0.62757,62.386
0.65298,62.19
0.67253,61.799
0.68524,61.604
0.69208,61.213
0.69501,61.017
0.69501,60.626
0.69013,60.235
0.68133,60.039
0.66862,59.648
0.65298,59.452
0.63343,59.061
0.6129,58.866
0.58944,58.475
0.56696,58.083
0.54545,57.888
0.52688,57.497
0.50635,57.106
0.4868,56.715
0.46823,56.128
0.45161,55.737
0.43597,55.346
0.42326,54.954
0.41153,54.563
0.40078,53.977
0.39296,53.585
0.38514,53.194
0.37928,52.803
0.37439,52.608
0.37048,52.412
0.36755,52.216
0.36364,52.216
0.3607,52.608
0.35679,53.194
0.35386,54.759
0.35093,57.106
0.348,61.017
0.34506,65.906
0.34213,71.578
0.3392,77.054
0.33724,82.334
0.33529,87.223
0.33333,91.525
0.3304,95.241
0.32747,98.37
0.32454,100.52
0.3216,101.89
0.31867,102.48
0.31672,102.28
0.31378,101.69
0.30987,100.33
0.30694,98.761
0.30401,96.61
0.30108,94.263
0.29912,91.33
0.29717,88.201
0.29326,84.876
0.29032,81.552
0.28641,78.422
0.2825,75.685
0.27957,73.338
0.27566,71.186
0.27273,69.426
0.26882,68.057
0.26588,66.884
0.26491,65.906
0.26491,65.319
0.26686,64.733
0.27175,64.342
0.28152,63.95
0.29912,63.755
0.32356,63.559
0.35484,63.364
0.39296,63.168
0.43597,63.168
0.47996,63.168
0.52395,62.973
0.56598,62.973
0.59922,62.777
0.62561,62.582
0.65005,62.386
0.67155,62.19
0.68817,61.799
0.69892,61.408
0.70577,61.213
0.70674,61.017
0.70381,60.626
0.69599,60.43
0.68426,60.039
0.66862,59.844
0.65298,59.452
0.63539,59.061
0.61486,58.67
0.59238,58.279
0.56891,58.083
0.54545,57.692
0.52297,57.106
0.50147,56.715
0.48094,56.323
0.46334,55.932
0.44673,55.541
0.43206,55.15
0.42033,54.759
0.41056,54.368
0.40274,53.977
0.39492,53.585
0.38807,52.999
0.38221,52.803
0.37732,52.412
0.37243,52.412
0.36852,52.412
0.36461,52.608
0.3607,53.194
0.35777,54.368
0.35386,56.91
0.35191,60.626
0.34897,65.711
0.34604,71.382
0.34311,77.054
0.34018,82.725
0.33724,87.81
0.33431,92.503
0.33138,96.61
0.32845,99.739
0.32551,102.09
0.32258,103.65
0.31965,104.24
0.31672,104.43
0.31378,103.85
0.31281,102.67
0.30987,101.11
0.30694,99.153
0.30303,96.61
0.3001,93.872
0.29619,90.743
0.29228,87.419
0.29032,84.094
0.28739,80.769
0.28446,77.836
0.28055,75.098
0.27761,72.751
0.27566,70.991
0.27273,69.231
0.26979,68.057
0.26686,67.08
0.26491,66.102
0.26588,65.711
0.27175,65.124
0.2825,64.733
0.30205,64.537
0.32942,64.537
0.36559,64.537
0.4086,64.342
0.44966,64.342
0.48876,64.342
0.5347,64.146
0.57967,64.146
0.62268,63.95
0.6608,63.95
0.69306,63.755
0.71848,63.559
0.739,63.364
0.75171,62.973
0.75953,62.777
0.76149,62.582
0.75953,62.19
0.75171,61.995
0.74096,61.604
0.7263,61.408
0.7087,61.213
0.68719,60.821
0.66373,60.43
0.63832,60.039
0.61193,59.844
0.58553,59.452
0.56012,59.061
0.53666,58.67
0.5132,58.279
0.49462,57.888
0.47898,57.497
0.46334,56.91
0.44868,56.519
0.43597,56.128
0.42522,55.737
0.41544,55.346
0.40665,54.954
0.3998,54.563
0.39394,54.368
0.38807,54.172
0.38416,54.172
0.38025,54.368
0.3783,54.954
0.37537,56.128
0.37243,58.475
0.3695,62.386
0.36657,67.275
0.36364,73.142
0.3607,79.009
0.35777,84.876
0.35484,90.157
0.35191,95.046
0.34897,98.957
0.34702,102.28
0.34506,104.63
0.34311,106.39
0.34115,107.17
0.33822,107.17
0.33627,106.58
0.33333,105.41
0.3304,103.85
0.32747,102.09
0.32454,99.739
0.3216,97.197
0.31769,94.263
0.31476,91.134
0.31183,87.81
0.30987,84.485
0.30792,81.356
0.30499,78.814
0.30205,76.467
0.29912,74.316
0.29619,72.751
0.29326,71.382
0.29032,70.209
0.28935,69.426
0.2913,68.84
0.29814,68.449
0.30792,68.057
0.32258,67.666
0.34702,67.471
0.37928,67.471
0.41935,67.471
0.4653,67.471
0.51417,67.471
0.56403,67.275
0.61193,67.08
0.65494,66.884
0.69306,66.688
0.72434,66.297
0.74976,66.102
0.76637,65.906
0.77615,65.515
0.78397,65.319
0.7869,64.733
0.78592,64.537
0.78104,64.146
0.77126,63.755
0.75855,63.364
0.74096,62.973
0.72141,62.777
0.69892,62.19
0.67449,61.799
0.652,61.213
0.6305,60.821
0.60704,60.235
0.58358,59.844
0.56109,59.257
0.54057,58.866
0.52199,58.279
0.50538,57.692
0.49071,57.301
0.47898,56.91
0.46823,56.519
0.45846,56.128
0.45064,55.737
0.44477,55.541
0.43988,55.15
0.435,54.954
0.43011,54.759
0.4262,54.759
0.42229,55.15
0.41838,56.323
0.41447,58.475
0.41056,62.19
0.40665,67.275
0.40274,73.142
0.39785,79.205
0.39492,85.267
0.39198,90.939
0.38807,95.828
0.38416,100.13
0.38025,103.65
0.37634,106.19
0.37243,107.95
0.3695,108.93
0.36559,108.93
0.36168,108.34
0.35679,107.17
0.35288,105.61
0.348,103.85
0.34506,101.5
0.34213,98.957
0.33724,95.828
0.33333,92.699
0.32845,89.179
0.32454,85.658
0.31965,82.334
0.31574,79.205
0.31085,76.662
0.30694,74.511
0.30205,72.555
0.29717,70.991
0.29423,69.818
0.29228,68.84
0.2913,68.253
0.29326,67.666
0.30108,67.275
0.31574,67.08
0.3392,66.884
0.37048,66.688
0.40958,66.493
0.45552,66.493
0.50342,66.297
0.5523,66.297
0.59824,66.102
0.63539,66.102
0.66471,65.906
0.69306,65.515
0.7175,65.319
0.73705,64.928
0.74976,64.537
0.75855,64.146
0.76149,63.755
0.75953,63.364
0.75367,62.973
0.74291,62.582
0.72923,62.19
0.71261,61.799
0.69501,61.408
0.67253,61.213
0.64907,60.821
0.62268,60.43
0.59629,60.039
0.56989,59.648
0.54448,59.061
0.52004,58.67
0.49853,58.279
0.47801,57.692
0.46041,57.301
0.44477,56.91
0.43206,56.323
0.42229,55.932
0.41251,55.346
0.40469,55.15
0.39687,54.759
0.39003,54.368
0.38416,53.977
0.37928,53.781
0.37439,53.781
0.37048,53.977
0.36657,54.563
0.36266,55.932
0.35973,58.279
0.35679,61.799
0.35386,66.884
0.35093,72.555
0.34702,78.422
0.34311,84.094
0.3392,89.179
0.33529,93.872
0.33138,97.784
0.32747,100.91
0.32356,103.26
0.32063,104.63
0.31672,105.22
0.31378,105.02
0.31183,104.24
0.3089,102.87
0.30596,101.11
0.30205,98.957
0.29814,96.415
0.29423,93.481
0.29032,90.352
0.28641,86.832
0.2825,83.507
0.27859,80.378
0.2737,77.64
0.27077,75.098
0.26882,72.947
0.26491,70.991
0.26197,69.622
0.25806,68.449
0.25513,67.471
0.25318,66.688
0.25318,65.906
0.25806,65.515
0.26784,65.319
0.28641,64.928
0.31183,64.733
0.34604,64.537
0.38123,64.537
0.41838,64.537
0.4565,64.342
0.49365,64.342
0.53275,64.146
0.57087,63.95
0.60411,63.755
0.63245,63.559
0.65494,63.364
0.67155,62.973
0.68328,62.582
0.68915,62.386
0.69013,61.995
0.68622,61.604
0.68035,61.408
0.6696,61.017
0.65591,60.626
0.63832,60.235
0.61877,60.039
0.59726,59.648
0.57478,59.257
0.55132,59.061
0.52786,58.475
0.50538,58.279
0.48583,57.692
0.46921,57.301
0.45259,56.91
0.43597,56.323
0.42229,55.932
0.4086,55.541
0.39785,55.15
0.3871,54.563
0.37928,54.172
0.37146,53.781
0.36461,53.585
0.35973,53.194
0.35484,52.999
0.35191,52.999
0.34897,52.999
0.34604,53.39
0.34311,54.172
0.34018,55.541
0.33724,58.279
0.33431,61.995
0.33138,66.884
0.32845,72.164
0.32551,77.64
0.3216,82.921
0.31867,87.614
0.31672,91.917
0.31476,95.437
0.31281,98.175
0.30987,100.33
0.30792,101.5
0.30499,101.89
0.30205,101.69
0.29912,100.72
0.29619,99.348
0.29326,97.393
0.29032,95.046
0.28641,92.308
0.2825,89.179
0.28055,85.854
0.27859,82.529
0.27566,79.4
0.27273,76.467
0.26882,73.924
0.26491,71.773
0.26197,69.818
0.25904,68.253
0.25611,67.08
0.25318,66.102
0.25122,65.319
0.25024,64.733
0.2522,64.342
0.25806,63.95
0.26686,63.755
0.28348,63.559
0.30596,63.364
0.33529,63.168
0.37146,63.168
0.41251,63.168
0.45552,62.973
0.49853,62.973
0.53861,62.973
0.57576,62.777
0.60802,62.582
0.63148,62.19
0.64809,61.995
0.66178,61.604
0.67253,61.408
0.67742,61.213
0.6784,60.821
0.67449,60.43
0.66667,60.235
0.65494,59.844
0.6393,59.648
0.62072,59.452
0.59922,59.061
0.57967,58.67
0.56012,58.475
0.53861,58.083
0.51613,57.692
0.49462,57.106
0.47507,56.715
0.45552,56.323
0.43891,55.932
0.42424,55.541
0.41153,55.15
0.3998,54.563
0.39003,54.172
0.38123,53.781
0.37537,53.39
0.37048,53.194
0.36559,52.803
0.36168,52.608
0.35777,52.608
0.35386,52.608
0.35093,52.999
0.348,53.585
0.34506,55.15
0.34213,57.692
0.3392,61.408
0.33627,66.297
0.33431,71.773
0.33236,77.249
0.3304,82.334
0.32747,87.223
0.32551,91.525
0.32258,95.046
0.31965,97.784
0.31769,99.935
0.31476,101.11
0.31281,101.69
0.30987,101.5
0.30694,100.72
0.30401,99.348
0.30205,97.588
0.3001,95.241
0.29814,92.503
0.29521,89.57
0.2913,86.245
0.28837,82.921
0.28446,79.791
0.28152,76.858
0.27761,74.316
0.27468,72.164
0.27077,70.209
0.26784,68.644
0.26588,67.471
0.26393,66.493
0.26197,65.711
0.261,65.124
0.26197,64.537
0.26686,64.146
0.27664,63.95
0.29228,63.559
0.31574,63.559
0.34702,63.364
0.38416,63.168
0.42522,63.168
0.46823,62.973
0.50635,62.973
0.53959,62.973
0.5738,62.777
0.60606,62.582
0.63343,62.386
0.65591,61.995
0.67351,61.799
0.68524,61.408
0.6911,61.213
0.69208,60.821
0.68817,60.626
0.68035,60.235
0.6696,60.039
0.65591,59.648
0.6393,59.452
0.61975,59.061
0.59824,58.866
0.57478,58.475
0.5523,58.083
0.52884,57.692
0.50733,57.301
0.4868,56.91
0.46725,56.519
0.45064,56.128
0.43597,55.541
0.42326,55.15
0.41349,54.759
0.40371,54.368
0.39492,53.977
0.3871,53.585
0.38025,53.39
0.37439,52.999
0.3695,52.803
0.36461,52.608
0.3607,52.803
0.35679,52.999
0.35386,53.781
0.35093,55.346
0.34897,58.083
0.34702,62.19
0.34409,67.275
0.34115,72.947
0.33822,78.422
0.33529,83.898
0.33236,88.983
0.32942,93.286
0.32747,97.001
0.32454,99.935
0.3216,102.09
0.31867,103.46
0.31672,104.04
0.31574,103.85
0.31281,103.06
0.31085,101.89
0.30792,99.935
0.30499,97.784
0.30108,95.046
0.29814,92.112
0.29521,88.983
0.2913,85.463
0.28837,82.138
0.28446,79.009
0.28152,76.076
0.27957,73.729
0.27664,71.773
0.2737,70.013
0.27077,68.644
0.26784,67.471
0.26491,66.493
0.26393,65.906
0.26491,65.319
0.27077,64.928
0.2825,64.537
0.3001,64.342
0.32649,64.342
0.35386,64.146
0.38416,63.95
0.42326,63.95
0.46628,63.95
0.51026,63.755
0.5523,63.755
0.59238,63.559
0.62659,63.364
0.65494,63.168
0.6784,62.973
0.69501,62.777
0.70674,62.386
0.71163,61.995
0.71163,61.799
0.7087,61.408
0.70186,61.213
0.6911,60.821
0.67644,60.43
0.65982,60.235
0.6393,59.844
0.61681,59.648
0.59824,59.257
0.58162,58.866
0.56012,58.475
0.53959,58.083
0.52102,57.692
0.50147,57.106
0.48289,56.715
0.4653,56.323
0.44966,55.932
0.43597,55.346
0.42326,55.15
0.41251,54.563
0.40371,54.172
0.39492,53.781
0.38807,53.585
0.38221,53.39
0.3783,53.194
0.37537,53.194
0.37146,53.585
0.36852,54.563
0.36461,56.128
0.36168,59.061
0.35777,63.364
0.35484,68.84
0.35093,74.707
0.348,80.378
0.34506,86.05
0.34115,91.134
0.3392,95.632
0.33627,99.348
0.33431,102.28
0.33138,104.43
0.32845,105.8
0.32454,106.39
0.3216,106.19
0.31867,105.41
0.31574,104.04
0.31281,102.28
0.3089,100.13
0.30596,97.588
0.30205,94.655
0.29912,91.33
0.29717,87.81
0.29326,84.289
0.28935,81.16
0.28641,78.227
0.28152,75.685
0.27664,73.533
0.2737,71.773
0.27077,70.404
0.26784,69.035
0.26491,68.253
0.26393,67.471
0.26491,67.08
0.27077,66.688
0.28055,66.297
0.29814,66.102
0.32454,66.102
0.35875,65.906
0.3998,65.906
0.44575,65.906
0.49365,65.906
0.54252,65.906
0.58847,65.906
0.62952,65.711
0.66569,65.515
0.6911,65.319
0.71065,65.124
0.72727,64.733
0.739,64.537
0.74682,64.342
0.74976,63.95
0.7478,63.559
0.73998,63.364
0.72923,62.973
0.71359,62.777
0.69501,62.386
0.67351,61.995
0.652,61.799
0.6305,61.408
0.60704,61.017
0.58162,60.626
0.55718,60.235
0.53372,59.844
0.51124,59.452
0.49071,59.061
0.47312,58.475
0.4565,58.279
0.44282,57.692
0.43109,57.301
0.42131,56.91
0.41349,56.519
0.40665,56.323
0.40078,55.932
0.39589,55.737
0.39198,55.541
0.38807,55.737
0.38416,56.128
0.38123,57.106
0.3783,59.452
0.37537,62.973
0.37243,67.862
0.37048,73.729
0.36755,79.987
0.36657,86.05
0.36364,91.721
0.3607,96.806
0.35777,101.3
0.35582,104.82
0.35386,107.56
0.35093,109.52
0.348,110.5
0.34604,110.69
0.34311,110.3
0.34018,109.32
0.33822,107.76
0.33627,106
0.33431,103.85
0.33236,101.3
0.32942,98.37
0.32649,95.241
0.32258,91.917
0.31965,88.396
0.31672,85.072
0.31378,82.138
0.31085,79.596
0.30792,77.249
0.30499,75.489
0.30303,73.924
0.30108,72.751
0.3001,71.969
0.29912,70.991
0.30205,70.6
0.30987,70.209
0.32356,69.818
0.34506,69.622
0.37537,69.426
0.41349,69.231
0.45748,69.231
0.50538,69.035
0.55327,68.84
0.59433,68.449
0.6305,68.253
0.66667,67.862
0.69892,67.666
0.72727,67.275
0.74976,66.884
0.76637,66.493
0.7781,66.102
0.78397,65.906
0.78495,65.515
0.78201,65.124
0.77419,64.733
0.76246,64.537
0.74878,64.146
0.73216,63.755
0.71163,63.364
0.68915,62.973
0.66471,62.386
0.6393,61.995
0.61486,61.604
0.59042,61.017
0.56794,60.626
0.54643,60.039
0.52688,59.452
0.50733,58.866
0.49267,58.475
0.48192,58.083
0.47116,57.497
0.45943,57.106
0.44966,56.715
0.44379,56.323
0.43597,55.932
0.42913,55.737
0.42229,55.541
0.4174,55.737
0.41251,56.128
0.40762,57.301
0.40567,59.844
0.40176,63.559
0.39687,68.644
0.39198,74.511
0.3871,80.965
0.38221,87.027
0.3783,92.699
0.37439,97.784
0.37048,102.28
0.36559,105.8
0.3607,108.34
0.35582,110.1
0.35191,110.89
0.348,111.08
0.34409,110.3
0.3392,109.13
0.33431,107.56
0.32942,105.61
0.32454,103.26
0.31965,100.52
0.31378,97.393
0.3089,93.872
0.30303,90.352
0.29814,86.832
0.29326,83.507
0.29032,80.378
0.28641,77.836
0.28152,75.489
0.27761,73.729
0.27273,72.164
0.26979,70.991
0.26784,70.013
0.26784,69.231
0.2737,68.84
0.29032,68.449
0.31378,68.057
0.34506,67.862
0.37732,67.666
0.41251,67.471
0.45552,67.471
0.50244,67.471
0.54839,67.275
0.59238,67.275
0.63148,67.08
0.66471,66.884
0.69208,66.493
0.71261,66.297
0.7263,65.906
0.73509,65.711
0.73803,65.319
0.73607,64.928
0.73118,64.537
0.72239,64.146
0.70968,63.755
0.69306,63.364
0.67351,62.973
0.652,62.777
0.62757,62.386
0.60215,61.995
0.57576,61.604
0.55034,61.213
0.52786,60.821
0.50831,60.235
0.48778,59.844
0.46823,59.257
0.45064,58.866
0.435,58.279
0.42131,57.888
0.40958,57.301
0.3998,56.91
0.39101,56.519
0.38319,56.128
0.37732,55.737
0.37243,55.346
0.36852,55.15
0.36559,55.15
0.36168,55.15
0.35484,55.346
0.34506,56.128
0.33822,57.888
0.33431,60.626
0.32942,64.733
0.32649,70.209
0.32258,76.076
0.31965,82.138
0.31574,87.81
0.31378,93.09
0.31183,97.588
0.3089,101.5
0.30596,104.63
0.30303,106.78
0.3001,108.15
0.29717,108.54
0.29326,108.34
0.29032,107.37
0.28641,105.8
0.2825,104.04
0.27859,101.69
0.27468,98.761
0.27273,95.632
0.26979,92.308
0.26686,88.788
0.26295,85.072
0.26002,81.747
0.25611,78.814
0.25318,76.271
0.24927,73.924
0.24633,72.164
0.24242,70.6
0.24047,69.426
0.23851,68.644
0.23949,67.862
0.24438,67.471
0.25318,67.08
0.26784,66.688
0.29032,66.493
0.32063,66.297
0.35777,66.102
0.3998,66.102
0.44477,66.102
0.49071,65.906
0.53372,65.906
0.57185,65.711
0.60606,65.711
0.6305,65.515
0.64907,65.319
0.66373,64.928
0.67546,64.733
0.68231,64.342
0.68426,63.95
0.68133,63.559
0.67449,63.168
0.66276,62.973
0.64809,62.582
0.6305,62.19
0.60899,61.799
0.58944,61.604
0.56891,61.213
0.54643,60.821
0.52297,60.43
0.49951,60.039
0.47703,59.648
0.45552,59.061
0.43695,58.67
0.42033,58.279
0.40567,57.692
0.39296,57.301
0.38123,56.91
0.37243,56.519
0.36461,55.932
0.35875,55.541
0.35386,55.15
0.34897,54.954
0.34409,54.563
0.34018,54.563
0.33724,54.563
0.33431,54.954
0.33138,55.541
0.32845,56.91
0.32551,59.257
0.32356,62.973
0.3216,67.666
0.31965,73.142
0.31672,78.814
0.31378,84.289
0.31085,89.179
0.30792,93.872
0.30499,97.588
0.30205,100.72
0.29912,103.06
0.29619,104.43
0.29326,105.02
0.29032,105.02
0.28739,104.24
0.28543,102.87
0.28446,101.11
0.28152,98.761
0.27859,96.024
0.27468,92.894
0.27077,89.57
0.26784,86.05
0.26393,82.725
0.26002,79.596
0.25611,76.662
0.25318,74.316
0.24927,72.164
0.24731,70.6
0.24633,69.231
0.2434,68.057
0.24242,67.275
0.24242,66.493
0.24536,66.102
0.25318,65.711
0.26686,65.515
0.28739,65.319
0.31574,65.124
0.35093,64.928
0.39003,64.928
0.43304,64.928
0.47116,64.733
0.5044,64.733
0.54057,64.733
0.5738,64.537
0.60411,64.342
0.62854,64.146
0.64712,63.95
0.6608,63.559
0.66764,63.364
0.67058,62.973
0.66764,62.582
0.6608,62.386
0.65103,61.995
0.6393,61.799
0.62268,61.408
0.60313,61.213
0.58162,60.821
0.55914,60.43
0.53568,60.039
0.51222,59.648
0.48974,59.257
0.46823,58.866
0.44868,58.475
0.43109,58.083
0.41544,57.497
0.40274,57.106
0.39198,56.715
0.38221,56.323
0.37341,55.932
0.36559,55.541
0.35875,55.15
0.35288,54.759
0.348,54.368
0.34409,54.172
0.34018,54.172
0.33724,54.172
0.33431,54.759
0.33236,55.541
0.33138,57.497
0.32845,60.626
0.32649,65.124
0.32356,70.6
0.3216,76.271
0.31867,82.138
0.31574,87.614
0.31378,92.503
0.31085,97.001
0.30792,100.52
0.30499,103.46
0.30303,105.41
0.30108,106.39
0.29912,106.78
0.29717,106.58
0.29423,105.61
0.2913,104.04
0.28837,102.09
0.28543,99.739
0.2825,96.806
0.27859,93.677
0.27566,90.352
0.27175,86.832
0.26882,83.312
0.26588,79.987
0.26393,77.249
0.261,74.902
0.25806,72.751
0.25513,71.186
0.2522,69.818
0.24927,68.84
0.24829,67.862
0.24927,67.275
0.25513,66.688
0.26686,66.297
0.28543,66.102
0.30694,65.906
0.33236,65.711
0.36755,65.711
0.40762,65.711
0.45161,65.515
0.49658,65.515
0.53959,65.515
0.57869,65.319
0.6129,65.319
0.64125,65.124
0.66373,64.733
0.68035,64.537
0.69208,64.146
0.69697,63.95
0.69697,63.559
0.69306,63.168
0.68622,62.973
0.67546,62.582
0.6608,62.19
0.64223,61.995
0.6217,61.604
0.59922,61.408
0.57478,61.017
0.55034,60.626
0.5259,60.235
0.50538,59.844
0.4868,59.257
0.46823,58.866
0.44966,58.475
0.43304,58.083
0.41838,57.692
0.40567,57.106
0.39394,56.715
0.38416,56.323
0.37634,55.932
0.36852,55.346
0.36266,55.15
0.35777,54.759
0.35386,54.759
0.35093,54.759
0.348,54.954
0.34506,55.541
0.34213,56.91
0.3392,59.648
0.33627,63.559
0.33333,68.644
0.3304,74.511
0.32747,80.574
0.32454,86.245
0.3216,91.721
0.31965,96.415
0.31769,100.52
0.31574,103.85
0.31281,106.19
0.30987,107.76
0.30694,108.54
0.30401,108.54
0.30108,107.76
0.29814,106.58
0.29521,104.82
0.29619,102.67
0.29814,100.13
0.29814,97.393
0.29717,94.068
0.29521,90.548
0.29326,87.027
0.28935,83.507
0.28641,80.378
0.2825,77.64
0.27859,75.098
0.27468,73.142
0.27077,71.578
0.26784,70.209
0.26588,69.231
0.26588,68.449
0.26882,67.666
0.27664,67.275
0.29032,66.884
0.31183,66.688
0.34115,66.493
0.37928,66.297
0.42229,66.297
0.47019,66.102
0.51906,66.102
0.56696,66.102
0.61095,65.906
0.65005,65.906
0.68328,65.711
0.70674,65.515
0.72336,65.319
0.73705,64.928
0.74682,64.733
0.75073,64.342
0.75073,64.146
0.74585,63.755
0.73607,63.364
0.72239,62.973
0.70479,62.777
0.68328,62.386
0.65982,61.995
0.63734,61.604
0.61486,61.213
0.59042,60.821
0.565,60.43
0.53959,60.039
0.51613,59.648
0.49462,59.061
0.4741,58.67
0.4565,58.279
0.44086,57.692
0.42717,57.301
0.41544,56.91
0.40567,56.519
0.39785,56.128
0.39198,55.737
0.38612,55.346
0.38025,55.15
0.37634,55.15
0.37146,55.346
0.36755,55.737
0.36461,56.91
0.36168,59.257
0.35777,62.973
0.35484,68.057
0.35191,74.12
0.34995,80.378
0.34702,86.441
0.34409,92.112
0.34115,97.393
0.33822,102.09
0.33431,105.8
0.33138,108.54
0.32845,110.5
0.32454,111.47
0.3216,111.67
0.31867,111.28
0.31574,110.3
0.31183,108.93
0.30987,106.98
0.30694,104.82
0.30401,102.28
0.30108,99.348
0.29717,96.024
0.29326,92.503
0.29032,88.983
0.28641,85.463
0.2825,82.334
0.27859,79.596
0.27468,77.249
0.27175,75.098
0.26882,73.533
0.26784,72.36
0.26686,71.382
0.26882,70.6
0.27468,70.013
0.28739,69.622
0.30792,69.231
0.33724,69.035
0.37439,69.035
0.41838,68.84
0.46725,68.84
0.51711,68.84
0.56696,68.84
0.60802,68.84
0.64223,68.84
0.67546,68.644
0.70577,68.449
0.73118,68.253
0.74976,68.057
0.76344,67.666
0.77028,67.471
0.77322,67.08
0.77028,66.688
0.76344,66.297
0.75171,65.906
0.73803,65.515
0.72239,65.124
0.70186,64.733
0.67937,64.537
0.65494,64.146
0.62854,63.755
0.60215,63.168
0.57674,62.777
0.5523,62.386
0.52884,61.799
0.50831,61.408
0.48974,61.017
0.47312,60.626
0.45943,60.039
0.44868,59.844
0.43891,59.257
0.43011,58.866
0.42229,58.475
0.41544,58.083
0.40958,57.888
0.40469,57.692
0.40078,57.692
0.39687,58.279
0.39394,59.257
0.39198,61.213
0.39003,64.733
0.38807,69.622
0.38612,75.685
0.38319,82.138
0.38123,88.592
0.3783,94.459
0.37537,99.739
0.37243,104.63
0.3695,108.54
0.36755,111.47
0.36461,113.43
0.36168,114.6
0.35875,114.8
0.35679,114.6
0.35484,113.62
0.35191,112.26
0.34897,110.5
0.34604,108.34
0.34213,105.8
0.3392,102.87
0.33529,99.739
0.33236,96.219
0.32845,92.503
0.32551,88.788
0.3216,85.463
0.31965,82.334
0.31672,79.791
0.31378,77.445
0.31085,75.685
0.3089,74.316
0.30694,73.142
0.30792,72.164
0.31378,71.578
0.32551,71.186
0.34506,70.991
0.37341,70.795
0.40958,70.6
0.44575,70.6
0.48289,70.6
0.52688,70.404
0.5738,70.209
0.61877,70.209
0.6608,70.013
0.69795,69.622
0.72825,69.426
0.75367,69.035
0.77224,68.644
0.78495,68.253
0.79179,67.666
0.79374,67.275
0.79179,66.884
0.78495,66.297
0.77517,65.906
0.76149,65.515
0.74487,65.124
0.72434,64.733
0.70186,64.342
0.67742,63.95
0.65103,63.559
0.62561,63.168
0.59922,62.777
0.5738,62.19
0.5523,61.604
0.53372,61.213
0.51515,60.821
0.49853,60.235
0.48289,59.844
0.46823,59.257
0.4565,58.866
0.44575,58.279
0.43695,57.888
0.42913,57.497
0.42229,57.106
0.41642,56.91
0.41153,56.91
0.40665,56.91
0.40274,57.301
0.39785,58.67
0.39394,61.017
0.38905,64.928
0.38416,70.209
0.37928,76.467
0.37341,82.921
0.36852,89.374
0.36364,95.437
0.35875,100.91
0.35288,105.61
0.34897,109.13
0.34604,111.86
0.34213,113.62
0.33724,114.41
0.33333,114.41
0.32845,113.62
0.32356,112.45
0.31867,110.69
0.31378,108.74
0.30987,106.19
0.30499,103.46
0.3001,100.33
0.29521,96.806
0.29228,93.09
0.28935,89.374
0.28543,85.854
0.28152,82.529
0.27761,79.791
0.27273,77.249
0.26882,75.293
0.26491,73.729
0.261,72.36
0.26002,71.382
0.261,70.6
0.26882,70.013
0.27957,69.622
0.29619,69.426
0.32258,69.231
0.35777,69.035
0.39394,69.035
0.43109,68.84
0.4741,68.644
0.51808,68.644
0.55914,68.449
0.59726,68.253
0.62952,68.253
0.65494,67.862
0.67546,67.666
0.68817,67.275
0.69501,67.08
0.69892,66.688
0.69892,66.102
0.69599,65.906
0.68915,65.319
0.6784,64.928
0.66373,64.537
0.64614,64.342
0.62659,63.755
0.60411,63.364
0.57967,62.973
0.55816,62.582
0.53666,61.995
0.51515,61.604
0.49267,61.213
0.47116,60.626
0.45161,60.235
0.43402,59.648
0.41838,59.061
0.40469,58.67
0.39296,58.279
0.38221,57.692
0.37341,57.301
0.36657,56.91
0.3607,56.519
0.35679,56.128
0.35288,55.932
0.34897,55.932
0.34506,55.932
0.34213,56.323
0.33822,57.301
0.33529,59.257
0.33236,62.582
0.32942,67.275
0.32551,72.751
0.32258,78.814
0.32063,84.876
0.31769,90.548
0.31476,95.828
0.31183,100.33
0.3089,104.04
0.30596,106.98
0.30205,108.74
0.29912,109.91
0.29619,110.1
0.29228,109.52
0.28935,108.54
0.28641,106.98
0.2825,104.82
0.28055,102.28
0.27761,99.544
0.27468,96.219
0.27077,92.699
0.26686,88.983
0.26295,85.463
0.26002,82.138
0.25611,79.205
0.2522,76.662
0.24829,74.511
0.24536,72.751
0.24145,71.186
0.23949,70.209
0.23949,69.231
0.24047,68.449
0.24438,67.862
0.25318,67.471
0.26882,67.275
0.2913,67.08
0.3216,66.884
0.35777,66.688
0.39883,66.688
0.44282,66.493
0.4868,66.493
0.52884,66.297
0.56207,66.297
0.58847,66.102
0.61486,65.906
0.63636,65.711
0.65298,65.319
0.66471,64.928
0.67155,64.733
0.67351,64.342
0.67058,63.95
0.66373,63.755
0.65298,63.364
0.63832,62.973
0.62268,62.582
0.60606,62.19
0.58553,61.799
0.56305,61.408
0.53959,61.213
0.51613,60.626
0.49365,60.235
0.47116,59.844
0.45064,59.257
0.43206,58.866
0.41642,58.279
0.40176,57.888
0.38905,57.497
0.37928,57.106
0.37146,56.715
0.36364,56.128
0.35679,55.737
0.35093,55.346
0.34604,55.15
0.34115,54.954
0.33724,54.759
0.33333,54.954
0.3304,55.346
0.32747,56.128
0.32454,58.083
0.3216,61.213
0.32063,65.515
0.31672,70.991
0.31378,76.858
0.31085,82.725
0.30694,88.396
0.30401,93.481
0.30108,97.979
0.29814,101.69
0.29521,104.43
0.29228,106.58
0.29032,107.76
0.28935,107.95
0.28641,107.56
0.28348,106.58
0.28055,105.02
0.27761,102.87
0.27468,100.52
0.27077,97.393
0.26686,94.068
0.26393,90.548
0.25806,87.027
0.25513,83.507
0.2522,80.183
0.24927,77.445
0.24731,75.098
0.24438,72.947
0.24145,71.186
0.23949,70.013
0.23949,68.84
0.2434,68.057
0.2522,67.275
0.26784,66.884
0.29032,66.493
0.32063,66.297
0.35191,66.102
0.40371,65.906
0.44477,65.906
0.4868,65.906
0.54741,65.906
0.5826,65.711
0.6129,65.711
0.63636,65.515
0.65494,65.319
0.66764,65.124
0.67449,64.928
0.67644,64.733
0.67351,64.342
0.66667,63.95
0.65689,63.559
0.64321,63.168
0.62659,62.973
0.60704,62.582
0.58456,62.19
0.56207,61.995
0.52688,61.604
0.50342,61.213
0.48094,60.821
0.45259,60.43
0.43793,60.039
0.42229,59.648
0.4086,59.257
0.39589,58.67
0.38514,58.279
0.37537,57.692
0.36755,57.301
0.3607,56.91
0.35386,56.519
0.34897,55.932
0.34506,55.541
0.34115,55.15
0.33822,54.759
0.33627,54.563
0.33431,54.368
0.33138,54.368
0.32845,54.368
0.32649,54.759
0.32356,55.737
0.32063,57.888
0.31769,61.213
0.31476,65.906
0.31183,71.382
0.3089,77.445
0.30694,83.312
0.30499,88.983
0.30303,94.068
0.3001,98.566
0.29814,102.09
0.29521,104.82
0.29228,106.78
0.28935,107.76
0.28641,107.95
0.2825,107.56
0.27957,106.39
0.27566,104.82
0.27273,102.67
0.26979,100.33
0.26784,97.393
0.26491,94.263
0.26197,90.743
0.25904,87.027
0.25611,83.507
0.2522,80.183
0.24927,77.445
0.24633,74.902
0.24536,72.751
0.24633,71.186
0.25122,69.818
0.25904,68.644
0.27175,67.666
0.29326,67.08
0.3216,66.688
0.35679,66.297
0.39785,65.906
0.44086,65.906
0.48583,65.711
0.52884,65.711
0.56794,65.711
0.60215,65.515
0.63148,65.515
0.65396,65.515
0.66862,65.319
0.67742,65.124
0.68426,64.928
0.68622,64.733
0.68426,64.342
0.67742,64.146
0.66764,63.755
0.65298,63.364
0.63539,62.973
0.61584,62.777
0.60313,62.386
0.59238,61.995
0.57674,61.604
0.55914,61.408
0.53763,61.017
0.51613,60.626
0.49462,60.235
0.4741,59.844
0.45552,59.257
0.43988,58.866
0.42522,58.475
0.41251,58.083
0.40274,57.692
0.39394,57.106
0.38612,56.715
0.38025,56.323
0.37634,55.932
0.37243,55.346
0.36852,55.15
0.36461,54.759
0.3607,54.368
0.35777,54.172
0.35484,54.172
0.35191,54.172
0.34897,54.759
0.34604,55.737
0.34311,58.083
0.34115,61.604
0.3392,66.688
0.33627,72.555
0.33333,78.618
0.32942,84.681
0.32649,90.548
0.32356,95.632
0.32063,100.13
0.31672,103.85
0.31378,106.58
0.30987,108.34
0.30694,109.32
0.30401,109.52
0.30108,109.13
0.29912,107.95
0.29619,106.39
0.29228,104.43
0.28935,101.89
0.28543,99.153
0.28152,96.024
0.27761,92.503
0.27468,88.788
0.27077,85.267
0.26784,81.747
0.26393,78.618
0.26197,75.88
0.26197,73.533
0.26295,71.773
0.26686,70.209
0.27664,69.035
0.29326,68.057
0.31769,67.471
0.35093,66.884
0.39198,66.493
0.43793,66.102
0.4868,65.906
0.53568,65.906
0.5826,65.906
0.61975,65.711
0.65005,65.711
0.6784,65.711
0.70381,65.515
0.72336,65.515
0.73705,65.319
0.74487,65.124
0.74878,64.928
0.74682,64.537
0.73998,64.342
0.72825,63.95
0.71359,63.559
0.69697,63.168
0.6784,62.777
0.65591,62.582
0.63148,62.19
0.60606,61.799
0.57869,61.408
0.55327,61.213
0.52786,60.821
0.5044,60.43
0.48289,60.039
0.46334,59.648
0.44575,59.257
0.43109,58.866
0.41935,58.475
0.40958,58.083
0.40078,57.497
0.39296,57.106
0.38612,56.715
0.38025,56.323
0.37439,55.932
0.37048,55.541
0.36657,55.346
0.36266,54.954
0.35973,54.759
0.35582,54.759
0.35386,54.759
0.35191,55.346
0.34897,56.519
0.34604,58.67
0.34311,62.386
0.34018,67.471
0.33627,73.338
0.33333,79.596
0.32942,85.854
0.32649,91.525
0.32356,96.806
0.32063,101.3
0.31867,105.02
0.31672,107.76
0.31378,109.52
0.31085,110.5
0.30792,110.69
0.30499,110.3
0.30108,109.13
0.29814,107.56
0.29423,105.61
0.2913,103.26
0.28739,100.52
0.28446,97.393
0.28152,94.068
0.27859,90.548
0.27761,86.832
0.27566,83.507
0.27273,80.378
0.26979,77.836
0.26882,75.489
0.26979,73.533
0.27468,72.164
0.28641,70.795
0.30401,70.013
0.33138,69.231
0.36559,68.84
0.40176,68.449
0.43891,68.253
0.48289,68.057
0.53079,68.057
0.57771,67.862
0.6217,67.862
0.6608,67.862
0.69404,67.862
0.71945,67.666
0.73998,67.666
0.75367,67.471
0.76149,67.275
0.76442,66.884
0.76246,66.688
0.7566,66.297
0.74682,65.906
0.73314,65.515
0.71652,65.124
0.69599,64.733
0.67449,64.537
0.65005,64.146
0.62463,63.755
0.59922,63.364
0.57478,62.973
0.55132,62.777
0.53079,62.386
0.5132,61.995
0.49658,61.408
0.47996,61.017
0.46628,60.626
0.45357,60.235
0.44282,59.844
0.43402,59.257
0.4262,58.866
0.42033,58.475
0.41447,58.083
0.41056,57.692
0.40665,57.106
0.40371,56.91
0.40176,56.519
0.39883,56.323
0.39687,56.128
0.39394,56.128
0.39101,56.715
0.38807,57.888
0.38416,60.039
0.38123,63.95
0.3783,69.231
0.37439,75.685
0.37146,82.138
0.3695,88.396
0.36755,94.263
0.36461,99.544
0.36168,104.04
0.35875,107.56
0.35484,110.3
0.35191,111.86
0.34897,112.84
0.34604,112.84
0.34213,112.06
0.3392,110.89
0.33529,109.32
0.33236,107.37
0.32942,105.02
0.32747,102.48
0.32551,99.348
0.32258,96.024
0.31867,92.503
0.31574,88.983
0.31281,85.463
0.3089,82.138
0.30596,79.4
0.30401,76.858
0.30499,74.902
0.31085,73.142
0.31965,71.773
0.33431,70.795
0.35777,70.013
0.38905,69.231
0.42815,68.84
0.47312,68.449
0.52102,68.253
0.56891,68.057
0.61388,68.057
0.65494,67.862
0.69013,67.862
0.71945,67.666
0.74291,67.471
0.75758,67.471
0.76637,67.275
0.77224,66.884
0.77419,66.493
0.77224,66.297
0.76637,65.906
0.7566,65.515
0.74291,64.928
0.72532,64.537
0.70479,64.146
0.68133,63.755
0.65591,63.364
0.63245,62.973
0.60997,62.582
0.58553,62.19
0.56109,61.799
0.53666,61.408
0.51417,60.821
0.49365,60.43
0.47605,60.039
0.45943,59.452
0.44575,59.061
0.43304,58.475
0.42229,58.083
0.41349,57.497
0.40665,57.106
0.40078,56.715
0.39492,56.323
0.39003,55.932
0.38123,55.346
0.37146,55.15
0.36461,54.759
0.35973,54.563
0.35484,54.368
0.35093,54.563
0.34604,55.15
0.34213,56.519
0.3392,59.257
0.33627,63.364
0.33236,68.84
0.32845,75.098
0.32454,81.552
0.31965,87.81
0.31574,93.481
0.31183,98.566
0.30792,102.67
0.30401,106
0.3001,108.34
0.29619,109.71
0.29228,110.3
0.28935,110.1
0.28641,109.13
0.28348,107.76
0.27957,106
0.27566,103.65
0.27175,101.11
0.26784,98.175
0.26393,94.85
0.26002,91.33
0.25611,87.614
0.2522,84.094
0.24829,80.769
0.24633,77.836
0.24438,75.293
0.2434,73.142
0.24438,71.382
0.24829,70.013
0.25904,69.035
0.27664,68.057
0.30205,67.471
0.33627,66.884
0.37732,66.493
0.42229,66.297
0.46921,66.102
0.51613,65.906
0.55425,65.906
0.58553,65.906
0.61681,65.906
