0.52981,73.533
0.56891,73.533
0.60117,73.533
0.63245,73.533
0.65982,73.338
0.68133,73.338
0.69795,72.947
0.70968,72.751
0.71554,72.36
0.7175,71.969
0.71554,71.382
0.70968,70.795
0.6999,70.404
0.68719,69.622
0.67351,69.035
0.65885,68.644
0.64027,68.057
0.61975,67.471
0.59726,67.08
0.5738,66.688
0.55034,66.102
0.52688,65.711
0.50538,65.124
0.48387,64.733
0.4653,64.146
0.4477,63.559
0.435,63.168
0.42326,62.582
0.41349,61.995
0.40371,61.604
0.39492,61.017
0.38807,60.43
0.38123,60.039
0.37537,59.648
0.37048,59.061
0.36657,58.67
0.36266,58.279
0.35875,57.888
0.35484,57.888
0.35191,58.083
0.34995,58.67
0.34702,60.626
0.34311,64.342
0.3392,70.209
0.33529,78.031
0.33138,87.027
0.32747,95.828
0.32356,104.04
0.31965,111.47
0.31574,117.54
0.31183,122.23
0.3089,125.16
0.30694,126.73
0.30401,127.12
0.30108,126.73
0.29717,125.36
0.29423,123.4
0.29032,121.06
0.28739,118.32
0.28348,115.58
0.27957,112.45
0.27664,109.13
0.27273,105.41
0.26979,101.5
0.26784,97.393
0.26588,93.286
0.26295,89.179
0.26002,85.463
0.25709,82.138
0.25415,79.4
0.2522,77.249
0.2522,75.489
0.25709,74.316
0.26882,73.338
0.28739,72.751
0.31378,72.36
0.34311,72.164
0.37634,72.164
0.41642,72.164
0.46237,72.164
0.50831,72.164
0.5523,72.164
0.59238,72.164
0.62659,72.164
0.65494,72.164
0.67742,71.969
0.69404,71.773
0.70577,71.382
0.71065,70.991
0.71163,70.6
0.7087,70.209
0.70283,69.622
0.69404,69.035
0.68231,68.449
0.66764,67.862
0.65005,67.471
0.62952,66.884
0.60802,66.297
0.58553,65.906
0.56207,65.515
0.53861,64.928
0.51906,64.537
0.50049,64.146
0.48094,63.559
0.46237,63.168
0.44575,62.582
0.43109,62.19
0.41838,61.604
0.4086,61.213
0.39883,60.626
0.39198,60.235
0.38514,59.844
0.37928,59.452
0.37439,58.866
0.37048,58.475
0.36755,58.279
0.36461,57.888
0.3607,57.692
0.35777,57.497
0.35484,57.692
0.35191,58.475
0.348,60.626
0.34409,64.342
0.34115,70.6
0.33724,78.814
0.33333,87.81
0.3304,96.806
0.32747,105.02
0.32454,112.45
0.32063,118.51
0.31769,123.21
0.31378,126.14
0.30987,127.9
0.30596,128.29
0.30303,127.51
0.29912,126.14
0.29619,123.99
0.29326,121.84
0.28935,119.3
0.28739,116.36
0.28543,113.43
0.2825,110.1
0.27957,106.58
0.27664,102.67
0.2737,98.566
0.27077,94.655
0.26784,90.548
0.26491,87.027
0.26197,83.703
0.25904,81.16
0.25806,79.009
0.26002,77.249
0.26491,76.076
0.27468,75.098
0.2913,74.511
0.31672,74.316
0.34995,74.12
0.39003,74.12
0.43402,74.12
0.48094,74.316
0.52786,74.316
0.57185,74.511
0.61095,74.511
0.64418,74.511
0.66862,74.511
0.68524,74.316
0.70088,74.12
0.71163,73.729
0.71848,73.338
0.72043,72.947
0.71945,72.36
0.71359,71.969
0.70577,71.382
0.69404,70.795
0.67937,70.209
0.66178,69.622
0.64418,69.231
0.62659,68.644
0.60606,68.253
0.58456,67.666
0.56207,67.275
0.54057,66.884
0.52004,66.493
0.50147,65.906
0.48387,65.515
0.46823,64.928
0.45552,64.537
0.44379,63.95
0.435,63.559
0.42815,62.973
0.42131,62.582
0.41544,62.19
0.41056,61.799
0.40567,61.408
0.40176,60.821
0.39883,60.43
0.39589,60.235
0.39296,60.039
0.39003,60.039
0.3871,60.626
0.38416,62.19
0.38123,65.711
0.37928,71.578
0.37634,79.596
0.37341,88.592
0.3695,97.784
0.36657,106.58
0.36266,114.21
0.35973,121.06
0.35582,126.14
0.35288,129.47
0.34995,131.42
0.34702,132.01
0.34506,131.62
0.34311,130.25
0.34018,128.49
0.33724,126.34
0.33431,123.99
0.33138,121.25
0.32845,118.71
0.32551,115.78
0.32258,112.45
0.31965,108.93
0.31672,105.22
0.31378,101.3
0.31085,97.197
0.3089,93.09
0.30694,89.374
0.30499,86.245
0.30303,83.507
0.30303,81.16
0.30596,79.596
0.31476,78.227
0.33138,77.249
0.35582,76.467
0.3871,76.076
0.4262,75.88
0.47019,75.685
0.50929,75.489
0.54643,75.489
0.58553,75.489
0.62366,75.293
0.65787,75.293
0.68719,75.098
0.70968,74.902
0.72727,74.707
0.739,74.316
0.74585,73.924
0.74878,73.338
0.7478,72.751
0.74291,72.164
0.73607,71.773
0.7263,71.186
0.71457,70.6
0.69892,70.013
0.68231,69.426
0.66276,69.035
0.64125,68.449
0.61975,67.862
0.59726,67.471
0.5738,66.884
0.5523,66.493
0.53079,65.906
0.5132,65.515
0.49853,64.928
0.48289,64.342
0.46823,63.755
0.45552,63.168
0.44379,62.582
0.43402,61.995
0.42522,61.408
0.4174,61.017
0.41056,60.43
0.40469,60.039
0.39883,59.648
0.39394,59.257
0.38905,58.866
0.38612,58.67
0.38123,58.866
0.37732,59.844
0.37243,61.799
0.36755,66.102
0.36266,72.947
0.35777,81.552
0.35288,91.33
0.348,100.72
0.34311,109.52
0.3392,117.14
0.33529,123.4
0.33236,127.9
0.32845,130.83
0.32551,132.2
0.3216,132.59
0.31769,131.81
0.31281,130.25
0.3089,128.29
0.30499,125.95
0.30108,123.4
0.29619,120.67
0.29228,117.93
0.28837,114.6
0.28543,111.28
0.28348,107.56
0.28055,103.65
0.27761,99.544
0.2737,95.241
0.26979,91.33
0.26588,87.614
0.26197,84.289
0.26002,81.747
0.261,79.596
0.26588,77.836
0.27761,76.662
0.29423,75.685
0.31574,75.098
0.34702,74.707
0.3871,74.511
0.43109,74.511
0.47898,74.316
0.5259,74.316
0.56989,74.316
0.60997,74.316
0.64418,74.316
0.67155,74.12
0.69306,73.924
0.70772,73.729
0.71652,73.533
0.72043,73.142
0.72141,72.555
0.71945,72.164
0.71359,71.578
0.70577,70.991
0.69501,70.404
0.68133,69.818
0.66471,69.231
0.64614,68.84
0.62561,68.057
0.60313,67.471
0.5826,67.08
0.56305,66.493
0.54154,65.906
0.51906,65.515
0.49853,64.928
0.47898,64.537
0.46139,63.95
0.44477,63.364
0.43109,62.973
0.41838,62.386
0.40762,61.799
0.39883,61.213
0.39101,60.821
0.38514,60.235
0.38025,59.844
0.37634,59.257
0.37146,58.866
0.36755,58.475
0.36266,58.279
0.35875,58.083
0.35484,58.083
0.34995,58.67
0.34409,60.039
0.33822,63.168
0.33431,68.644
0.3304,76.271
0.32747,85.267
0.32356,94.263
0.31965,102.87
0.31574,110.5
0.31183,117.14
0.30694,122.23
0.30303,125.55
0.29912,127.51
0.29521,128.1
0.2913,127.71
0.28739,126.34
0.28446,124.58
0.28152,122.23
0.27957,119.69
0.27664,117.14
0.2737,114.21
0.26979,110.89
0.26686,107.56
0.26295,103.85
0.26002,99.739
0.25611,95.632
0.25318,91.525
0.24927,87.614
0.24633,84.289
0.2434,81.16
0.24242,78.814
0.24242,76.858
0.24438,75.293
0.2522,74.12
0.26588,73.533
0.28837,72.947
0.31867,72.555
0.35582,72.555
0.3998,72.555
0.44575,72.555
0.49267,72.555
0.53763,72.555
0.57283,72.555
0.60215,72.555
0.62952,72.36
0.65298,72.36
0.67155,72.164
0.68426,71.969
0.69306,71.578
0.69697,70.991
0.69599,70.6
0.69208,70.013
0.68426,69.622
0.67253,69.035
0.65982,68.449
0.64614,67.862
0.62854,67.471
0.60899,66.884
0.58749,66.297
0.565,65.906
0.54154,65.515
0.51906,64.928
0.49658,64.537
0.47605,64.146
0.45748,63.559
0.43988,62.973
0.42717,62.582
0.41544,61.995
0.40469,61.408
0.39492,61.017
0.3871,60.43
0.37928,60.039
0.37243,59.452
0.36755,59.061
0.36266,58.475
0.35777,58.083
0.35386,57.692
0.35093,57.301
0.34702,57.106
0.34506,57.301
0.34311,57.888
0.34018,59.452
0.33627,62.777
0.33333,68.253
0.32942,75.88
0.32551,84.681
0.3216,93.481
0.31769,102.09
0.31378,109.52
0.30987,115.97
0.30694,121.06
0.30401,124.38
0.30205,126.34
0.29912,127.12
0.29521,126.73
0.29228,125.36
0.28837,123.6
0.28543,121.25
0.28152,118.71
0.27859,115.97
0.27468,113.04
0.27175,109.71
0.26882,106.19
0.26491,102.28
0.26295,98.175
0.261,94.068
0.25904,89.961
0.25611,86.05
0.2522,82.725
0.24927,79.791
0.24731,77.445
0.24633,75.489
0.24927,74.12
0.25806,73.142
0.27273,72.36
0.29717,71.969
0.32356,71.773
0.35386,71.773
0.39394,71.773
0.43793,71.773
0.48485,71.773
0.53079,71.773
0.57283,71.969
0.60997,71.969
0.64125,71.773
0.66667,71.773
0.68524,71.578
0.69795,71.382
0.70577,70.991
0.7087,70.6
0.70674,70.013
0.70283,69.426
0.69501,69.035
0.68426,68.449
0.67058,67.862
0.65494,67.275
0.63539,66.688
0.61486,66.102
0.59238,65.711
0.56891,65.319
0.54545,64.733
0.52493,64.342
0.50538,63.95
0.48583,63.559
0.46725,62.973
0.44966,62.582
0.435,61.995
0.42131,61.604
0.40958,61.213
0.3998,60.626
0.39101,60.235
0.38319,59.844
0.37732,59.452
0.37243,58.866
0.36852,58.475
0.36461,58.083
0.36168,57.692
0.35777,57.497
0.35484,57.497
0.35191,57.692
0.348,58.279
0.34506,60.235
0.34115,63.95
0.33724,69.818
0.33333,77.836
0.32942,86.832
0.32649,95.828
0.32356,104.04
0.31965,111.28
0.31672,117.54
0.31281,122.23
0.3089,125.16
0.30596,126.92
0.30205,127.31
0.29912,126.73
0.29521,125.36
0.29228,123.4
0.28837,121.06
0.28543,118.71
0.2825,115.97
0.28055,113.04
0.27859,109.71
0.27566,106.19
0.27273,102.48
0.26979,98.566
0.26686,94.459
0.26393,90.352
0.261,86.832
0.25709,83.507
0.25415,80.965
0.25318,78.618
0.25415,77.054
0.25806,75.685
0.26588,74.902
0.28152,74.316
0.30499,74.12
0.33627,73.924
0.37537,73.924
0.41935,73.924
0.46725,74.12
0.51417,74.12
0.55914,74.316
0.6002,74.316
0.63539,74.316
0.66178,74.316
0.68035,74.12
0.69599,73.924
0.7087,73.533
0.71652,73.142
0.72043,72.751
0.72043,72.164
0.71554,71.578
0.70772,71.186
0.69697,70.6
0.68231,70.013
0.66569,69.622
0.64907,69.035
0.63148,68.644
0.61095,68.057
0.58847,67.666
0.56598,67.275
0.5435,66.688
0.52297,66.297
0.50244,65.711
0.48387,65.319
0.46823,64.733
0.45357,64.342
0.44184,63.755
0.43109,63.364
0.42326,62.777
0.4174,62.386
0.41153,61.995
0.40665,61.408
0.40176,61.017
0.39785,60.626
0.39492,60.235
0.39198,59.844
0.38905,59.648
0.38612,59.844
0.38319,60.235
0.38025,61.995
0.3783,65.515
0.37537,71.382
0.37341,79.4
0.3695,88.788
0.36657,97.979
0.36266,106.98
0.35973,114.8
0.35582,121.45
0.35288,126.53
0.34897,129.86
0.34604,131.62
0.34311,132.2
0.34018,131.62
0.33724,130.25
0.33529,128.49
0.33529,126.34
0.33724,123.99
0.33627,121.64
0.33431,119.1
0.33138,116.17
0.32845,113.04
0.32551,109.71
0.32258,106
0.31965,102.09
0.31672,97.979
0.31476,94.068
0.31281,90.157
0.30987,86.832
0.30792,83.898
0.30694,81.552
0.3089,79.596
0.31769,78.227
0.33236,77.054
0.35679,76.467
0.38905,75.88
0.42913,75.685
0.47507,75.489
0.51711,75.489
0.55621,75.489
0.59824,75.489
0.64027,75.489
0.67742,75.293
0.70968,75.293
0.73509,75.098
0.75464,74.902
0.76833,74.511
0.77615,73.924
0.78006,73.533
0.78006,72.947
0.77615,72.36
0.76833,71.773
0.75855,71.186
0.74682,70.6
0.73118,70.013
0.71359,69.426
0.69404,68.84
0.67253,68.253
0.64907,67.666
0.62561,67.275
0.60117,66.884
0.57674,66.297
0.55327,65.906
0.53372,65.319
0.51613,64.733
0.49951,64.146
0.48289,63.559
0.46823,63.168
0.45552,62.582
0.44477,61.995
0.43597,61.408
0.42717,61.017
0.42033,60.43
0.41349,60.039
0.40762,59.648
0.40274,59.257
0.39785,58.866
0.39394,58.67
0.39003,58.866
0.38514,59.648
0.38025,61.604
0.37537,65.711
0.37048,72.36
0.36559,80.965
0.3607,90.548
0.35582,99.935
0.34995,108.74
0.34506,116.36
0.34115,122.43
0.33822,127.12
0.33431,130.05
0.3304,131.42
0.32649,131.81
0.3216,131.03
0.31769,129.66
0.31378,127.51
0.3089,125.36
0.30499,123.01
0.30108,120.47
0.29619,117.54
0.29228,114.6
0.28935,111.28
0.28739,107.56
0.28446,103.85
0.28055,99.739
0.27664,95.437
0.27273,91.33
0.26882,87.614
0.26491,84.289
0.26197,81.552
0.26197,79.4
0.26588,77.64
0.27664,76.271
0.29228,75.293
0.31281,74.707
0.34409,74.316
0.38416,74.12
0.43011,74.12
0.47996,73.924
0.52981,73.924
0.57771,73.924
0.62072,73.924
0.65787,73.924
0.68817,73.729
0.71163,73.729
0.72923,73.533
0.739,73.142
0.74389,72.751
0.74585,72.36
0.74487,71.969
0.74096,71.382
0.73314,70.795
0.72239,70.209
0.7087,69.622
0.69208,69.035
0.67351,68.644
0.652,68.057
0.62952,67.471
0.60802,67.08
0.58749,66.493
0.565,66.102
0.54154,65.515
0.51906,65.124
0.49756,64.537
0.47801,63.95
0.46041,63.364
0.44477,62.777
0.43109,62.19
0.41935,61.799
0.40958,61.213
0.40078,60.821
0.39492,60.235
0.39003,59.844
0.38416,59.257
0.37928,58.866
0.37537,58.475
0.37048,58.279
0.36657,58.083
0.36266,58.279
0.35875,58.866
0.35484,60.821
0.35093,64.733
0.34702,70.795
0.34409,79.009
0.34115,88.201
0.33724,97.393
0.33333,105.8
0.32942,113.23
0.32551,119.49
0.32063,123.99
0.31672,126.92
0.31281,128.49
0.3089,128.88
0.30499,128.29
0.30108,126.92
0.29717,124.97
0.29423,122.62
0.29228,120.08
0.28935,117.34
0.28543,114.41
0.2825,111.08
0.27859,107.56
0.27468,103.85
0.27175,99.739
0.26784,95.632
0.26393,91.525
0.261,87.81
0.25709,84.289
0.25415,81.552
0.25318,79.205
0.25318,77.249
0.25611,75.685
0.26491,74.707
0.28055,73.924
0.30499,73.533
0.33822,73.338
0.3783,73.142
0.42522,73.142
0.47507,73.142
0.52493,73.142
0.57185,72.947
0.60899,72.947
0.6393,72.947
0.66764,72.751
0.69208,72.751
0.71065,72.36
0.72434,72.164
0.73216,71.773
0.73607,71.382
0.73509,70.795
0.73021,70.404
0.72239,69.818
0.71065,69.231
0.69697,68.84
0.68133,68.253
0.66373,67.666
0.64223,67.275
0.61975,66.688
0.59629,66.297
0.57185,65.711
0.54741,65.319
0.52395,64.733
0.50147,64.342
0.48192,63.755
0.46334,63.364
0.4477,62.777
0.435,62.19
0.42522,61.604
0.41544,61.213
0.40665,60.821
0.39883,60.235
0.39198,59.844
0.38612,59.257
0.38123,58.866
0.37634,58.279
0.37243,57.888
0.36852,57.692
0.36461,57.692
0.36168,57.888
0.35875,58.866
0.35582,61.017
0.35191,65.124
0.348,71.578
0.34409,79.791
0.34018,88.788
0.33627,97.588
0.33236,105.61
0.32845,112.65
0.32454,118.51
0.32063,122.82
0.31672,125.55
0.31378,126.92
0.31183,127.12
0.3089,126.53
0.30596,124.97
0.30205,123.01
0.29814,120.67
0.29521,117.93
0.2913,115.19
0.28739,112.06
0.28446,108.74
0.28055,105.02
0.27761,101.11
0.27468,97.001
0.27273,92.894
0.27077,88.983
0.26784,85.267
0.26393,82.138
0.261,79.4
0.25904,77.249
0.25904,75.685
0.26295,74.316
0.27175,73.533
0.28739,72.947
0.31183,72.555
0.3392,72.36
0.37048,72.36
0.40958,72.36
0.45357,72.36
0.49951,72.36
0.5435,72.36
0.58358,72.36
0.61877,72.36
0.64809,72.164
0.67155,72.164
0.68817,71.969
0.6999,71.578
0.70577,71.186
0.70772,70.795
0.70577,70.209
0.6999,69.622
0.69208,69.231
0.68133,68.644
0.66764,68.057
0.65103,67.666
0.63148,67.08
0.61095,66.493
0.58847,66.102
0.565,65.515
0.54252,65.124
0.52199,64.733
0.50342,64.146
0.48485,63.755
0.46725,63.168
0.45064,62.582
0.43597,62.19
0.42326,61.604
0.41251,61.213
0.40274,60.821
0.39492,60.235
0.38807,59.844
0.38221,59.257
0.37732,58.866
0.37341,58.279
0.37048,57.888
0.36755,57.692
0.36364,57.497
0.3607,57.497
0.35679,57.888
0.35386,59.257
0.34995,62.386
0.34604,67.471
0.34213,74.902
0.3392,83.703
0.33529,92.894
0.33236,101.69
0.32942,109.52
0.32649,116.36
0.32258,121.84
0.31965,125.55
0.31574,127.9
0.31281,128.88
0.3089,128.68
0.30499,127.51
0.30205,125.95
0.29814,123.99
0.29521,121.64
0.2913,119.1
0.28935,116.36
0.28739,113.23
0.28446,110.1
0.28152,106.39
0.27859,102.67
0.27566,98.566
0.27175,94.459
0.26882,90.352
0.26491,86.832
0.26197,83.703
0.25904,80.965
0.25806,78.814
0.25904,77.249
0.26491,76.076
0.27566,75.098
0.29423,74.511
0.32063,74.12
0.35484,74.12
0.39687,73.924
0.44282,74.12
0.49071,74.12
0.53666,74.12
0.58065,74.12
0.61877,74.316
0.652,74.316
0.67546,74.12
0.69208,73.924
0.70674,73.729
0.71652,73.533
0.72239,72.947
0.72434,72.555
0.72239,72.164
0.7175,71.578
0.7087,70.991
0.69697,70.6
0.68231,70.013
0.66471,69.426
0.64712,69.035
0.62854,68.449
0.60802,68.057
0.58553,67.471
0.56305,67.08
0.54057,66.688
0.51906,66.102
0.49853,65.711
0.47996,65.124
0.46334,64.733
0.44966,64.342
0.43695,63.755
0.4262,63.364
0.41838,62.973
0.41153,62.386
0.40567,61.995
0.40078,61.408
0.39589,61.017
0.39101,60.626
0.3871,60.235
0.38416,59.844
0.38025,59.844
0.37732,60.235
0.37439,61.408
0.37146,64.146
0.36852,69.035
0.36657,76.271
0.36364,85.267
0.3607,94.655
0.35777,103.65
0.35386,111.86
0.35093,119.1
0.348,124.77
0.34409,128.88
0.34115,131.42
0.33822,132.59
0.33529,132.59
0.33236,131.62
0.32942,130.05
0.32747,128.1
0.32551,125.95
0.32258,123.6
0.31965,121.06
0.31672,118.32
0.31378,115.38
0.31085,112.26
0.30792,108.74
0.30596,105.02
0.30303,101.11
0.3001,97.001
0.29814,93.09
0.29619,89.57
0.29423,86.441
0.29228,83.898
0.29326,81.747
0.29814,79.987
0.30792,78.814
0.32649,77.836
0.35288,77.249
0.3871,76.662
0.42815,76.467
0.47312,76.271
0.52102,76.076
0.56109,76.076
0.59531,76.076
0.6305,76.076
0.66373,76.076
0.6911,75.88
0.71359,75.685
0.72923,75.293
0.74096,75.098
0.7478,74.511
0.74976,74.12
0.74878,73.533
0.74389,72.947
0.73607,72.36
0.7263,71.773
0.71457,70.991
0.6999,70.404
0.68231,69.818
0.66373,69.231
0.64223,68.84
0.62072,68.253
0.59824,67.666
0.57576,67.08
0.55327,66.493
0.53275,65.906
0.5132,65.515
0.49756,64.928
0.48387,64.342
0.47019,63.755
0.45748,63.168
0.44673,62.777
0.43695,62.19
0.42913,61.604
0.42131,61.213
0.41544,60.821
0.40958,60.235
0.40469,59.844
0.3998,59.452
0.39589,59.257
0.39296,59.452
0.38905,60.235
0.38514,62.19
0.38025,66.102
0.37537,72.555
0.37048,81.16
0.36559,90.743
0.3607,100.33
0.35582,109.32
0.35093,117.14
0.34604,123.6
0.34115,128.49
0.33724,131.42
0.33333,133.18
0.32942,133.57
0.32551,132.99
0.32063,131.62
0.31672,129.66
0.31183,127.51
0.30792,125.16
0.30303,122.43
0.29912,119.69
0.29521,116.75
0.29032,113.43
0.28739,109.91
0.28446,106.19
0.28152,102.28
0.27761,98.175
0.2737,93.872
0.26979,90.157
0.26588,86.636
0.26295,83.703
0.261,81.16
0.26393,79.4
0.27175,77.836
0.28739,76.662
0.30694,76.076
0.33236,75.489
0.36657,75.293
0.4086,75.098
0.45552,75.098
0.50244,75.098
0.54839,75.098
0.59042,74.902
0.62757,74.902
0.65787,74.707
0.68231,74.511
0.6999,74.316
0.71163,73.924
0.71848,73.533
0.71945,73.142
0.71945,72.751
0.71457,72.164
0.70674,71.578
0.69599,70.991
0.68426,70.404
0.6696,69.818
0.652,69.231
0.63343,68.644
0.6129,68.057
0.59042,67.666
0.56989,67.275
0.55034,66.688
0.52884,66.102
0.50635,65.711
0.48583,65.124
0.46628,64.537
0.44868,64.146
0.43304,63.559
0.41935,62.973
0.40665,62.386
0.39687,61.799
0.38807,61.408
0.38123,60.821
0.37537,60.43
0.37048,59.844
0.36657,59.452
0.36168,59.061
0.35777,58.67
0.35386,58.475
0.34995,58.67
0.34604,59.257
0.34213,61.213
0.33822,64.928
0.33333,70.991
0.32942,79.205
0.32551,88.396
0.32258,97.588
0.31965,106.19
0.31574,113.82
0.31183,120.08
0.30694,124.77
0.30303,127.71
0.29912,129.27
0.29521,129.86
0.29228,129.07
0.28837,127.71
0.28446,125.75
0.28152,123.4
0.27859,121.06
0.27664,118.32
0.2737,115.38
0.27077,112.06
0.26686,108.74
0.26393,105.02
0.26002,101.11
0.25709,97.001
0.25415,92.699
0.25024,88.788
0.24731,85.267
0.2434,82.334
0.24145,79.791
0.24145,77.64
0.2434,76.076
0.24927,75.098
0.26197,74.316
0.28348,73.729
0.31183,73.533
0.34897,73.338
0.39198,73.338
0.43891,73.338
0.4868,73.338
0.53177,73.338
0.57283,73.338
0.60508,73.338
0.62952,73.142
0.652,72.947
0.67058,72.751
0.68426,72.36
0.69208,71.969
0.69599,71.578
0.69599,71.186
0.69306,70.6
0.68524,70.209
0.67546,69.426
0.66178,69.035
0.64809,68.449
0.63245,67.862
0.61388,67.471
0.59335,66.884
0.57087,66.297
0.54839,65.906
0.52493,65.515
0.50244,64.928
0.47996,64.537
0.46041,63.95
0.44184,63.364
0.4262,62.973
0.41153,62.386
0.40078,61.799
0.39198,61.408
0.38416,60.821
0.37732,60.43
0.37048,59.844
0.36461,59.452
0.35973,58.866
0.35582,58.475
0.35191,58.083
0.348,57.888
0.34506,57.692
0.34115,57.888
0.3392,58.866
0.33627,60.821
0.33431,64.733
0.3304,70.991
0.32747,79.205
0.32356,88.396
0.31965,97.197
0.31574,105.41
0.31183,112.65
0.30792,118.71
0.30401,123.21
0.3001,126.14
0.29717,127.51
0.29423,127.9
0.29228,127.31
0.28935,125.95
0.28641,123.99
0.28348,121.84
0.27957,119.3
0.27664,116.56
0.27273,113.62
0.26979,110.5
0.26588,106.98
0.26295,103.06
0.26002,98.957
0.25806,94.85
0.25611,90.548
0.25415,86.832
0.25024,83.507
0.24731,80.769
0.24438,78.422
0.24438,76.467
0.24633,75.098
0.25415,74.12
0.26882,73.533
0.29228,73.142
0.32356,72.751
0.36168,72.751
0.3998,72.555
0.43695,72.555
0.48094,72.555
0.52493,72.555
0.56696,72.751
0.60411,72.555
0.63539,72.555
0.6608,72.36
0.68035,71.969
0.69306,71.773
0.70186,71.382
0.70479,70.991
0.70381,70.404
0.6999,69.818
0.69306,69.231
0.68231,68.84
0.6696,68.253
0.65396,67.666
0.63539,67.275
0.61486,66.884
0.59335,66.297
0.56989,65.906
0.54643,65.319
0.52297,64.928
0.50049,64.342
0.48192,63.95
0.4653,63.364
0.44868,62.973
0.43402,62.582
0.41935,61.995
0.40762,61.604
0.39687,61.213
0.38807,60.821
0.38123,60.235
0.37439,59.844
0.36852,59.452
0.36461,59.061
0.3607,58.67
0.35777,58.279
0.35484,58.279
0.35093,58.279
0.348,58.866
0.34409,60.235
0.34115,63.168
0.33724,68.449
0.33333,75.88
0.32942,84.681
0.32551,93.872
0.3216,102.48
0.31867,110.3
0.31672,116.95
0.31378,122.03
0.30987,125.75
0.30596,127.9
0.30303,128.68
0.29912,128.68
0.29619,127.51
0.29228,125.95
0.28935,123.99
0.28543,121.64
0.2825,119.1
0.27859,116.36
0.27664,113.43
0.27468,110.3
0.27273,106.78
0.26979,102.87
0.26686,98.957
0.26393,94.85
0.261,90.939
0.25806,87.419
0.25513,84.289
0.2522,81.747
0.25122,79.791
0.25318,78.031
0.25806,76.858
0.26686,75.88
0.28348,75.293
0.3089,75.098
0.34213,74.902
0.38221,74.902
0.42717,74.902
0.47507,74.902
0.52199,74.902
0.56696,74.902
0.60606,74.902
0.64027,74.902
0.66764,74.707
0.68622,74.511
0.69795,74.12
0.70772,73.729
0.71457,73.533
0.71652,72.947
0.71554,72.555
0.71065,71.969
0.70186,71.382
0.6911,70.991
0.67742,70.404
0.6608,69.818
0.64223,69.426
0.62366,68.84
0.60508,68.449
0.58358,67.862
0.56207,67.471
0.53959,67.08
0.51808,66.493
0.49853,66.102
0.47996,65.515
0.46334,65.124
0.44868,64.537
0.43988,64.146
0.43597,63.559
0.43011,63.168
0.42522,62.777
0.42033,62.19
0.41544,61.799
0.41056,61.408
0.40665,61.017
0.40274,60.626
0.39883,60.43
0.39589,60.235
0.39296,60.821
0.39003,62.386
0.38612,65.711
0.38319,71.382
0.38025,79.4
0.3783,88.788
0.37537,98.175
0.37243,107.17
0.36852,115.38
0.36559,122.23
0.36168,127.51
0.35875,131.23
0.35484,133.18
0.35191,133.96
0.348,133.57
0.34506,132.59
0.34115,130.83
0.3392,128.88
0.33724,126.73
0.33431,124.38
0.33138,121.64
0.32747,118.9
0.32454,115.78
0.3216,112.45
0.31769,108.93
0.31476,105.02
0.31183,101.11
0.30792,96.806
0.30499,92.894
0.30205,89.374
0.3001,86.245
0.29912,83.703
0.29912,81.552
0.30401,79.987
0.31476,78.814
0.33431,78.031
0.36168,77.445
0.39785,77.054
0.44184,76.858
0.48876,76.858
0.53861,76.662
0.58651,76.662
0.62561,76.467
0.65787,76.271
0.68915,76.271
0.71554,76.076
0.73803,75.685
0.75367,75.293
0.76442,74.902
0.77126,74.316
0.77224,73.729
0.77028,73.142
0.7654,72.555
0.7566,72.164
0.74585,71.578
0.73314,70.795
0.7175,70.404
0.6999,69.818
0.67937,69.231
0.65787,68.84
0.63441,68.253
0.60997,67.862
0.58553,67.471
0.56207,66.884
0.53959,66.297
0.51906,65.711
0.49951,65.124
0.48387,64.537
0.47116,63.95
0.45846,63.559
0.4477,62.973
0.43695,62.386
0.42815,61.995
0.42033,61.408
0.41349,61.017
0.40665,60.43
0.40078,60.039
0.39589,59.844
0.39003,59.648
0.38612,59.844
0.38221,60.821
0.3783,62.973
0.37341,67.666
0.36852,74.707
0.36364,83.703
0.35875,93.481
0.35386,102.87
0.34897,111.47
0.34409,119.1
0.3392,125.16
0.33431,129.47
0.3304,132.2
0.32649,133.38
0.32356,133.57
0.31965,132.79
0.31574,131.23
0.31183,129.27
0.30792,127.12
0.30401,124.77
0.29912,122.23
0.29521,119.49
0.2913,116.36
0.28739,113.23
0.28348,109.71
0.28055,105.8
0.27761,101.69
0.27468,97.393
0.27077,93.286
0.26686,89.374
0.26295,86.05
0.25904,83.312
0.25806,81.16
0.26002,79.205
0.26882,77.836
0.28446,76.858
0.30987,76.271
0.34409,75.685
0.37928,75.489
0.4174,75.293
0.46237,75.098
0.51124,75.098
0.55816,75.098
0.60215,75.098
0.64027,74.902
0.67155,74.707
0.69697,74.511
0.71554,74.316
0.72825,73.924
0.73607,73.533
0.73803,73.142
0.73607,72.555
0.73216,72.164
0.7263,71.578
0.71652,70.991
0.70479,70.404
0.68915,69.818
0.67253,69.231
0.652,68.644
0.6305,68.253
0.60704,67.666
0.58358,67.275
0.55914,66.688
0.53763,66.102
0.51808,65.711
0.49853,65.124
0.47898,64.537
0.46041,64.146
0.44477,63.559
0.43011,62.973
0.4174,62.582
0.40665,61.995
0.39687,61.408
0.38905,61.017
0.38221,60.43
0.37634,60.039
0.37243,59.648
0.36852,59.061
0.36461,58.866
0.3607,58.67
0.35582,59.061
0.35191,59.844
0.348,62.19
0.34409,66.493
0.34018,73.142
0.33627,81.747
0.33138,90.939
0.32845,100.13
0.32551,108.54
0.32258,115.97
0.31867,122.03
0.31476,126.34
0.31085,129.07
0.30694,130.64
0.30303,130.83
0.29912,130.05
0.29619,128.68
0.29228,126.73
0.28837,124.38
0.28446,122.03
0.2825,119.3
0.28055,116.36
0.27761,113.23
0.27468,109.71
0.27175,105.8
0.26784,101.89
0.26491,97.588
0.261,93.481
0.25806,89.374
0.25415,85.854
0.25024,82.725
0.24731,80.378
0.24633,78.422
0.24829,76.858
0.25513,75.685
0.26882,75.098
0.29032,74.511
0.32063,74.12
0.35875,73.924
0.40371,73.924
0.45259,73.729
0.50244,73.729
0.55034,73.729
0.59433,73.729
0.63245,73.729
0.6608,73.533
0.68133,73.533
0.69892,73.338
0.71261,72.947
0.72141,72.555
0.7263,72.164
0.72727,71.578
0.72336,71.186
0.71652,70.6
0.70674,70.013
0.69306,69.426
0.67742,68.84
0.65982,68.253
0.64223,67.862
0.6217,67.275
0.59824,66.884
0.5738,66.297
0.55034,65.906
0.5259,65.319
0.50342,64.733
0.48192,64.342
0.46237,63.95
0.44575,63.364
0.43011,62.777
0.4174,62.386
0.40665,61.799
0.39883,61.408
0.39101,60.821
0.38416,60.235
0.3783,59.844
0.37341,59.257
0.36852,58.866
0.36461,58.475
0.3607,58.279
0.35679,58.279
0.35288,58.67
0.34995,59.844
0.34702,62.777
0.34506,67.666
0.34213,74.902
0.33822,83.703
0.33529,92.699
0.33138,101.3
0.32747,109.13
0.32356,115.97
0.32063,121.45
0.31672,125.36
0.31281,127.71
0.30987,128.68
0.30596,128.68
0.30401,127.9
0.30205,126.14
0.29912,124.19
0.29619,121.84
0.29326,119.49
0.29032,116.56
0.28641,113.43
0.28348,110.1
0.28055,106.58
0.27761,102.67
0.2737,98.37
0.27077,94.263
0.26882,90.157
0.26686,86.441
0.26393,83.116
0.261,80.574
0.25904,78.227
0.25904,76.662
0.26197,75.293
0.26979,74.511
0.28543,73.729
0.30792,73.533
0.34018,73.338
0.3783,73.142
0.42131,73.142
0.46139,72.947
0.49853,72.947
0.53861,72.947
0.57771,72.751
0.61193,72.751
0.64223,72.555
0.66569,72.36
0.68328,72.164
0.69599,71.773
0.70283,71.382
0.70577,70.991
0.70479,70.6
0.70088,70.013
0.69306,69.426
0.68328,69.035
0.67058,68.449
0.65494,68.057
0.63734,67.471
0.61681,67.08
0.59531,66.493
0.57283,65.906
0.55034,65.515
0.52786,65.124
0.50635,64.537
0.48583,64.146
0.46823,63.559
0.45357,63.168
0.43988,62.582
0.42717,62.19
0.41544,61.604
0.40469,61.408
0.39589,60.821
0.38905,60.43
0.38221,59.844
0.37634,59.452
0.37146,59.061
0.36755,58.67
0.36461,58.279
0.36168,58.279
0.35875,58.475
0.35582,59.257
0.35288,61.213
0.34897,64.928
0.34604,70.991
0.34213,79.205
0.33822,88.396
0.33431,97.588
0.33138,106.19
0.32747,113.82
0.32356,120.08
0.3216,124.97
0.31867,128.29
0.31672,130.05
0.31281,130.64
0.30987,130.25
0.30694,129.07
0.30303,127.31
0.3001,125.36
0.29717,122.82
0.29423,120.47
0.29032,117.73
0.28739,114.6
0.28543,111.28
0.28348,107.76
0.28152,103.85
0.27859,99.739
0.27664,95.632
0.2737,91.525
0.27077,87.81
0.26784,84.681
0.26491,82.138
0.26393,79.987
0.26491,78.422
0.27175,77.249
0.28446,76.467
0.30108,75.88
0.32356,75.489
0.35582,75.293
0.39492,75.293
0.43988,75.293
0.4868,75.293
0.53275,75.293
0.57674,75.293
0.61584,75.293
0.64907,75.293
0.67546,75.098
0.69599,74.902
0.70968,74.511
0.7175,74.316
0.72239,73.729
0.72434,73.338
0.72239,72.751
0.71848,72.164
0.71065,71.773
0.6999,71.186
0.68622,70.6
0.67058,70.209
0.652,69.622
0.63148,69.231
0.61193,68.644
0.59335,68.253
0.57185,67.862
0.55034,67.275
0.52884,66.884
0.50929,66.297
0.49071,65.906
0.47312,65.319
0.45846,64.928
0.44575,64.342
0.435,63.95
0.42522,63.364
0.4174,62.973
0.41153,62.582
0.40762,61.995
0.40274,61.604
0.39883,61.213
0.39492,60.821
0.39198,60.626
0.38807,60.626
0.38514,61.213
0.38221,62.973
0.37928,66.493
0.37634,72.555
0.37243,80.769
0.37048,90.157
0.36755,99.544
0.36461,108.54
0.36168,116.36
0.35875,123.21
0.35484,128.49
0.35191,132.01
0.34897,133.96
0.34604,134.75
0.34311,134.35
0.34018,133.18
0.33724,131.42
0.33333,129.47
0.33138,127.12
0.32942,124.58
0.32747,122.03
0.32454,119.1
0.3216,116.17
0.31867,112.84
0.31574,109.32
0.31281,105.41
0.30987,101.3
0.30596,97.197
0.30303,93.09
0.3001,89.57
0.29717,86.441
0.29619,83.898
0.29717,81.747
0.30108,80.183
0.31085,79.009
0.32747,78.031
0.35191,77.445
0.38416,77.054
0.42424,76.662
0.46823,76.662
0.51417,76.467
0.55914,76.467
0.60117,76.271
0.63441,76.076
0.6608,75.88
0.68426,75.685
0.70479,75.293
0.72043,75.098
0.73118,74.511
0.73705,74.12
0.739,73.533
0.73803,72.947
0.73314,72.36
0.7263,71.969
0.71554,71.186
0.70381,70.6
0.6911,70.209
0.67546,69.622
0.65689,69.035
0.63636,68.644
0.61486,68.253
0.59238,67.666
0.56989,67.275
0.54839,66.688
0.52688,66.102
0.50635,65.711
0.48778,65.124
0.47116,64.537
0.45846,63.95
0.44673,63.364
0.43597,62.777
0.4262,62.386
0.4174,61.799
0.40958,61.213
0.40274,60.626
0.39687,60.235
0.39101,59.844
0.38612,59.452
0.38123,59.257
0.37634,59.452
0.37243,60.235
0.3695,62.386
0.36559,66.884
0.3607,73.729
0.35679,82.725
0.35191,92.699
0.348,102.28
0.34311,111.08
0.3392,118.9
0.33431,125.16
0.3304,129.66
0.32649,132.59
0.32258,134.16
0.31965,134.55
0.31672,133.96
0.31378,132.4
0.30987,130.64
0.30694,128.49
0.30303,126.14
0.29912,123.4
0.29521,120.67
0.2913,117.73
0.28739,114.41
0.28152,110.89
0.27566,107.17
0.27273,103.06
0.26979,98.957
0.26588,94.655
0.26197,90.743
0.25806,87.223
0.25415,84.094
0.2522,81.552
0.25318,79.791
0.25806,78.227
0.27077,77.054
0.29228,76.271
0.32258,75.685
0.3607,75.293
0.39883,75.098
0.43695,75.098
0.48192,74.902
0.52786,74.902
0.57087,74.902
0.60997,74.707
0.64321,74.511
0.67058,74.316
0.6911,74.12
0.70577,73.729
0.71457,73.338
0.71945,72.947
0.71945,72.36
0.71652,71.969
0.71065,71.186
0.70283,70.6
0.69208,70.209
0.67937,69.426
0.66373,69.035
0.64516,68.449
0.62561,67.862
0.60411,67.471
0.58162,66.884
0.55816,66.297
0.5347,65.906
0.51417,65.515
0.4956,64.928
0.47605,64.537
0.45846,63.95
0.44184,63.364
0.4262,62.777
0.41349,62.19
0.40176,61.799
0.39198,61.213
0.38319,60.626
0.37634,60.235
0.37048,59.648
0.36559,59.257
0.36168,58.67
0.35777,58.475
0.35386,58.279
0.34995,58.279
0.34604,59.061
0.34213,60.821
0.33822,64.537
0.33431,70.795
0.3304,79.009
0.32649,88.396
0.3216,97.588
0.31769,106.19
0.31476,113.62
0.31183,120.08
0.3089,124.77
0.30499,127.9
0.30108,129.66
0.29814,130.25
0.29423,129.86
0.29032,128.68
0.28739,126.73
0.28348,124.58
0.28055,122.23
0.27664,119.49
0.27468,116.56
0.27273,113.43
0.26979,110.1
0.26686,106.39
0.26393,102.48
0.261,98.37
0.25709,94.068
0.25415,89.961
0.25024,86.245
0.24731,83.116
0.2434,80.378
0.24145,78.227
0.24242,76.662
0.24731,75.293
0.25611,74.511
0.27273,73.729
0.29717,73.533
0.33138,73.142
0.37146,73.142
0.4174,72.947
0.4653,72.947
0.51222,72.947
0.55621,72.947
0.59629,72.751
0.62952,72.751
0.65298,72.555
0.67058,72.36
0.68524,72.164
0.69501,71.773
0.70186,71.382
0.70381,70.991
0.70283,70.404
0.69795,69.818
0.68915,69.231
0.6784,68.84
0.66373,68.253
0.64712,67.666
0.6305,67.08
0.6129,66.688
0.59238,66.102
0.56989,65.711
0.54643,65.124
0.52395,64.733
0.50049,64.146
0.47898,63.755
0.45943,63.168
0.44184,62.777
0.4262,62.19
0.41251,61.604
0.40078,61.213
0.39101,60.626
0.38416,60.235
0.37732,59.648
0.37146,59.257
0.36559,58.67
0.3607,58.279
0.35679,57.888
0.35191,57.497
0.34897,57.301
0.34506,57.497
0.34213,58.083
0.33822,59.844
0.33627,63.364
0.33333,69.231
0.3304,77.445
0.32747,86.441
0.32454,95.632
0.32063,104.04
0.31672,111.47
0.31281,117.93
0.30987,122.62
0.30596,126.14
0.30205,128.1
0.29814,128.68
0.29521,128.49
0.29326,127.12
0.2913,125.36
0.28837,123.01
0.28543,120.67
0.2825,118.12
0.27957,115.19
0.27664,112.26
0.27273,108.74
0.26979,105.22
0.26686,101.11
0.26393,97.001
0.261,92.894
0.25904,88.788
0.25709,85.072
0.25415,81.943
0.25122,79.4
0.24829,77.249
0.24829,75.489
0.2522,74.316
0.261,73.338
0.27859,72.751
0.30401,72.36
0.33724,72.164
0.3783,72.164
0.42424,71.969
0.4653,71.969
0.5044,71.969
0.54545,71.969
0.58456,71.969
0.62072,71.969
0.65005,71.773
0.67351,71.578
0.69208,71.382
0.70381,70.991
0.71065,70.6
0.71359,70.209
0.71163,69.622
0.70674,69.231
0.6999,68.644
0.68915,68.057
0.67644,67.666
0.65982,67.08
0.64125,66.493
0.62072,66.102
0.59922,65.711
0.57576,65.124
0.5523,64.733
0.52884,64.342
0.50635,63.755
0.48485,63.364
0.46725,62.777
0.45161,62.386
0.43695,61.799
0.42326,61.408
0.41153,60.821
0.40078,60.235
0.39101,59.844
0.38319,59.452
0.37634,58.866
0.37048,58.279
0.36559,57.888
0.3607,57.497
0.35777,57.301
0.35484,57.106
0.35191,57.106
0.34897,57.888
0.34604,59.648
0.34213,63.559
0.3392,69.622
0.33529,77.836
0.33236,86.832
0.32845,95.828
0.32454,104.04
0.32063,111.28
0.31672,117.54
0.31476,122.43
0.31183,125.55
0.3089,127.31
0.30596,128.1
0.30303,127.71
0.3001,126.53
0.29619,124.77
0.29326,122.62
0.28935,120.27
0.28641,117.54
0.2825,114.8
0.27957,111.67
0.27761,108.15
0.27566,104.43
0.2737,100.72
0.27077,96.61
0.26784,92.308
0.26491,88.396
0.261,84.681
0.25806,81.552
0.25415,79.009
0.2522,76.858
0.25318,75.293
0.25806,74.12
0.26882,73.338
0.28446,72.751
0.30499,72.36
0.33529,72.164
0.37439,71.969
0.42326,71.969
0.47801,71.969
0.52981,71.969
0.57771,71.969
0.61975,71.969
0.65591,71.773
0.68622,71.773
0.70968,71.578
0.72434,71.186
0.73412,70.991
0.73998,70.6
0.74291,70.013
0.74194,69.622
0.73705,69.035
0.72923,68.449
0.71848,68.057
0.70479,67.471
0.68719,67.08
0.66764,66.493
0.64614,65.906
0.62268,65.515
0.60117,65.124
0.58065,64.537
0.55816,64.146
0.5347,63.755
0.5132,63.168
0.49267,62.582
0.4741,62.19
0.45748,61.604
0.44282,61.017
0.43011,60.626
0.41935,60.039
0.40958,59.648
0.40274,59.257
0.39687,58.67
0.39198,58.279
0.3871,57.692
0.38221,57.301
0.3783,57.106
0.37439,56.91
0.37048,57.106
0.36657,58.083
0.36364,60.235
0.35973,64.537
0.35582,71.382
0.35288,79.987
0.34995,89.374
0.34702,98.566
0.34409,106.78
0.34018,114.02
0.33724,120.08
0.33333,124.77
0.32942,127.71
0.32551,129.47
0.32258,130.05
0.31867,129.47
0.31476,128.29
0.31183,126.53
0.3089,124.38
0.30694,122.03
0.30401,119.49
0.30108,116.56
0.29814,113.43
0.29423,110.1
0.2913,106.39
0.28739,102.67
0.28446,98.37
0.28152,94.263
0.27761,90.157
0.2737,86.441
0.26979,83.116
0.26784,80.574
0.26686,78.227
0.26784,76.662
0.27273,75.293
0.28348,74.316
0.30303,73.533
0.3304,73.142
0.36755,72.947
0.41153,72.751
0.46041,72.555
0.51026,72.555
0.56012,72.555
0.6002,72.555
0.63343,72.555
0.66667,72.555
0.69599,72.36
0.71945,72.164
0.73705,71.969
0.74976,71.578
0.75758,71.186
0.76051,70.795
0.75855,70.404
0.75367,70.013
0.74487,69.426
0.73412,69.035
0.72141,68.449
0.70479,67.862
0.68622,67.471
0.66471,66.884
0.64223,66.493
0.61779,66.102
0.59335,65.711
0.56794,65.124
0.54448,64.733
0.52199,64.342
0.50049,63.755
0.48094,63.168
0.4653,62.777
0.45259,62.19
0.44086,61.799
0.42913,61.408
0.41935,60.821
0.41056,60.43
0.40274,59.844
0.39687,59.452
0.39101,59.061
0.38612,58.67
0.38123,58.279
0.37732,58.279
0.37341,58.475
0.37146,59.648
0.36755,62.19
0.36461,66.884
0.3607,73.924
0.35777,82.921
0.35386,92.308
0.34995,101.3
0.34604,109.52
0.34311,116.75
0.3392,122.43
0.33529,126.73
0.33138,129.47
0.32942,130.83
0.32649,131.23
0.32454,130.44
0.32063,129.07
0.31769,127.31
0.31476,125.16
0.31085,122.82
0.30792,120.47
0.30401,117.73
0.30108,114.8
0.29814,111.47
0.29521,107.95
0.29326,104.24
0.29228,100.13
0.28935,96.024
0.28739,92.112
0.28446,88.396
0.28055,85.267
0.27761,82.529
0.27664,80.378
0.27761,78.618
0.28446,77.249
0.29814,76.467
0.32063,75.685
0.35191,75.293
0.38416,75.098
0.42033,74.902
0.46432,74.902
0.5132,74.902
0.56207,74.902
0.60704,74.902
0.64809,74.902
0.68328,74.707
0.71261,74.707
0.73509,74.316
0.75073,74.12
0.76149,73.729
0.76637,73.338
0.76735,72.751
0.7654,72.164
0.76051,71.773
0.75269,71.186
0.74194,70.6
0.72923,70.013
0.71261,69.426
0.69501,69.035
0.67449,68.449
0.652,68.057
0.62854,67.471
0.60411,67.08
0.58358,66.688
0.56403,66.297
0.5435,65.711
0.52395,65.319
0.50538,64.733
0.48876,64.342
0.47312,63.755
0.46041,63.168
0.44966,62.777
0.43988,62.19
0.43206,61.604
0.4262,61.213
0.42033,60.626
0.41642,60.039
0.41251,59.648
0.4086,59.257
0.40469,59.061
0.40176,59.257
0.39785,60.235
0.39394,62.973
0.39003,68.057
0.3871,75.88
0.38319,85.072
0.37928,95.046
0.37439,104.24
0.37146,112.65
0.36852,119.88
0.36461,125.55
0.36168,129.66
0.35777,132.2
0.35386,133.18
0.34995,133.18
0.34702,132.2
0.34311,130.64
0.34018,128.68
0.33627,126.53
0.33333,123.99
0.3304,121.45
0.32845,118.71
0.32551,115.78
0.3216,112.45
0.31867,108.93
0.31476,105.22
0.31183,101.11
0.30792,97.001
0.30401,92.894
0.3001,88.983
0.29619,85.658
0.29326,82.921
0.2913,80.574
0.29228,78.814
0.29814,77.445
0.3089,76.271
0.32942,75.489
0.35777,75.098
0.39492,74.902
0.43891,74.707
0.48778,74.511
0.53666,74.511
0.58456,74.316
0.62854,74.316
0.66667,74.12
0.69501,73.924
0.71554,73.729
0.73314,73.533
0.74682,73.142
0.75562,72.555
0.76051,72.164
0.76149,71.578
0.75855,70.991
0.75269,70.404
0.74389,69.818
0.73216,69.231
0.71163,68.644
0.68622,68.253
0.66471,67.666
0.64418,67.275
0.62268,66.688
0.59922,66.297
0.57576,65.711
0.55132,65.319
0.52786,64.733
0.50635,64.342
0.48485,63.755
0.46628,63.364
0.44868,62.777
0.43402,62.19
0.42229,61.604
0.41251,61.213
0.40371,60.626
0.39492,60.039
0.3871,59.648
0.38123,59.061
0.37537,58.67
0.3695,58.279
0.36559,57.888
0.3607,57.692
0.35582,57.888
0.35191,58.475
0.348,60.626
0.34409,64.733
0.34115,71.186
0.33724,79.791
0.33333,89.179
0.32845,98.566
0.32454,106.98
0.31867,114.41
0.31378,120.67
0.31085,125.16
0.30694,128.1
0.30303,129.66
0.3001,129.86
0.29717,129.27
0.29521,127.71
0.29228,125.75
0.28935,123.4
0.28641,121.06
0.2825,118.32
0.27859,115.58
0.27566,112.45
0.27175,109.13
0.26784,105.61
0.26491,101.69
0.261,97.588
0.25904,93.481
0.25709,89.57
0.25415,85.854
0.25024,82.725
0.24731,79.987
0.24438,78.031
0.2434,76.271
0.24731,74.902
0.25709,73.924
0.27468,73.338
0.30108,72.947
0.33529,72.751
0.37732,72.555
0.4174,72.36
0.45748,72.36
0.50147,72.36
0.54545,72.164
0.58651,72.164
0.62268,72.164
0.652,71.969
0.67546,71.773
0.69208,71.382
0.70283,70.991
0.70968,70.6
0.71163,70.209
0.70968,69.622
0.70381,69.035
0.69599,68.449
0.68524,67.862
0.67155,67.471
0.65591,66.884
0.63734,66.297
0.61681,65.906
0.59531,65.319
0.57185,64.928
0.54839,64.537
0.52493,63.95
0.50147,63.559
0.48289,63.168
0.46628,62.582
0.44868,61.995
0.43304,61.408
0.41838,61.017
0.40567,60.43
0.39492,59.844
0.38514,59.452
0.37732,59.061
0.3695,58.475
0.36364,58.083
0.35875,57.692
0.35484,57.106
0.35191,56.91
0.348,56.519
0.34506,56.715
0.34115,56.91
0.33822,58.279
0.33431,61.017
0.3304,65.906
0.32649,72.947
0.32258,81.552
0.31867,90.548
0.31476,98.957
0.31085,106.58
0.30792,113.23
0.30499,118.51
0.30205,122.23
0.29912,124.58
0.29521,125.55
0.29228,125.55
0.28837,124.58
0.28543,123.01
0.28152,120.86
0.27859,118.51
0.27468,115.97
0.27175,113.04
0.26882,109.91
0.26784,106.39
0.26491,102.67
0.26197,98.761
0.25904,94.655
0.25611,90.352
0.25318,86.636
0.25024,83.116
0.24633,79.987
0.2434,77.445
0.24047,75.489
0.23851,73.924
0.24047,72.751
0.24633,71.969
0.25709,71.382
0.27468,70.991
0.30108,70.795
0.33627,70.795
0.37732,70.795
0.42326,70.795
0.47116,70.795
0.51808,70.795
0.56109,70.795
0.59922,70.6
0.6305,70.6
0.65396,70.404
0.6696,70.209
0.68328,69.818
0.69306,69.426
0.69795,69.035
0.69892,68.449
0.69599,68.057
0.69013,67.471
0.67937,66.884
0.66667,66.493
0.64516,65.906
0.62366,65.515
0.60704,64.928
0.58944,64.537
0.57087,64.146
0.54936,63.755
0.52688,63.168
0.5044,62.777
0.48289,62.19
0.46334,61.799
0.44477,61.213
0.42815,60.821
0.41447,60.235
0.40176,59.844
0.39101,59.257
0.38319,58.866
0.37732,58.279
0.37146,57.888
0.36559,57.301
0.3607,56.91
0.35679,56.519
0.35288,56.128
0.34897,55.932
0.34604,55.932
0.34213,56.323
0.3392,57.301
0.33627,59.648
0.33333,63.95
0.3304,70.6
0.32747,79.009
0.32454,87.81
0.3216,96.219
0.31769,104.04
0.31378,110.69
0.30987,116.17
0.30694,120.27
0.30303,122.82
0.3001,123.99
0.29619,124.19
0.29326,123.4
0.29032,121.84
0.28837,119.88
0.28641,117.54
0.28348,114.8
0.27957,112.06
0.27664,108.93
0.2737,105.61
0.26979,102.09
0.26686,98.175
0.26393,94.068
0.261,89.961
0.25806,86.05
0.25513,82.529
0.2522,79.4
0.25122,77.054
0.24829,75.098
0.24633,73.533
0.24633,72.36
0.25024,71.382
0.261,70.795
0.27859,70.6
0.31574,70.404
0.35582,70.209
0.38905,70.209
0.43011,70.209
0.46921,70.209
0.50635,70.209
0.54643,70.209
0.58456,70.209
0.61877,70.013
0.64712,69.818
0.6696,69.622
0.68719,69.426
0.69795,69.035
0.70381,68.644
0.70577,68.253
0.70283,67.666
0.69599,67.08
0.68719,66.493
0.67546,66.102
0.66178,65.515
0.64418,65.124
0.62463,64.537
0.60313,64.146
0.58065,63.755
0.55718,63.364
0.53275,62.973
0.51026,62.582
0.48876,61.995
0.46823,61.408
0.45161,61.017
0.435,60.43
0.41838,60.039
0.40665,59.648
0.39883,59.061
0.39589,58.67
0.39589,58.083
0.39296,57.692
0.38807,57.301
0.38416,56.91
0.38025,56.519
0.37634,56.128
0.37243,55.932
0.36852,55.737
0.36559,56.128
0.36364,57.106
0.3607,59.648
0.35679,64.146
0.35191,70.991
0.348,79.4
0.34604,88.396
0.34213,97.001
0.33822,104.63
0.33333,111.47
0.32942,117.14
0.32649,121.25
0.32356,123.99
0.3216,125.36
0.31867,125.75
0.31476,124.97
0.31085,123.6
0.30694,121.64
0.30303,119.49
0.29912,116.75
0.29619,114.02
0.29326,111.08
0.2913,107.76
0.28935,104.24
0.28641,100.33
0.28348,96.415
0.28055,92.112
0.27664,88.201
0.2737,84.485
0.26979,81.356
0.26588,78.814
0.26393,76.662
0.26491,74.902
0.26979,73.533
0.28152,72.555
0.29814,71.969
0.32063,71.578
0.35288,71.382
0.39394,71.186
0.44086,70.991
0.49071,70.991
0.54057,70.991
0.58749,71.186
0.6305,70.991
0.66764,70.991
0.69795,70.991
0.72141,70.795
0.73607,70.6
0.74487,70.209
0.75171,69.818
0.75367,69.426
0.75269,69.035
0.74682,68.449
0.73803,68.057
0.7263,67.471
0.71065,67.08
0.69208,66.493
0.67155,65.906
0.64907,65.515
0.62561,64.928
0.60313,64.537
0.5826,64.146
0.56012,63.755
0.53763,63.168
0.51613,62.777
0.49658,62.19
0.47801,61.799
0.46139,61.213
0.4477,60.626
0.435,60.235
0.42522,59.648
0.41544,59.257
0.4086,58.67
0.40371,58.279
0.39785,57.888
0.39296,57.301
0.38905,56.91
0.38514,56.519
0.38123,56.323
0.37732,56.128
0.37341,56.519
0.37048,57.692
0.36657,60.43
0.36266,65.319
0.35875,72.36
0.35484,80.965
0.35288,90.157
0.34897,98.566
0.34506,106.39
0.34115,113.23
0.33724,118.71
0.33333,122.82
0.3304,125.36
0.32649,126.73
0.32258,126.92
0.31965,126.14
0.31574,124.58
0.31378,122.82
0.31085,120.47
0.30792,117.93
0.30499,115.38
0.30108,112.45
0.29814,109.32
0.29423,106
0.2913,102.28
0.28739,98.37
0.28446,94.263
0.28055,90.352
0.27664,86.441
0.27273,83.116
0.27077,80.183
0.26979,78.031
0.27077,76.076
0.27468,74.707
0.28543,73.533
0.30401,72.751
0.33138,72.36
0.36755,71.969
0.41056,71.773
0.45943,71.773
0.51026,71.773
0.56012,71.773
0.6002,71.773
0.63441,71.969
0.66764,71.969
0.69697,71.969
0.72141,71.773
0.73998,71.578
0.75269,71.382
0.76051,70.991
0.76344,70.6
0.76149,70.209
0.7566,69.818
0.7478,69.231
0.73607,68.84
0.72239,68.253
0.70674,67.862
0.68817,67.275
0.66667,66.884
0.64418,66.297
0.61975,65.906
0.59531,65.515
0.56989,64.928
0.54643,64.537
0.52395,64.146
0.50342,63.755
0.48387,63.168
0.46921,62.777
0.45748,62.19
0.44575,61.799
0.435,61.213
0.42522,60.821
0.4174,60.43
0.41056,59.844
0.40371,59.452
0.39883,59.061
0.39492,58.67
0.39101,58.279
0.3871,58.083
0.38416,58.083
0.38123,58.475
0.3783,59.648
0.37537,62.582
0.37243,67.666
0.3695,75.293
0.36559,84.289
0.36266,93.481
0.35875,102.28
0.35484,110.3
0.35093,117.14
0.348,122.62
0.34409,126.73
0.34213,129.07
0.34018,130.25
0.33724,130.25
0.33431,129.47
0.33138,127.9
0.32845,125.75
0.32551,123.6
0.32258,121.25
0.31965,118.71
0.31574,115.97
0.31281,113.04
0.30987,109.71
0.30694,106.19
0.30596,102.28
0.30401,98.37
0.30205,94.263
0.29912,90.352
0.29619,87.027
0.29326,83.898
0.29228,81.356
0.29326,79.4
0.29912,78.031
0.31183,76.858
0.33333,76.076
0.36364,75.489
0.39589,75.098
0.43206,74.902
0.47605,74.902
0.52493,74.902
0.57478,74.902
0.6217,75.098
0.66373,75.098
0.70088,74.902
0.73021,74.707
0.75367,74.511
0.77028,74.316
0.78201,73.924
0.78788,73.338
0.78983,72.751
0.7869,72.164
0.78201,71.578
0.77322,70.991
0.76246,70.209
0.74878,69.622
0.73216,68.84
0.71359,68.253
0.69306,67.862
0.67058,67.275
0.64712,66.688
0.62268,66.297
0.60117,65.906
0.58162,65.515
0.56109,64.928
0.54057,64.537
0.52199,63.95
0.5044,63.364
0.48974,62.973
0.47703,62.386
0.4653,61.799
0.4565,61.213
0.44868,60.821
0.44184,60.235
0.43597,59.844
0.43109,59.257
0.42717,58.67
0.42326,58.279
0.41935,58.083
0.41447,58.083
0.41056,58.279
0.40665,59.452
0.40176,62.386
0.39785,67.666
0.39296,75.293
0.38807,84.485
0.3783,93.872
0.36755,102.87
0.35973,110.89
0.35386,117.73
0.34897,123.21
0.34409,126.92
0.3392,129.27
0.33529,130.25
0.33138,130.05
0.32747,128.88
0.32356,127.31
0.31965,125.36
0.31574,123.01
0.31183,120.67
0.30987,117.93
0.30596,114.99
0.30205,111.86
0.29912,108.54
0.29521,105.02
0.2913,101.11
0.28739,97.001
0.2825,92.894
0.27859,88.983
0.2737,85.267
0.26979,82.334
0.26784,79.791
0.26784,77.836
0.27175,76.271
0.28152,75.098
0.29814,74.12
0.32258,73.533
0.35582,73.338
0.39589,73.142
0.44086,72.947
0.48778,72.947
0.53372,72.947
0.57674,72.947
0.61388,72.751
0.64223,72.751
0.66276,72.555
0.68133,72.36
0.69501,71.969
0.70479,71.773
0.71065,71.186
0.71163,70.795
0.70968,70.209
0.70381,69.622
0.69501,69.035
0.68426,68.449
0.6696,67.862
0.65396,67.471
0.63734,66.884
0.61975,66.297
0.59922,65.906
0.57771,65.319
0.55523,64.928
0.53177,64.537
0.50929,64.146
0.48876,63.755
0.46823,63.168
0.45064,62.777
0.435,62.19
0.42131,61.799
0.40958,61.213
0.40078,60.626
0.39296,60.039
0.38514,59.648
0.3783,59.061
0.37243,58.67
0.36755,58.279
0.36266,57.888
0.35875,57.301
0.35484,56.91
0.35093,56.715
0.34702,56.715
0.34311,57.106
0.34018,58.279
0.33822,61.213
0.33431,66.102
0.33138,73.533
0.32747,82.334
0.32258,91.525
0.31867,100.13
0.31476,107.95
0.31085,114.41
0.30694,119.69
0.30401,123.4
0.3001,125.75
0.29814,126.73
0.29619,126.73
0.29326,125.55
0.29032,123.99
0.28739,121.84
0.28348,119.3
0.28055,116.75
0.27761,113.82
0.2737,110.69
0.27077,107.17
0.26686,103.65
0.26393,99.739
0.261,95.632
0.25904,91.525
0.25709,87.614
0.25513,83.898
0.2522,80.965
0.24829,78.227
0.24633,76.271
0.24633,74.511
0.25122,73.338
0.26197,72.36
0.27957,71.969
0.30596,71.578
0.34115,71.382
0.37634,71.186
0.41251,71.186
0.45552,71.186
0.50049,71.186
0.5435,71.186
0.58358,71.186
0.61779,71.186
0.64516,70.991
0.66667,70.795
0.68231,70.6
0.69306,70.209
0.69795,69.818
0.69892,69.426
0.69599,68.84
0.69013,68.253
0.68133,67.862
0.6696,67.275
0.65494,66.688
0.63832,66.297
0.61877,65.711
0.59824,65.319
0.57576,64.733
0.55327,64.342
0.52981,63.95
0.50733,63.559
0.48778,62.973
0.47116,62.582
0.45357,61.995
0.43793,61.604
0.42326,61.017
0.41056,60.43
0.3998,60.039
0.39003,59.452
0.38221,59.061
0.37439,58.475
0.36852,58.083
0.36364,57.497
0.35973,57.106
0.35582,56.715
0.35386,56.323
0.35093,55.932
0.348,55.932
0.34409,56.128
0.34115,56.715
0.33822,58.279
0.33431,61.799
0.33138,67.471
0.32747,74.902
0.32356,83.312
0.31965,91.721
0.31769,99.544
0.31476,106.39
0.31281,112.26
0.3089,116.75
0.30596,119.88
0.30303,121.45
0.29912,122.23
0.29619,121.64
0.29228,120.47
0.28935,118.71
0.28641,116.36
0.28348,113.82
0.27957,110.89
0.27761,107.95
0.27566,104.63
0.2737,101.11
0.27077,97.197
0.26784,93.09
0.26491,88.983
0.26197,85.267
0.25806,81.747
0.25513,78.814
0.2522,76.467
0.25024,74.316
0.24927,72.751
0.25024,71.773
0.25611,70.795
0.26686,70.209
0.28446,70.013
0.30987,69.818
0.34409,69.622
0.38319,69.622
0.42717,69.622
0.47214,69.622
0.51711,69.622
0.55816,69.622
0.59433,69.622
0.62463,69.622
0.64614,69.426
0.6608,69.231
0.67351,69.035
0.68133,68.644
0.68524,68.253
0.68524,67.666
0.68231,67.275
0.67449,66.884
0.66373,66.297
0.65005,65.906
0.63343,65.319
0.61486,64.928
0.59726,64.537
0.57869,63.95
0.55816,63.559
0.53568,63.168
0.51417,62.777
0.49267,62.386
0.47312,61.799
0.45455,61.408
0.43793,61.017
0.42424,60.43
0.41153,60.039
0.40078,59.452
0.39198,59.061
0.38612,58.475
0.37928,58.083
0.37439,57.692
0.3695,57.106
0.36461,56.715
0.3607,56.323
0.35777,55.932
0.35386,55.541
0.35093,55.541
0.348,55.541
0.34506,56.128
0.34115,57.888
0.3392,61.213
0.33724,66.884
0.33431,74.511
0.33138,83.116
0.32747,91.917
0.32454,99.739
0.32063,106.98
0.31769,113.04
0.31378,117.93
0.31085,121.06
0.30792,123.01
0.30499,123.79
0.30205,123.4
0.30108,122.23
0.29814,120.47
0.29521,118.32
0.29228,115.97
0.28935,113.23
0.28837,110.3
0.28837,107.17
0.28641,103.85
0.28348,100.13
0.28152,96.024
0.27859,91.917
0.27566,88.005
0.27273,84.289
0.27175,80.965
0.26882,78.227
0.26588,76.076
0.26393,74.316
0.26491,72.947
0.27077,71.969
0.2825,71.382
0.30303,70.795
0.33236,70.6
0.37048,70.6
0.41447,70.404
0.45552,70.404
0.4956,70.404
0.54057,70.404
0.58456,70.404
0.62561,70.404
0.6608,70.404
0.69013,70.209
0.71261,70.013
0.72923,69.818
0.73998,69.426
0.74487,69.035
0.74585,68.644
0.74194,68.253
0.73509,67.666
0.72532,67.275
0.71261,66.688
0.69697,66.102
0.6784,65.711
0.65689,65.319
0.63441,64.733
0.61095,64.342
0.58553,63.95
0.56109,63.559
0.53763,62.973
0.51515,62.582
0.49658,61.995
0.48094,61.604
0.4653,61.213
0.45161,60.626
0.43891,60.039
0.42717,59.648
0.4174,59.257
0.4086,58.67
0.40176,58.279
0.39589,57.692
0.39003,57.301
0.38612,56.91
0.38123,56.519
0.3783,56.128
0.37537,55.932
0.37243,56.323
0.3695,56.91
0.36657,58.866
0.36266,62.777
0.35875,68.84
0.35582,76.662
0.35191,85.463
0.34702,94.068
0.34311,101.89
0.3392,108.93
0.33627,114.8
0.33431,119.3
0.3304,122.43
0.32747,124.19
0.32454,124.77
0.32063,124.38
0.31672,123.21
0.31378,121.45
0.30987,119.49
0.30694,116.95
0.30303,114.6
0.29912,111.67
0.29619,108.74
0.29326,105.41
0.2913,101.69
0.28935,97.979
0.28641,93.872
0.2825,89.961
0.27957,86.05
0.27566,82.725
0.27175,79.791
0.26882,77.445
0.26784,75.489
0.26979,73.924
0.27761,72.947
0.28935,72.164
0.30596,71.578
0.33333,71.186
0.3695,70.991
0.41251,70.795
0.46041,70.795
0.50929,70.795
0.55816,70.795
0.60313,70.6
0.64223,70.6
0.67644,70.6
0.70381,70.6
0.72434,70.209
0.73705,70.013
0.74487,69.622
0.74878,69.231
0.74976,68.84
0.74682,68.449
0.73998,67.862
0.73118,67.471
0.7175,66.884
0.70186,66.297
0.68328,65.906
0.66276,65.515
0.6393,65.124
0.61779,64.733
0.59726,64.342
0.57478,63.95
0.55132,63.364
0.52884,62.973
0.50733,62.582
0.48778,62.19
0.46921,61.604
0.45357,61.213
0.43988,60.821
0.42815,60.43
0.41838,59.844
0.40958,59.452
0.40274,59.061
0.39785,58.67
0.39296,58.279
0.3871,57.692
0.38319,57.301
0.3783,57.106
0.37439,56.91
0.37048,57.301
0.36657,58.279
0.36266,60.626
0.35875,64.928
0.35484,71.578
0.35191,79.987
0.34897,88.983
0.34604,97.784
0.34213,105.61
0.33822,112.65
0.33529,118.51
0.33138,122.82
0.32747,125.75
0.32356,127.31
0.32063,127.51
0.31672,126.92
0.31378,125.55
0.30987,123.79
0.30792,121.64
0.30596,119.49
0.30303,116.75
0.30108,114.21
0.29814,111.28
0.29423,107.95
0.2913,104.43
0.28837,100.72
0.28543,96.806
0.2825,92.894
0.27859,88.983
0.27566,85.658
0.27273,82.725
0.27175,80.378
0.27175,78.422
0.2737,76.858
0.28152,75.685
0.29619,75.098
0.31965,74.511
0.35191,74.12
0.39198,73.924
0.43793,73.729
0.48778,73.729
0.53861,73.729
0.58651,73.924
0.62561,73.924
0.65689,73.729
0.68719,73.729
0.71359,73.533
0.73412,73.338
0.74976,73.142
0.75953,72.751
0.76442,72.36
0.7654,71.969
0.76149,71.382
0.75464,70.991
0.74487,70.404
0.73314,69.818
0.71945,69.426
0.70283,68.84
0.68328,68.449
0.66276,68.057
0.6393,67.471
0.61584,67.08
0.59238,66.688
0.56891,66.102
0.54741,65.711
0.52688,65.124
0.50733,64.537
0.49267,64.146
0.47996,63.559
0.46725,63.168
0.4565,62.777
0.44673,62.19
0.43793,61.799
0.43109,61.408
0.42522,60.821
0.42033,60.43
0.41544,60.039
0.41153,59.648
0.40762,59.452
0.40469,59.452
0.40176,60.039
0.3998,61.799
0.39687,65.515
0.39296,71.578
0.38905,79.791
0.38612,88.983
0.38221,97.979
0.3783,106.39
0.37439,114.02
0.37048,120.27
0.36755,124.97
0.36364,128.29
0.3607,130.05
0.35875,130.64
0.35582,130.25
0.35288,129.07
0.34995,127.31
0.34604,125.55
0.34311,123.4
0.3392,121.06
0.33627,118.71
0.33236,115.97
0.32942,113.04
0.32551,109.91
0.32258,106.19
0.32063,102.48
0.31867,98.37
0.31574,94.459
0.31281,90.548
0.3089,87.223
0.30596,84.289
0.30401,81.747
0.30499,79.791
0.31085,78.227
0.32454,77.054
0.34506,76.076
0.37537,75.489
0.40371,75.098
0.43206,74.902
0.47214,74.902
0.51711,74.707
0.56305,74.707
0.60606,74.511
0.64516,74.511
0.67742,74.316
0.70479,74.12
0.72532,73.924
0.73998,73.533
0.74976,73.142
0.75464,72.751
0.75464,72.164
0.75171,71.578
0.74682,70.991
0.73803,70.6
0.72727,70.013
0.71457,69.426
0.69795,68.84
0.68035,68.253
0.65982,67.862
0.63734,67.471
0.61486,66.884
0.59042,66.493
0.56891,65.906
0.54936,65.515
0.52884,64.928
0.50831,64.537
0.48974,63.95
0.47214,63.364
0.4565,62.777
0.44282,62.19
0.43109,61.604
0.42033,61.213
0.41153,60.626
0.40371,60.235
0.39687,59.844
0.39101,59.257
0.3871,58.866
0.38221,58.475
0.37732,58.279
0.37341,58.279
0.36852,59.061
0.36364,60.821
0.35875,64.537
0.35484,70.6
0.34995,79.009
0.34506,88.396
0.34018,97.784
0.33724,106.39
0.33333,114.02
0.32942,120.47
0.32551,125.36
0.3216,128.68
0.31769,130.44
0.31378,131.03
0.3089,130.64
0.30499,129.47
0.30108,127.71
0.29717,125.55
0.29326,123.4
0.28935,120.86
0.28641,118.12
0.28446,115.19
0.28152,112.06
0.27761,108.74
0.27468,105.02
0.27077,101.11
0.26686,96.806
0.26295,92.894
0.25904,88.983
0.25513,85.658
0.2522,82.725
0.25024,80.378
0.25122,78.422
0.25611,76.858
0.26686,75.685
0.28446,74.902
0.31183,74.316
0.348,73.924
0.39198,73.729
0.43988,73.533
0.48974,73.533
0.53861,73.533
0.58358,73.533
0.62366,73.338
0.65689,73.338
0.68133,73.142
0.69795,72.947
0.71163,72.751
0.72141,72.36
0.72727,71.969
0.72923,71.578
0.7263,70.991
0.72141,70.6
0.71261,70.013
0.70088,69.426
0.68719,68.84
0.6696,68.449
0.65298,67.862
0.63441,67.275
0.61388,66.884
0.59042,66.297
0.56696,65.906
0.54252,65.319
0.51906,64.928
0.49756,64.342
0.47605,63.755
0.45748,63.364
0.44086,62.777
0.42522,62.19
0.41251,61.604
0.40274,61.213
0.39492,60.626
0.3871,60.039
0.37928,59.648
0.37341,59.257
0.36755,58.67
0.36266,58.279
0.35777,57.888
0.35386,57.692
0.34995,57.888
0.34604,58.279
0.34213,59.452
0.3392,62.19
0.33627,67.275
0.33333,74.316
0.32942,82.921
0.32551,91.917
0.3216,100.13
0.31769,107.76
0.31378,114.21
0.30987,119.49
0.30596,123.01
0.30205,125.36
0.29814,126.34
0.29521,126.14
0.29228,125.16
0.29032,123.6
0.28739,121.64
0.28446,119.3
0.28152,116.75
0.27761,114.02
0.27468,111.08
0.27077,107.76
0.26686,104.24
0.26393,100.33
0.26002,96.219
0.25709,92.112
0.25415,88.201
0.25318,84.681
0.25024,81.552
0.24731,79.009
0.24438,77.054
0.24438,75.489
0.24731,74.316
0.25611,73.533
0.27175,72.947
0.29717,72.555
0.3304,72.164
0.37048,72.164
0.40958,72.164
0.4477,72.164
0.49169,72.164
0.53568,71.969
0.57771,71.969
0.61388,71.969
0.64418,71.773
0.66862,71.578
0.68622,71.186
0.69892,70.991
0.70577,70.6
0.70772,70.209
0.70577,69.622
0.70088,69.231
0.69306,68.644
0.68231,68.253
0.66862,67.666
0.652,67.275
0.63245,66.688
0.61193,66.297
0.58944,65.906
0.56598,65.515
0.54154,64.928
0.51808,64.537
0.4956,64.146
0.47703,63.559
0.46041,63.168
0.44477,62.582
0.42913,62.19
0.41544,61.604
0.40371,61.017
0.39394,60.626
0.38514,60.039
0.37732,59.648
0.37048,59.061
0.36559,58.67
0.3607,58.279
0.35582,57.692
0.35288,57.301
0.34995,57.106
0.34702,57.301
0.34409,57.692
0.34115,59.061
0.33822,61.799
0.33431,66.688
0.33138,73.924
0.32747,82.529
0.32454,91.525
0.32063,99.739
0.31672,107.37
0.31378,113.82
0.31183,119.1
0.3089,122.82
0.30596,124.97
0.30303,126.14
0.3001,125.95
0.29619,125.16
0.29326,123.6
0.29032,121.64
0.28739,119.49
0.28348,116.95
0.28055,114.21
0.27664,111.28
0.27468,107.95
0.27273,104.43
0.26979,100.52
0.26686,96.61
0.26393,92.503
0.261,88.592
0.25709,85.072
0.25415,81.943
0.25122,79.4
0.24829,77.249
0.24829,75.685
0.25318,74.511
0.26002,73.533
0.2737,72.947
0.29521,72.555
0.32551,72.164
0.36364,72.164
0.4086,72.164
0.4565,71.969
0.50538,71.969
0.55132,71.969
0.59335,71.773
0.6305,71.773
0.6608,71.773
0.68426,71.578
0.6999,71.186
0.7087,70.991
0.71554,70.6
0.71848,70.209
0.71848,69.818
0.71457,69.231
0.70479,68.84
0.69013,68.253
0.67546,67.666
0.65787,67.08
0.63832,66.688
0.61779,66.297
0.59726,65.711
0.57771,65.319
0.55621,64.928
0.5347,64.537
0.51222,63.95
0.49169,63.364
0.47214,62.973
0.45455,62.582
0.43988,61.995
0.4262,61.408
0.41447,61.017
0.40469,60.43
0.39589,59.844
0.38905,59.452
0.38319,59.061
0.3783,58.475
0.37341,58.083
0.3695,57.692
0.36461,57.301
0.36168,57.106
0.35777,57.106
0.35386,57.301
0.35093,58.475
0.34702,61.017
0.34409,65.711
0.34115,72.555
0.33822,81.16
0.33529,90.157
0.33236,98.566
0.32845,106.39
0.32551,113.04
0.3216,118.51
0.31769,122.43
0.31476,125.16
0.31085,126.53
0.30792,126.73
0.30401,125.95
0.30108,124.38
0.29912,122.62
0.29717,120.47
0.29423,117.93
0.2913,115.38
0.28837,112.45
0.28446,109.32
0.28152,105.8
0.27859,102.09
0.27566,98.175
0.27175,94.068
0.26882,90.157
0.26588,86.245
0.26295,83.116
0.261,80.378
0.25904,78.227
0.25806,76.467
0.26002,75.098
0.26686,74.12
0.28055,73.533
0.30205,73.142
0.33236,72.947
0.37048,72.751
0.41349,72.751
0.46041,72.751
0.50831,72.751
0.54839,72.751
0.58162,72.947
0.61584,72.947
0.64614,72.751
0.67155,72.751
0.6911,72.555
0.70577,72.164
0.71457,71.969
0.71848,71.578
0.71848,70.991
0.71457,70.6
0.70772,70.013
0.69795,69.622
0.68622,69.035
0.67155,68.644
0.65396,68.057
0.63441,67.666
0.6129,67.275
0.59042,66.688
0.56696,66.297
0.5435,65.906
0.52102,65.515
0.50049,65.124
0.48094,64.537
0.46237,64.146
0.44868,63.755
0.43695,63.168
0.42522,62.777
0.41544,62.19
0.40665,61.799
0.39883,61.408
0.39296,60.821
0.3871,60.43
0.38221,59.844
0.3783,59.452
0.37439,59.257
0.37146,59.061
0.36852,59.061
0.36657,59.648
0.36461,61.213
0.36168,64.537
0.35875,70.404
0.35582,78.227
0.35191,87.419
0.34897,96.415
0.34506,105.02
0.34213,112.65
0.3392,119.1
0.33627,124.19
0.33333,127.71
0.3304,129.66
0.32942,130.64
0.32649,130.44
0.32454,129.66
0.3216,128.1
0.31867,126.14
0.31574,123.99
0.31378,121.64
0.31085,119.1
0.30792,116.36
0.30499,113.23
0.30303,110.1
0.30108,106.39
0.3001,102.67
0.29814,98.566
0.29521,94.655
0.29228,90.743
0.28935,87.223
0.28641,84.289
0.28543,81.943
0.28543,79.987
0.29032,78.618
0.30108,77.445
0.31965,76.662
0.34213,76.271
0.3695,75.88
0.40567,75.685
0.44868,75.685
0.4956,75.685
0.54252,75.88
0.58847,75.88
0.62854,75.88
0.66373,75.685
0.69306,75.489
0.71652,75.098
0.73314,74.902
0.74487,74.511
0.75073,73.924
0.75171,73.338
0.75073,72.555
0.74682,71.969
0.73998,71.186
0.73021,70.6
0.7175,70.013
0.70283,69.622
0.68524,69.035
0.66569,68.644
0.64516,68.057
0.62268,67.471
0.60215,67.08
0.5826,66.688
0.56109,66.297
0.54057,65.711
0.52004,65.124
0.50147,64.537
0.48485,63.95
0.47019,63.364
0.45748,62.973
0.44673,62.386
0.43695,61.799
0.42913,61.213
0.42326,60.821
0.4174,60.235
0.41349,59.648
0.40958,59.257
0.40567,58.866
0.40176,58.67
0.39785,58.67
0.39296,59.452
0.38905,61.408
0.38514,65.515
0.38025,72.164
0.37537,80.769
0.37146,90.157
0.36755,99.544
0.36364,107.95
0.35973,115.38
0.35484,121.64
0.35093,126.34
0.34702,129.27
0.34213,130.83
0.33822,131.42
0.33431,130.83
0.32942,129.66
0.32551,127.9
0.3216,125.75
0.31769,123.6
0.31378,121.06
0.31183,118.51
0.30792,115.78
0.30401,112.65
0.3001,109.13
0.29619,105.41
0.2913,101.5
0.28739,97.393
0.28348,93.286
0.27859,89.374
0.27468,85.854
0.27077,82.921
0.26882,80.574
0.26979,78.422
0.2737,76.858
0.28348,75.88
0.30108,75.098
0.32747,74.511
0.36168,74.12
0.40274,73.924
0.44868,73.729
0.49658,73.729
0.5435,73.729
0.58651,73.729
0.62463,73.729
0.65298,73.533
0.67351,73.338
0.69208,73.142
0.70674,72.947
0.71652,72.555
0.72239,72.164
0.72336,71.773
0.72141,71.186
0.71652,70.6
0.70772,70.013
0.69697,69.426
0.68328,69.035
0.66862,68.449
0.65298,67.862
0.63343,67.471
0.6129,66.884
0.59042,66.297
0.56794,65.906
0.54448,65.515
0.52102,64.928
0.49951,64.537
0.47898,63.95
0.45943,63.364
0.44282,62.973
0.42815,62.386
0.41544,61.799
0.40371,61.213
0.39296,60.821
0.38416,60.235
0.37732,59.844
0.37048,59.257
0.36559,58.866
0.3607,58.279
0.35679,58.083
0.35288,57.692
0.34897,57.692
0.34506,58.279
0.34213,59.452
0.34018,62.582
0.33724,67.666
0.33333,75.293
0.32942,84.289
0.32551,93.481
0.3216,102.28
0.31769,110.1
0.31378,116.95
0.31085,122.23
0.30694,125.95
0.30303,128.1
0.29912,129.07
0.29619,129.07
0.29423,128.1
0.29228,126.53
0.28837,124.38
0.28543,122.23
0.2825,119.69
0.27859,116.95
0.27468,114.02
0.27175,110.89
0.26784,107.37
0.26491,103.65
0.26197,99.544
0.25904,95.632
0.25806,91.525
0.25513,87.81
0.2522,84.289
0.24829,81.552
0.24536,79.009
0.24438,77.054
0.24731,75.685
0.25513,74.511
0.27077,73.729
0.29423,73.338
0.32747,72.947
0.36755,72.555
0.40567,72.555
0.44477,72.36
0.48876,72.36
0.53372,72.36
0.57478,72.36
0.61193,72.164
0.64321,72.164
0.66764,71.969
0.68622,71.773
0.69892,71.382
0.70674,70.991
0.70968,70.6
0.7087,70.209
0.70381,69.622
0.69697,69.035
0.68719,68.644
0.67449,68.057
0.65885,67.471
0.64125,66.884
0.6217,66.493
0.6002,65.906
0.57771,65.515
0.55425,65.124
0.53079,64.537
0.50831,64.146
0.48876,63.755
0.47116,63.168
0.45357,62.777
0.43695,62.19
0.42229,61.604
0.4086,61.213
0.39687,60.626
0.3871,60.235
0.3783,59.648
0.37146,59.257
0.36461,58.67
0.35973,58.279
0.35582,57.888
0.35288,57.497
0.34897,57.106
0.34604,57.106
0.34311,57.301
0.3392,58.279
0.33627,60.235
0.33236,64.342
0.32942,70.6
0.32551,78.618
0.3216,87.419
0.31769,95.828
0.31378,103.65
0.31183,110.3
0.3089,115.97
0.30596,120.27
0.30303,123.01
0.3001,124.38
0.29619,124.77
0.29326,124.19
0.28935,122.82
0.28641,120.86
0.28348,118.71
0.27957,116.17
0.27664,113.43
0.27468,110.5
0.27273,107.37
0.26979,103.85
0.26686,99.935
0.26393,96.024
0.261,91.917
0.25806,88.005
0.25513,84.289
0.2522,81.16
0.24829,78.422
0.24536,76.271
0.24438,74.511
0.24536,73.142
0.25024,72.164
0.26002,71.382
0.27761,70.991
0.30205,70.795
0.33529,70.6
0.37537,70.6
0.42033,70.6
0.46725,70.6
0.5132,70.6
0.55621,70.6
0.59335,70.6
0.62561,70.404
0.64907,70.404
0.66471,70.209
0.6784,69.818
0.68817,69.426
0.69306,69.035
0.69404,68.644
0.69208,68.253
0.68622,67.666
0.67644,67.08
0.66373,66.688
0.64809,66.102
0.6305,65.711
0.6129,65.124
0.59433,64.733
0.57283,64.342
0.55034,63.755
0.52688,63.364
0.5044,62.973
0.48289,62.386
0.46237,61.799
0.44379,61.408
0.42815,60.821
0.41349,60.43
0.40078,59.844
0.39003,59.452
0.38221,58.866
0.37537,58.475
0.3695,58.083
0.36364,57.692
0.35875,57.106
0.35484,56.715
0.35093,56.323
0.34702,56.128
0.34409,55.932
0.34115,56.323
0.33822,57.301
0.33529,59.648
0.33236,63.95
0.3304,70.6
0.32845,79.009
0.32454,87.81
0.3216,96.415
0.31769,104.04
0.31476,110.89
0.31085,116.36
0.30792,120.47
0.30401,123.21
0.30108,124.58
0.29717,124.97
0.29423,124.38
0.2913,123.01
0.28935,121.06
0.28739,118.9
0.28446,116.56
0.28055,113.82
0.27761,111.08
0.27468,107.95
0.27175,104.43
0.26784,100.72
0.26491,96.61
0.26197,92.699
0.25904,88.592
0.25611,85.072
0.25415,81.747
0.25122,79.205
0.24829,76.858
0.24731,75.098
0.24731,73.924
0.25318,72.947
0.26491,72.164
0.28446,71.969
0.31281,71.773
0.34897,71.578
0.39198,71.578
0.43891,71.578
0.47996,71.773
0.51808,71.773
0.55816,71.773
0.59629,71.773
0.62952,71.773
0.65787,71.578
0.67937,71.382
0.69501,71.186
0.70577,70.795
0.71065,70.404
0.71163,70.013
0.7087,69.426
0.70283,69.035
0.69404,68.449
0.68231,68.057
0.66764,67.471
0.65103,67.08
0.63148,66.688
0.60997,66.297
0.58651,65.906
0.56305,65.319
0.53959,64.928
0.51711,64.537
0.4956,64.146
0.47507,63.559
0.45846,63.168
0.44477,62.582
0.43206,62.19
0.41935,61.604
0.4086,61.213
0.3998,60.821
0.39198,60.235
0.38514,59.844
0.37928,59.452
0.37537,59.061
0.37048,58.67
0.36755,58.279
0.36461,58.083
0.36168,58.083
0.35973,58.67
0.35679,60.039
0.35386,63.364
0.35093,69.035
0.348,76.662
0.348,85.658
0.34897,94.655
0.348,102.87
0.34604,110.5
0.34311,116.95
0.34018,122.03
0.33822,125.55
0.33627,127.51
0.33333,128.29
0.3304,128.1
0.32845,127.12
0.32551,125.55
0.32258,123.79
0.31965,121.64
0.31672,119.3
0.31378,116.75
0.31085,114.02
0.30792,111.08
0.30596,107.76
0.30401,104.24
0.30205,100.33
0.3001,96.415
0.29717,92.503
0.29423,88.788
0.2913,85.658
0.28837,82.725
0.28641,80.574
0.28641,78.814
0.29032,77.445
0.3001,76.271
0.31769,75.685
0.34018,75.098
0.36657,74.902
0.40371,74.902
0.44868,74.902
0.49756,74.902
0.54741,74.902
0.59531,74.707
0.6393,74.707
0.67742,74.511
0.70968,74.316
0.73412,74.12
0.75269,73.533
0.76442,73.142
0.77028,72.555
0.77322,71.969
0.77322,71.382
0.76931,70.795
0.76344,70.013
0.75367,69.426
0.74096,69.035
0.72532,68.449
0.70772,68.057
0.68719,67.471
0.66569,67.08
0.64223,66.688
0.62072,66.297
0.6002,65.906
0.57771,65.515
0.55621,64.928
0.53568,64.342
0.51613,63.755
0.49853,63.168
0.48289,62.777
0.47019,61.995
0.45846,61.408
0.44868,60.821
0.43988,60.43
0.43402,59.844
0.42815,59.452
0.42326,58.866
0.41935,58.475
0.41447,58.083
0.40958,57.888
0.40567,58.083
0.40078,58.67
0.39687,61.017
0.39198,65.319
0.38807,72.164
0.38319,80.769
0.3783,90.352
0.37537,99.348
0.37048,107.76
0.36559,115.19
0.36168,121.25
0.35679,125.55
0.35191,128.49
0.348,130.05
0.34311,130.25
0.3392,129.66
0.33529,128.29
0.33138,126.34
0.32649,124.19
0.32356,121.84
0.32063,119.49
0.31672,116.75
0.31281,113.82
0.30792,110.5
0.30401,107.17
0.29912,103.26
0.29521,99.348
0.29032,95.241
0.28543,91.134
0.28055,87.419
0.27566,84.094
0.27273,81.356
0.27077,79.009
0.27077,77.249
0.2737,75.88
0.28348,74.902
0.30108,74.12
0.32845,73.729
0.36461,73.533
0.4086,73.338
0.45748,73.142
0.50831,73.142
0.55816,73.142
0.60411,72.947
0.64027,72.947
0.66764,72.751
0.69404,72.555
0.71554,72.36
0.73216,72.164
0.74291,71.773
0.74878,71.186
0.74976,70.795
0.7478,70.209
0.74194,69.622
0.73314,69.035
0.72141,68.644
0.70772,68.057
0.69306,67.471
0.67546,66.884
0.65494,66.493
0.63245,65.906
0.60802,65.515
0.58358,65.124
0.55914,64.537
0.5347,64.146
0.51124,63.559
0.48974,63.168
0.47019,62.582
0.45357,61.995
0.43988,61.408
0.42815,61.017
0.4174,60.43
0.40762,59.844
0.39883,59.452
0.39101,59.061
0.38514,58.475
0.37928,58.083
0.37439,57.692
0.37048,57.301
0.36657,57.106
0.36266,57.106
0.35875,57.692
0.35679,59.452
0.35288,62.973
0.34897,68.84
0.34506,76.662
0.34115,85.854
0.33627,94.655
0.33236,102.87
0.32747,110.3
0.32356,116.36
0.31965,121.06
0.31574,124.19
0.31183,125.75
0.3089,126.34
0.30694,125.95
0.30401,124.58
0.3001,122.82
0.29717,120.67
0.29326,118.12
0.28935,115.58
0.28641,112.65
0.2825,109.71
0.27859,106.39
0.27468,102.67
0.27175,98.957
0.26882,94.85
0.26784,90.743
0.26491,86.832
0.261,83.507
0.25806,80.574
0.25415,78.031
0.25122,76.076
0.25024,74.511
0.25318,73.533
0.26295,72.555
0.27957,71.969
0.30596,71.578
0.34115,71.382
0.37732,71.382
0.41544,71.186
0.46139,71.186
0.50929,71.186
0.55621,71.186
0.6002,70.991
0.63734,70.991
0.66862,70.795
0.69306,70.6
0.71163,70.404
0.72336,70.013
0.73021,69.622
0.73118,69.231
0.72923,68.84
0.72434,68.253
0.71554,67.666
0.70479,67.275
0.69013,66.688
0.67351,66.102
0.65396,65.711
0.63148,65.124
0.60899,64.733
0.58456,64.342
0.55914,63.95
0.5347,63.364
0.51417,62.973
0.4956,62.386
0.47605,61.995
0.45846,61.408
0.44184,61.017
0.42815,60.43
0.41544,59.844
0.40371,59.452
0.39492,58.866
0.3871,58.475
0.37928,58.083
0.37341,57.497
0.3695,57.106
0.36657,56.715
0.36266,56.323
0.35973,56.128
0.35582,56.128
0.35288,56.715
0.34897,58.083
0.34604,61.017
0.34213,66.102
0.33822,73.338
0.33431,81.943
0.3304,90.548
0.32649,98.566
0.32356,105.8
0.3216,112.26
0.31867,117.14
0.31476,120.67
0.31183,122.82
0.30792,123.79
0.30499,123.6
0.30108,122.62
0.29814,120.86
0.29423,118.9
0.2913,116.36
0.28837,113.82
0.28543,111.08
0.28348,107.95
0.28152,104.43
0.27859,100.72
0.27566,96.806
0.27273,92.699
0.26882,88.592
0.26588,84.681
0.26295,81.356
0.25904,78.618
0.25611,76.271
0.25318,74.511
0.2522,72.947
0.25513,71.969
0.261,71.186
0.27273,70.795
0.29228,70.404
0.31965,70.404
0.35582,70.209
0.39785,70.404
0.44282,70.404
0.48974,70.404
0.53568,70.404
0.57771,70.404
0.61388,70.209
0.64125,70.209
0.6608,70.013
0.6784,69.622
0.69208,69.426
0.70088,69.035
0.70479,68.644
0.70479,68.057
0.70186,67.666
0.69404,67.08
0.68426,66.688
0.67058,66.297
0.65396,65.711
0.63441,65.319
0.61584,64.928
0.59629,64.537
0.57478,63.95
0.5523,63.559
0.52981,62.973
0.50733,62.582
0.48583,61.995
0.46628,61.604
0.44966,61.213
0.43402,60.626
0.42033,60.039
0.4086,59.452
0.3998,59.061
0.39296,58.475
0.3871,58.083
0.38123,57.692
0.37537,57.106
0.37146,56.715
0.36755,56.323
0.36364,55.932
0.3607,55.932
0.35679,55.932
0.35386,56.715
0.35093,58.279
0.348,61.799
0.34604,67.471
0.34311,75.098
0.34018,83.703
0.33627,92.308
0.33333,100.13
0.32942,107.17
0.32649,113.23
0.32258,117.93
0.31965,121.06
0.31672,122.82
0.31378,123.6
0.30987,123.21
0.30792,122.03
0.30596,120.27
0.30303,118.12
0.3001,115.78
0.29717,113.23
0.29423,110.3
0.29032,107.17
0.28739,103.65
0.28348,99.935
0.28055,96.024
0.27761,91.917
0.2737,87.81
0.27175,84.289
0.26979,80.965
0.26686,78.227
0.26393,75.88
0.261,74.12
0.26002,72.751
0.26197,71.773
0.26979,71.186
0.28446,70.6
0.30792,70.404
0.3392,70.209
0.3783,70.209
0.42229,70.209
0.46237,70.404
0.50049,70.404
0.54252,70.404
0.5826,70.404
0.61877,70.209
0.64907,70.209
0.67449,70.013
0.69306,69.622
0.70577,69.426
0.71359,69.035
0.7175,68.644
0.71554,68.057
0.71163,67.666
0.70381,67.08
0.69306,66.688
0.67937,66.102
0.66276,65.711
0.64418,65.319
0.62366,64.733
0.60117,64.342
0.57771,63.95
0.55425,63.364
0.53079,62.973
0.50831,62.582
0.48778,61.995
0.47116,61.604
0.4565,61.017
0.44184,60.626
0.42913,60.039
0.4174,59.648
0.40762,59.257
0.39883,58.67
0.39101,58.279
0.38514,57.692
0.37928,57.301
0.37537,56.91
0.37146,56.519
0.36852,56.323
0.36559,56.323
0.36266,56.715
0.35973,57.888
0.35679,60.626
0.35386,65.711
0.34995,72.947
0.34702,81.356
0.34311,90.352
0.3392,98.761
0.33529,106.39
0.33236,113.04
0.32845,118.32
0.32551,122.23
0.32356,124.77
0.32063,125.95
0.31769,126.14
0.31476,125.36
0.31183,123.99
0.3089,122.03
0.30596,119.88
0.30205,117.34
0.29912,114.6
0.29521,111.67
0.29228,108.54
0.28935,105.02
0.28739,101.11
0.28543,97.197
0.2825,93.09
0.27957,89.179
0.27566,85.463
0.27273,82.138
0.26882,79.596
0.26588,77.249
0.26393,75.489
0.26588,74.12
0.27273,73.142
0.28641,72.36
0.30303,71.969
0.32649,71.773
0.35875,71.773
0.3998,71.578
0.44477,71.578
0.49267,71.578
0.54057,71.578
0.58456,71.578
0.62366,71.578
0.65689,71.578
0.68426,71.382
0.70577,70.991
0.71945,70.795
0.7263,70.404
0.73118,70.013
0.73314,69.426
0.73118,69.035
0.72532,68.449
0.71652,67.862
0.70381,67.471
0.68915,66.884
0.67155,66.493
0.652,65.906
0.6305,65.515
0.60704,65.124
0.58553,64.537
0.56598,64.146
0.5435,63.755
0.52199,63.168
0.50147,62.777
0.48192,62.19
0.46432,61.604
0.44868,61.017
0.435,60.626
0.42424,60.039
0.41349,59.648
0.40567,59.061
0.39883,58.67
0.39394,58.279
0.38905,57.692
0.38416,57.301
0.38025,57.106
0.37634,56.91
0.37243,57.106
0.36852,58.083
0.36559,60.235
0.36168,64.537
0.35777,70.991
0.35386,79.4
0.34995,88.592
0.34702,97.393
0.34409,105.61
0.34115,112.84
0.33724,118.71
0.33333,123.21
0.32942,126.34
0.32649,127.9
0.32258,128.49
0.31867,127.9
0.31574,126.73
0.31183,124.97
0.30792,122.82
0.30596,120.67
0.30401,118.12
0.30108,115.38
0.29717,112.65
0.29423,109.32
0.29032,105.8
0.28739,102.09
0.28446,98.175
0.28055,94.263
0.27761,90.352
0.2737,86.832
0.26979,83.703
0.26686,81.16
0.26491,79.009
0.26588,77.445
0.26979,76.076
0.27859,75.293
0.29423,74.707
0.31867,74.316
0.35191,74.12
0.39394,73.924
0.44184,73.924
0.49169,73.924
0.54154,73.924
0.58847,73.924
0.62561,73.924
0.65591,73.729
0.68426,73.729
0.70772,73.533
0.7263,73.338
0.73998,72.947
0.74878,72.555
0.75171,72.164
0.75171,71.578
0.7478,71.186
0.73998,70.6
0.72923,70.209
0.71554,69.622
0.70088,69.035
0.68524,68.644
0.66569,68.057
0.64418,67.666
0.6217,67.275
0.59824,66.688
0.57478,66.297
0.55132,65.711
0.52884,65.319
0.50831,64.733
0.48974,64.342
0.47312,63.755
0.46041,63.168
0.44868,62.777
0.43891,62.19
0.43011,61.799
0.42131,61.408
0.41447,61.017
0.4086,60.43
0.40371,60.039
0.3998,59.844
0.39589,59.452
0.39198,59.648
0.38905,60.235
0.38612,61.995
0.38319,65.515
0.38025,71.578
0.37732,79.791
0.37439,89.179
0.37048,98.37
0.36755,106.98
0.36364,114.8
0.35973,121.25
0.35582,126.14
0.35191,129.47
0.34897,131.42
0.34506,132.01
0.34311,131.62
0.34018,130.44
0.33822,128.88
0.33529,126.92
0.33138,124.58
0.32845,122.23
0.32551,119.69
0.32258,116.95
0.31867,113.82
0.31574,110.5
0.31281,106.98
0.30987,102.87
0.30792,98.957
0.30596,94.655
0.30303,90.743
0.3001,87.419
0.29717,84.289
0.29423,81.943
0.29326,79.987
0.29521,78.422
0.30401,77.445
0.31867,76.662
0.34311,76.076
0.37537,75.685
0.41544,75.685
0.45455,75.489
0.49365,75.489
0.53763,75.489
0.58358,75.489
0.62561,75.489
0.66373,75.293
0.69599,75.098
0.72141,74.707
0.74096,74.316
0.75367,73.729
0.76246,73.338
0.7654,72.751
0.76442,72.164
0.76051,71.578
0.75367,70.991
0.74487,70.404
0.73314,69.818
0.71848,69.231
0.70186,68.644
0.68231,68.057
0.66178,67.666
0.6393,67.275
0.61584,66.688
0.5914,66.297
0.56794,65.711
0.54741,65.319
0.52884,64.733
0.51026,64.146
0.49267,63.559
0.47703,62.973
0.46237,62.582
0.44966,61.995
0.43891,61.408
0.43011,60.821
0.42229,60.43
0.41544,59.844
0.40958,59.452
0.40469,59.061
0.3998,58.67
0.39589,58.475
0.39101,58.67
0.38612,59.648
0.38123,61.995
0.37634,66.297
0.37146,73.338
0.36657,81.943
0.36168,91.33
0.35679,100.33
0.35191,108.74
0.34702,115.97
0.34311,121.84
0.3392,125.95
0.33529,128.68
0.33138,129.86
0.32649,130.05
0.32258,129.27
0.31867,127.71
0.31476,125.75
0.31085,123.6
0.30694,121.06
0.30303,118.51
0.29814,115.58
0.29521,112.65
0.29326,109.13
0.28935,105.61
0.28543,101.69
0.28152,97.588
0.27761,93.481
0.2737,89.374
0.26979,85.854
0.26491,82.921
0.261,80.378
0.25904,78.227
0.25806,76.662
0.26295,75.489
0.27077,74.707
0.28543,74.12
0.30792,73.729
0.34018,73.533
0.38025,73.533
0.4262,73.533
0.47507,73.338
0.52395,73.338
0.56891,73.338
0.60997,73.338
0.64516,73.142
0.67351,72.947
0.69306,72.751
0.70577,72.36
0.71554,71.969
0.72141,71.578
0.72336,70.991
0.72239,70.6
0.7175,70.013
0.7087,69.426
0.69795,68.84
0.68426,68.253
0.66764,67.862
0.64809,67.275
0.62757,66.884
0.60704,66.297
0.58749,65.906
0.565,65.319
0.54252,64.928
0.51906,64.342
0.49756,63.95
0.47703,63.364
0.45846,62.777
0.44184,62.19
0.42815,61.604
0.41544,61.017
0.40469,60.626
0.39687,60.039
0.39003,59.648
0.38416,59.061
0.3783,58.67
0.37341,58.279
0.3695,57.888
0.36559,57.692
0.36168,57.497
0.35777,57.888
0.35484,58.67
0.35093,60.821
0.34702,64.928
0.34311,71.382
0.34018,79.4
0.33822,88.396
0.33431,97.001
0.3304,105.02
0.32649,112.06
0.32258,117.93
0.31867,122.03
0.31476,124.77
0.31085,126.14
0.30694,126.34
0.30401,125.55
0.3001,124.19
0.29814,122.23
0.29619,119.88
0.29326,117.34
0.28935,114.41
0.28641,111.47
0.2825,108.15
0.27957,104.43
0.27566,100.52
0.27273,96.415
0.26882,92.112
0.26588,88.201
0.26295,84.485
0.25904,81.356
0.25709,78.814
0.25513,76.662
0.2522,75.098
0.2522,73.729
0.25513,72.947
0.26295,72.164
0.27859,71.969
0.30303,71.773
0.33627,71.578
0.37634,71.578
0.42131,71.578
0.46921,71.578
0.51124,71.773
0.54839,71.773
0.58553,71.578
0.62072,71.578
0.65005,71.382
0.67449,71.186
0.69208,70.795
0.70381,70.6
0.71065,70.209
0.71359,69.622
0.71163,69.035
0.70577,68.449
0.69697,68.057
0.68622,67.471
0.66764,66.884
0.64516,66.493
0.62366,65.906
0.60117,65.515
0.57771,65.124
0.55523,64.537
0.53177,64.146
0.50929,63.559
0.48778,63.168
0.46725,62.777
0.44966,62.19
0.435,61.604
0.42326,61.213
0.41153,60.626
0.40078,60.039
0.39198,59.648
0.38416,59.257
0.37732,58.866
0.37146,58.279
0.36657,57.888
0.36266,57.497
0.35875,57.106
0.35484,56.91
0.35288,56.91
0.35093,57.301
0.348,58.475
0.34604,61.017
0.34311,65.515
0.3392,72.164
0.33627,80.183
0.33236,88.788
0.32942,97.001
0.32551,104.43
0.3216,110.89
0.31769,116.17
0.31476,119.88
0.31183,122.23
0.30987,123.4
0.30694,123.4
0.30401,122.43
0.30108,120.86
0.29814,118.71
0.29521,116.17
0.29228,113.43
0.28935,110.5
0.28543,107.37
0.2825,104.04
0.27859,100.33
0.27664,96.219
0.27468,92.112
0.27273,88.201
0.26979,84.485
0.26686,81.356
0.26393,78.814
0.261,76.662
0.25806,74.707
0.25611,73.338
0.25611,72.36
0.261,71.773
0.27175,71.382
0.28935,70.991
0.31085,70.795
0.33627,70.795
0.37146,70.795
0.41251,70.795
0.4565,70.795
0.50147,70.795
0.54448,70.795
0.5826,70.6
0.61584,70.6
0.64223,70.404
0.66276,70.209
0.6784,69.818
0.68622,69.426
0.69013,69.035
0.6911,68.644
0.68817,68.057
0.68231,67.471
0.67351,67.08
0.66178,66.493
0.64614,66.102
0.62854,65.711
0.60899,65.124
0.58749,64.733
0.565,64.342
0.54252,63.95
0.52199,63.364
0.5044,62.973
0.48583,62.582
0.46725,61.995
0.45064,61.408
0.43597,61.017
0.42229,60.43
0.41056,60.039
0.40078,59.452
0.39198,59.061
0.38514,58.475
0.37928,58.083
0.37439,57.692
0.37146,57.106
0.36755,56.91
0.36461,56.519
0.36168,56.323
0.35777,56.519
0.35484,57.301
0.35191,59.257
0.34897,62.973
0.34506,69.035
0.34213,76.858
0.3392,85.463
0.33529,94.068
0.33236,101.89
0.3304,108.93
0.32747,114.8
0.32454,119.49
0.32063,122.43
0.31769,123.99
0.31476,124.58
0.31085,124.19
0.30792,123.01
0.30499,121.06
0.30205,118.9
0.29814,116.56
0.29619,113.82
0.29423,110.89
0.2913,107.56
0.28837,104.04
0.28543,100.13
0.2825,96.219
0.27957,91.917
0.27566,87.81
0.27273,84.289
0.26979,80.965
0.26588,78.422
0.26295,76.271
0.26002,74.707
0.26002,73.338
0.26197,72.555
0.26882,71.969
0.28152,71.578
0.30108,71.382
0.3304,71.382
0.36657,71.578
0.4086,71.578
0.45357,71.578
0.50049,71.773
0.54545,71.773
0.58553,71.969
0.61779,71.969
0.64223,71.773
0.66471,71.578
0.68231,71.382
0.69599,70.991
0.70479,70.6
0.70968,70.209
0.70968,69.622
0.70577,69.231
0.69795,68.84
0.68622,68.253
0.67253,67.862
0.65591,67.275
0.63832,66.884
0.62072,66.493
0.6002,65.906
0.57771,65.711
0.55523,65.124
0.53177,64.733
0.50929,64.342
0.48876,63.755
0.47019,63.168
0.45259,62.777
0.43793,62.386
0.42522,61.799
0.41544,61.408
0.40762,61.017
0.3998,60.43
0.39394,60.039
0.38807,59.648
0.38319,59.257
0.37928,58.866
0.37537,58.475
0.37243,58.475
0.3695,58.475
0.36657,59.257
0.36364,61.213
0.3607,64.928
0.35875,70.991
0.35679,79.009
0.35386,88.005
0.35191,96.806
0.34897,104.82
0.34506,112.06
0.34213,117.93
0.3392,122.62
0.33529,125.75
0.33236,127.31
0.32942,127.9
0.32649,127.31
0.32454,126.14
0.32258,124.38
0.31965,122.23
0.31769,119.88
0.31476,117.34
0.31183,114.6
0.3089,111.67
0.30596,108.34
0.30303,104.63
0.3001,100.91
0.29717,97.001
0.29521,92.894
0.29228,89.179
0.29032,85.854
0.28935,82.921
0.28641,80.574
0.28446,78.618
0.28348,77.249
0.28543,76.076
0.29228,75.489
0.30596,74.902
0.32845,74.707
0.35777,74.707
0.39492,74.707
0.43793,74.707
0.47801,74.707
0.51515,74.902
0.55621,74.902
0.59629,74.902
0.63245,74.707
0.66373,74.511
0.68915,74.316
0.70772,73.924
0.72141,73.533
0.73021,72.947
0.73509,72.36
0.73509,71.969
0.73118,71.186
0.72434,70.6
0.71554,70.013
0.70381,69.426
0.68915,68.84
0.67253,68.253
0.65396,67.666
0.63343,67.08
0.61193,66.688
0.59042,66.102
0.56794,65.711
0.54643,65.124
0.5259,64.733
0.50831,64.146
0.49365,63.755
0.47898,63.168
0.4653,62.582
0.45357,62.19
0.44379,61.604
0.435,61.017
0.42815,60.43
0.42229,59.844
0.4174,59.452
0.41349,59.061
0.40958,58.67
0.40665,58.279
0.40371,58.475
0.3998,59.257
0.39687,61.213
0.39296,65.124
0.38905,71.773
0.38514,80.183
0.38025,89.57
0.37634,98.761
0.37243,107.17
0.36755,114.8
0.36266,120.86
0.35875,125.55
0.35484,128.68
0.35191,130.25
0.348,130.64
0.34409,130.05
0.34018,128.68
0.33627,126.73
0.33138,124.58
0.32747,122.23
0.32356,119.49
0.31965,116.75
0.31574,113.82
0.31085,110.5
0.30792,106.98
0.30499,103.06
0.30108,99.153
0.29717,95.046
0.29326,91.134
0.28837,87.419
0.28348,84.094
0.27957,81.356
0.27566,79.205
0.2737,77.445
0.27468,76.271
0.28152,75.293
0.29521,74.707
0.31378,74.316
0.33822,73.924
0.37243,73.924
0.41447,73.924
0.46041,73.924
0.50831,73.924
0.55523,73.924
0.59824,73.729
0.63539,73.729
0.66667,73.533
0.6911,73.142
0.70968,72.947
0.72043,72.36
0.7263,71.969
0.72923,71.578
0.72825,70.991
0.72434,70.404
0.7175,69.818
0.70772,69.231
0.69501,68.644
0.67937,68.057
0.66178,67.666
0.64223,67.275
0.61975,66.688
0.59726,66.102
0.57576,65.711
0.55523,65.124
0.53372,64.733
0.51124,64.146
0.49071,63.755
0.47116,63.168
0.45357,62.582
0.43793,61.995
0.42424,61.408
0.41251,60.821
0.40274,60.43
0.39492,59.844
0.38807,59.452
0.38319,59.061
0.3783,58.475
0.37341,58.083
0.3695,57.888
0.36559,57.692
0.36168,57.888
0.35777,58.67
0.35386,60.821
0.34995,64.733
0.34702,71.186
0.34311,79.4
0.3392,88.396
0.33529,97.197
0.33236,105.41
0.32942,112.45
0.32551,118.51
0.3216,122.82
0.31769,125.55
0.31378,127.12
0.30987,127.31
0.30596,126.73
0.30303,125.16
0.29912,123.21
0.29521,120.86
0.29228,118.32
0.29032,115.58
0.28739,112.65
0.28446,109.52
0.28055,106
0.27664,102.48
0.2737,98.37
0.26979,94.263
0.26686,90.157
0.26295,86.245
0.25904,83.116
0.25611,80.183
0.2522,78.031
0.25024,76.076
0.24927,74.707
0.25122,73.729
0.25709,72.947
0.26979,72.555
0.2913,72.164
0.32063,72.164
0.35777,71.969
0.40176,71.969
0.44868,71.969
0.49658,71.969
0.5435,71.969
0.57967,71.969
0.60997,71.969
0.63832,71.773
0.66276,71.578
0.68133,71.186
0.69501,70.795
0.70283,70.404
0.70674,70.013
0.70577,69.622
0.70186,69.035
0.69404,68.449
0.68328,67.862
0.66862,67.471
0.65396,66.884
0.63832,66.297
0.61877,65.906
0.59726,65.515
0.57478,64.928
0.55132,64.537
0.52786,63.95
0.50538,63.364
0.48387,62.973
0.46334,62.386
0.44575,61.799
0.43011,61.408
0.4174,60.821
0.40665,60.235
0.39687,59.844
0.38807,59.257
0.38025,58.866
0.37439,58.475
0.36852,57.888
0.36364,57.497
0.35875,57.106
0.35484,56.91
0.35191,56.91
0.348,57.106
0.34506,58.083
0.34311,60.235
0.34115,64.342
0.33822,70.6
0.33529,78.422
0.33138,87.223
0.32845,95.437
0.32454,103.06
0.32063,109.91
0.31769,115.38
0.31378,119.49
0.30987,122.23
0.30694,123.6
0.30401,123.79
0.30205,123.01
0.29912,121.64
0.29619,119.49
0.29228,117.14
0.28935,114.6
0.28543,111.67
0.2825,108.54
0.27859,105.22
0.27566,101.5
0.27175,97.588
0.26882,93.481
0.26588,89.57
0.26491,85.854
0.26197,82.529
0.25904,79.791
0.25611,77.445
0.2522,75.489
0.25024,73.924
0.24927,72.751
0.25122,72.164
0.25806,71.578
0.27273,71.186
0.29521,70.991
0.32551,70.991
0.35777,70.795
0.39296,70.795
0.435,70.795
0.47996,70.795
0.52493,70.795
0.56696,70.795
0.60411,70.6
0.63539,70.6
0.65982,70.404
0.6784,70.013
0.6911,69.622
0.69795,69.426
0.6999,69.035
0.69795,68.449
0.69306,67.862
0.68524,67.471
0.67449,66.884
0.65982,66.493
0.64321,65.906
0.62366,65.515
0.60313,65.124
0.58065,64.537
0.55718,64.146
0.53372,63.755
0.51124,63.168
0.49169,62.777
0.47507,62.19
0.45846,61.799
0.44184,61.213
0.42717,60.626
0.41447,60.235
0.40274,59.648
0.39394,59.257
0.38612,58.67
0.37928,58.279
0.37341,57.888
0.36852,57.301
0.36461,56.91
0.36168,56.715
0.35875,56.519
0.35582,56.715
0.35288,57.301
0.34995,59.061
0.34702,62.386
0.34409,67.862
0.34115,75.293
0.33822,83.898
0.33529,92.503
0.33138,100.52
0.32845,107.56
0.32551,113.43
0.32356,117.93
0.3216,121.06
0.32063,122.82
0.31769,123.6
0.31476,123.21
0.31183,122.03
0.30792,120.08
0.30499,117.93
0.30205,115.58
0.29814,112.84
0.29521,109.91
0.29228,106.58
0.29032,103.26
0.28739,99.544
0.28446,95.437
0.28152,91.33
0.27761,87.419
0.27468,83.703
0.27077,80.574
0.26784,77.836
0.26393,75.685
0.261,74.12
0.25904,72.751
0.261,71.969
0.26588,71.382
0.27468,70.991
0.29228,70.795
0.31769,70.6
0.35191,70.6
0.39394,70.6
0.43988,70.6
0.48876,70.6
0.53666,70.6
0.58162,70.6
0.62072,70.6
0.65494,70.404
0.6784,70.209
0.69501,70.013
0.70968,69.622
0.71945,69.231
0.72434,68.84
0.7263,68.449
0.72336,67.862
0.71652,67.471
0.70577,66.884
0.69208,66.493
0.67546,66.102
0.65689,65.711
0.63539,65.124
0.61486,64.733
0.59433,64.342
0.57087,63.95
0.54741,63.559
0.52395,62.973
0.50244,62.582
0.48192,61.995
0.46334,61.408
0.44673,61.017
0.43206,60.626
0.41935,60.039
0.4086,59.648
0.40078,59.061
0.39492,58.67
0.38807,58.083
0.38319,57.692
0.3783,57.301
0.37341,56.91
0.3695,56.91
0.36657,56.91
0.36266,57.301
0.35973,58.866
0.35582,61.799
0.35288,67.08
0.34897,74.511
0.34702,83.116
0.34409,91.917
0.34115,100.13
0.33822,107.37
0.33431,113.82
0.33138,118.9
0.32747,122.43
0.32356,124.58
0.32063,125.55
0.31672,125.36
0.31378,124.38
0.30987,122.82
0.30792,120.67
0.30596,118.32
0.30303,115.78
0.3001,113.04
0.29717,110.1
0.29326,106.78
0.29032,103.06
0.28641,99.348
0.28348,95.241
0.27957,91.134
0.27664,87.223
0.27273,83.703
0.26882,80.769
0.26686,78.227
0.26491,76.271
0.26295,74.707
0.26295,73.533
0.26686,72.751
0.27566,72.164
0.29326,71.969
0.31867,71.773
0.35288,71.773
0.39492,71.773
0.44184,71.773
0.49071,71.773
0.53372,71.773
0.57087,71.773
0.60997,71.773
0.64516,71.578
0.67546,71.382
0.6999,71.186
0.71848,70.795
0.73118,70.6
0.73803,70.013
0.74096,69.622
0.739,69.035
0.73314,68.644
0.72434,68.057
0.71261,67.471
0.69892,67.08
0.68231,66.688
0.66276,66.297
0.64125,65.711
0.61779,65.319
0.59335,64.733
0.56891,64.342
0.54448,63.755
0.52199,63.364
0.49951,62.777
0.47996,62.19
0.46334,61.799
0.45064,61.213
0.43793,60.626
0.4262,60.039
0.41544,59.648
0.40762,59.061
0.3998,58.67
0.39296,58.279
0.38807,57.692
0.38319,57.497
0.3783,57.301
0.37439,57.301
0.37146,57.888
0.36852,59.257
0.36559,62.582
0.36266,68.253
0.35973,75.88
0.35679,84.681
0.35288,93.677
0.34897,102.28
0.34506,109.91
0.34115,116.36
0.33724,121.64
0.33333,125.16
0.3304,127.31
0.32747,128.29
0.32454,128.1
0.3216,127.12
0.31867,125.55
0.31476,123.6
0.31183,121.45
0.30792,119.1
0.30401,116.36
0.3001,113.62
0.29619,110.5
0.29228,107.17
0.28935,103.65
0.28641,99.935
0.28446,95.828
0.28152,91.917
0.27761,88.201
0.27468,84.876
0.27077,82.138
0.26686,79.987
0.26393,78.227
0.26393,76.858
0.26784,75.88
0.27859,75.098
0.29717,74.707
0.32454,74.316
0.35484,74.12
0.38905,74.12
0.43206,74.12
0.47996,74.12
0.52981,73.924
0.57674,73.924
0.61975,73.924
0.65787,73.729
0.68817,73.729
0.71359,73.533
0.73118,73.142
0.74389,72.947
0.74976,72.36
0.75073,71.969
0.74976,71.578
0.74487,70.991
0.73803,70.6
0.72727,70.013
0.71359,69.622
0.69795,69.035
0.67937,68.644
0.65885,68.057
0.63636,67.666
0.6129,67.275
0.58847,66.688
0.56696,66.297
0.54741,65.711
0.52688,65.319
0.50733,64.733
0.48876,64.146
0.47116,63.559
0.4565,63.168
0.44379,62.777
0.43304,62.19
0.42326,61.799
0.41544,61.213
0.4086,60.821
0.40371,60.235
0.3998,60.039
0.39589,59.844
0.39198,60.039
0.38807,60.626
0.38416,62.582
0.38123,66.493
0.37732,72.751
0.37439,81.16
0.37048,90.548
0.36755,99.739
0.36364,108.34
0.3607,115.78
0.35777,122.23
0.35582,126.92
0.35288,130.05
0.34897,132.01
0.34604,132.59
0.34311,132.2
0.34018,131.03
0.33724,129.47
0.33333,127.51
0.3304,125.36
0.32747,123.01
0.32356,120.47
0.3216,117.73
0.31965,114.8
0.31672,111.47
0.31378,107.95
0.31085,104.04
0.30792,99.935
0.30401,96.024
0.30108,92.112
0.29717,88.592
0.29228,85.658
0.28641,83.116
0.28348,81.16
0.28446,79.4
0.28935,78.227
0.29912,77.445
0.31672,76.858
0.34311,76.467
0.37732,76.271
0.41935,76.076
0.46725,76.076
0.51613,76.076
0.56403,76.076
0.60899,76.076
0.64907,75.88
0.68328,75.685
0.70772,75.293
0.72434,75.098
0.739,74.707
0.74878,74.12
0.75562,73.533
0.75758,72.947
0.7566,72.36
0.75171,71.773
0.74389,71.186
0.73314,70.6
0.71945,70.013
0.70381,69.622
0.68524,69.035
0.66667,68.644
0.64809,68.057
0.62659,67.471
0.60313,66.884
0.57967,66.297
0.55718,65.906
0.5347,65.319
0.5132,64.733
0.49462,64.146
0.47703,63.559
0.46139,62.973
0.4477,62.386
0.43793,61.995
0.42913,61.408
0.42131,61.017
0.41447,60.626
0.4086,60.039
0.40274,59.844
0.39785,59.452
0.39296,59.452
0.38807,59.844
0.38319,61.604
0.3783,64.928
0.37341,70.795
0.36852,78.814
0.36461,88.201
0.3607,97.588
0.35679,106.39
0.35191,114.21
0.34702,120.86
0.34213,125.95
0.33724,129.27
0.33236,131.23
0.32845,131.81
0.32356,131.62
0.31867,130.44
0.31476,128.88
0.31085,126.73
0.30792,124.58
0.30401,122.03
0.3001,119.3
0.29619,116.36
0.29228,113.23
0.28739,109.71
0.28348,106.19
0.27957,102.28
0.27566,97.979
0.27175,93.872
0.26784,89.961
0.26295,86.441
0.26002,83.507
0.25806,81.16
0.25611,79.205
0.25513,77.836
0.25806,76.662
0.26686,75.88
0.28446,75.293
0.30987,74.902
0.34409,74.707
0.38514,74.707
0.43206,74.707
0.48094,74.707
0.52297,74.511
0.56012,74.511
0.59726,74.316
0.63148,74.12
0.6608,73.924
0.68426,73.533
0.70088,73.338
0.71261,72.751
0.71945,72.164
0.72141,71.773
0.71945,71.186
0.71359,70.6
0.70577,70.209
0.69501,69.622
0.68328,69.035
0.66764,68.644
0.65005,68.057
0.6305,67.666
0.60899,67.08
0.58553,66.688
0.56207,66.102
0.53763,65.711
0.51417,65.124
0.49267,64.537
0.47214,63.95
0.45455,63.364
0.44086,62.973
0.42717,62.386
0.41447,61.799
0.40274,61.213
0.39296,60.626
0.38514,60.235
0.3783,59.844
0.37146,59.257
0.36657,58.866
0.36168,58.475
0.35679,58.475
0.35386,58.67
0.35093,59.452
0.348,61.408
0.34409,65.515
0.34115,71.969
0.33724,80.183
0.33333,89.374
0.32845,98.175
0.32454,106.58
0.32063,113.82
0.31672,119.69
0.31281,124.19
0.3089,127.12
0.30596,128.49
0.30303,128.88
0.3001,128.29
0.29717,126.73
0.29326,124.77
0.28935,122.62
0.28543,120.08
0.2825,117.54
0.27859,114.6
0.27468,111.47
0.27077,108.15
0.26784,104.24
0.26588,100.33
0.26393,96.219
0.261,91.917
0.25806,88.201
0.25513,84.681
0.25122,81.747
0.24731,79.4
0.24438,77.445
0.24242,76.076
0.2434,74.902
0.24927,74.12
0.261,73.533
0.2825,73.338
0.30694,73.338
0.33627,73.142
0.37439,73.142
0.42033,73.142
0.46823,72.947
0.51515,72.947
0.56012,72.947
0.6002,72.751
0.63441,72.555
0.66178,72.36
0.68231,72.164
0.69697,71.773
0.70479,71.186
0.70772,70.795
0.7087,70.404
0.70577,69.818
0.6999,69.231
0.69013,68.84
0.6784,68.253
0.66276,67.666
0.64516,67.275
0.62463,66.688
0.60313,66.297
0.57967,65.906
0.55523,65.319
0.53372,64.928
0.51417,64.537
0.49365,63.95
0.47312,63.364
0.45455,62.973
0.43695,62.386
0.42229,61.799
0.4086,61.408
0.39785,60.821
0.38807,60.235
0.37928,59.844
0.37243,59.452
0.36755,58.866
0.36364,58.475
0.35973,58.083
0.35582,57.888
0.35191,58.083
0.348,58.475
0.34506,59.844
0.34115,62.777
0.33822,67.862
0.33431,75.098
0.3304,83.507
0.32747,92.308
0.32356,100.72
0.32063,108.15
0.31867,114.41
0.31476,119.49
0.31183,123.01
0.30792,125.16
0.30499,126.14
0.30108,125.95
0.29814,124.97
0.29423,123.21
0.2913,121.06
0.28739,118.71
0.28446,116.17
0.2825,113.23
0.28055,110.3
0.27761,106.98
0.27468,103.26
0.27077,99.348
0.26784,95.046
0.26491,90.939
0.261,87.223
0.25806,83.703
0.25415,80.769
0.25024,78.422
0.24731,76.467
0.24536,75.098
0.24536,73.924
0.24829,73.338
0.25513,72.751
0.26882,72.555
0.2913,72.36
0.3216,72.164
0.35875,72.164
0.40274,72.164
0.44966,72.164
0.49756,72.164
0.54252,72.164
0.58358,72.164
0.61584,71.969
0.64027,71.773
0.66178,71.382
0.67742,71.186
0.68719,70.795
0.69306,70.404
0.69599,69.818
0.69501,69.426
0.69013,68.84
0.68231,68.253
0.67155,67.666
0.65689,67.275
0.64027,66.884
