2.5435,76.685
2.4614,76.099
2.3793,75.611
2.3001,75.171
2.2268,74.731
2.1593,74.292
2.0987,73.803
2.045,73.364
2.0029,72.875
1.9697,72.436
1.9394,71.947
1.914,71.557
1.8935,71.166
1.8768,70.726
1.8641,70.384
1.8524,70.287
1.8407,71.605
1.828,76.294
1.8133,86.112
1.7947,100.57
1.7732,116.1
1.7527,128.07
1.7322,134.13
1.7048,135.79
1.6755,136.32
1.6481,137.5
1.6217,138.77
1.5963,138.23
1.5728,135.3
1.5503,130.66
1.5288,125.82
1.5073,121.62
1.4839,118.01
1.4643,114.49
1.4487,110.63
1.4311,106.48
1.4135,102.23
1.3959,98.177
1.3793,94.367
1.3627,90.655
1.347,87.236
1.3324,84.354
1.3187,82.449
1.305,81.57
1.2962,81.423
1.2972,81.716
1.3118,82.107
1.348,82.547
1.4194,82.986
1.5327,83.475
1.6882,84.061
1.8759,84.549
2.0811,84.842
2.2874,85.038
2.478,84.989
2.6413,84.745
2.7713,84.305
2.868,83.67
2.9267,82.986
2.957,82.156
2.9707,81.374
2.9687,80.544
2.9511,79.762
2.9198,78.932
2.8778,78.199
2.827,77.564
2.7674,76.929
2.7019,76.343
2.6315,75.855
2.5572,75.366
2.4839,74.878
2.4194,74.487
2.3617,74.097
2.305,73.803
2.2542,73.51
2.2121,73.168
2.1808,72.778
2.1584,72.436
2.1427,72.045
2.132,71.654
2.1232,71.361
2.1183,70.922
2.1163,70.629
2.1144,70.677
2.1124,72.289
2.1114,77.467
2.1105,87.871
2.1085,102.62
2.1036,118.11
2.0968,129.83
2.086,135.74
2.0723,137.74
2.0557,139.01
2.0362,141.01
2.0147,142.87
1.9922,142.92
1.9736,140.43
1.956,136.32
1.9355,132.07
1.914,128.41
1.8935,125.24
1.8729,121.91
1.8534,118.06
1.8348,113.86
1.8162,109.75
1.7986,105.75
1.781,101.94
1.7644,98.128
1.7517,94.22
1.741,90.752
1.7283,87.871
1.7155,85.966
1.7048,85.038
1.7038,84.793
1.7204,84.793
1.7654,84.94
1.8475,85.233
1.9707,85.673
2.132,86.259
2.3206,86.796
2.522,87.236
2.6931,87.48
2.8358,87.529
2.9717,87.382
3.085,86.991
3.1691,86.356
3.2248,85.673
3.2551,84.793
3.2659,83.865
3.262,82.84
3.2444,81.863
3.2131,80.935
3.1701,80.007
3.1193,79.127
3.0626,78.297
2.9951,77.564
2.9189,76.881
2.8368,76.246
2.7517,75.66
2.6667,75.22
2.5846,74.78
2.5093,74.438
2.4399,74.048
2.3793,73.657
2.3275,73.315
2.2845,72.924
2.2502,72.533
2.2239,72.24
2.2023,71.85
2.1838,71.508
2.1691,70.97
2.1554,70.726
2.1417,71.508
2.1281,74.78
2.1134,82.595
2.0968,95.49
2.0782,111.12
2.0567,125.04
2.0352,133.88
2.0127,137.5
1.9863,138.77
1.9589,140.23
1.8602,142.23
1.7253,143.36
1.6432,142.38
1.5865,139.25
1.5425,135.25
1.5054,131.44
1.4731,128.12
1.4448,124.94
1.4223,121.38
1.4027,117.37
1.3812,113.22
1.3597,109.12
1.3402,105.16
1.3216,101.25
1.303,97.249
1.2845,93.341
1.2659,89.922
1.2483,87.382
1.2356,85.673
1.2317,84.94
1.2424,84.696
1.2669,84.696
1.3148,84.842
1.4008,85.184
1.5288,85.624
1.6931,86.112
1.8827,86.601
2.0821,86.943
2.2747,87.138
2.4477,86.991
2.5904,86.747
2.7019,86.259
2.782,85.624
2.828,84.842
2.8495,84.012
2.8602,83.133
2.8573,82.253
2.8397,81.277
2.8113,80.349
2.7703,79.421
2.7175,78.541
2.654,77.76
2.5806,76.978
2.4995,76.343
2.4164,75.806
2.3343,75.366
2.261,74.927
2.1935,74.536
2.1241,74.194
2.0567,73.852
1.9951,73.51
1.9404,73.12
1.8944,72.68
1.8553,72.289
1.8231,71.85
1.7967,71.41
1.7761,70.97
1.7605,70.531
1.7478,70.629
1.738,72.192
1.7273,77.027
1.7155,86.845
1.7009,101.01
1.6833,116.1
1.6628,127.87
1.6383,134.22
1.6129,136.47
1.5875,137.54
1.5611,139.06
1.5337,140.67
1.5064,140.87
1.4829,138.81
1.4614,135.05
1.437,131
1.4096,127.29
1.3812,124.06
1.3529,120.79
1.3255,117.18
1.3001,113.22
1.2757,109.12
1.2532,105.11
1.2336,101.11
1.2151,97.102
1.1994,93.195
1.1857,89.629
1.1691,86.747
1.1515,84.842
1.1349,84.012
1.1241,83.719
1.1281,83.719
1.1554,83.914
1.217,84.158
1.3167,84.598
1.4545,85.135
1.6227,85.624
1.8074,86.063
1.9707,86.259
2.1124,86.259
2.2542,86.063
2.3793,85.673
2.48,85.038
2.5543,84.354
2.6041,83.572
2.6315,82.693
2.6413,81.716
2.6344,80.788
2.61,79.909
2.5709,79.127
2.5239,78.346
2.4702,77.662
2.4047,77.125
2.3294,76.685
2.2463,76.246
2.1593,75.855
2.0714,75.415
1.9863,75.073
1.9071,74.536
1.8348,74.097
1.7713,73.608
1.7175,73.12
1.6745,72.631
1.6432,72.094
1.6197,71.605
1.5982,71.166
1.5806,70.726
1.565,70.531
1.5494,71.312
1.5327,74.683
1.5142,82.595
1.4946,95.686
1.4731,111.32
1.4497,124.99
1.4223,133.2
1.3959,135.98
1.3715,136.37
1.3441,136.81
1.3138,137.79
1.2815,137.94
1.2502,136.08
1.219,132.32
1.1896,127.92
1.1623,123.87
1.1359,120.45
1.1114,117.18
1.088,113.61
1.0645,109.66
1.0479,105.6
1.0342,101.6
1.0176,97.737
1,93.927
0.9824,90.313
0.96285,87.04
0.94428,84.696
0.92571,83.377
0.90909,82.986
0.89736,83.23
0.90127,83.67
0.9306,84.012
0.97947,84.305
1.0547,84.549
1.172,84.989
1.3255,85.428
1.5044,85.868
1.695,86.161
1.8778,86.259
2.0411,86.259
2.175,85.966
2.2766,85.428
2.346,84.598
2.3881,83.621
2.4066,82.693
2.4057,81.863
2.391,81.179
2.3636,80.495
2.3265,79.616
2.2805,78.737
2.2248,77.858
2.1613,77.125
2.0919,76.539
2.0176,76.099
1.9413,75.904
1.8661,76.099
1.7937,76.636
1.7331,77.027
1.6804,76.929
1.6295,76.001
1.5826,74.487
1.5425,73.315
1.5103,72.875
1.4868,72.68
1.4712,72.289
1.4624,71.801
1.4585,71.801
1.4565,73.852
1.4545,80.104
1.4506,91.729
1.4477,107.26
1.4438,122.35
1.4379,132.76
1.4291,137.45
1.4174,138.77
1.4047,139.55
1.391,140.87
1.3783,141.75
1.3685,141.06
1.3617,138.42
1.3568,134.76
1.3519,131.05
1.35,127.92
1.349,125.14
1.347,122.06
1.3421,118.45
1.3363,114.54
1.3294,110.73
1.3226,106.97
1.3177,103.11
1.3138,98.909
1.3099,94.806
1.306,91.29
1.3021,88.75
1.3001,87.236
1.3011,86.503
1.3099,85.966
1.3343,85.624
1.3832,85.428
1.4653,85.673
1.5875,86.308
1.7478,87.04
1.9345,87.48
2.132,87.626
2.3265,87.626
2.5024,87.284
2.6491,86.601
2.7498,85.624
2.8143,84.305
2.8622,82.84
2.8925,81.863
2.9052,81.423
2.9052,81.57
2.8935,81.57
2.871,80.935
2.8387,79.421
2.7947,77.662
2.741,76.441
2.6774,76.197
2.6119,76.441
2.5455,76.294
2.4702,75.464
2.391,74.292
2.3138,73.12
2.2385,72.289
2.1672,71.85
2.1017,71.605
2.044,71.215
1.9932,70.531
1.9492,69.798
1.9365,69.359
1.9423,69.554
1.9374,70.189
1.9267,71.361
1.914,74.097
1.9003,80.544
1.8856,92.218
1.87,107.95
1.8524,123.48
1.8309,134.52
1.8055,139.6
1.7761,141.01
1.7439,141.94
1.7116,143.75
1.6843,145.51
1.6588,145.51
1.6305,143.16
1.6002,139.35
1.5679,135.25
1.5347,131.68
1.5015,128.41
1.4702,125.19
1.4418,121.62
1.4154,117.81
1.391,114
1.3695,110.19
1.3509,106.19
1.3382,101.89
1.3284,97.444
1.3148,93.341
1.2981,90.117
1.2815,87.968
1.2688,86.845
1.2669,86.308
1.2845,86.112
1.3314,86.161
1.4145,86.503
1.5367,87.187
1.6921,87.968
1.8456,88.506
1.9971,88.603
2.1672,88.261
2.3333,87.675
2.4809,87.236
2.6002,86.845
2.6921,86.552
2.7586,86.063
2.8025,85.379
2.8299,84.5
2.8426,83.572
2.8416,82.742
2.827,81.912
2.8016,81.13
2.7654,80.251
2.7175,79.323
2.6598,78.444
2.5934,77.662
2.52,77.174
2.4418,76.929
2.3627,76.881
2.2864,76.783
2.2141,76.49
2.1486,75.806
2.0899,75.073
2.043,74.292
2.0049,73.755
1.9697,73.315
1.9374,72.924
1.9101,72.485
1.8876,72.289
1.868,73.608
1.8495,78.199
1.8319,87.919
1.8133,102.38
1.7947,118.2
1.7761,130.61
1.7566,137.2
1.738,139.06
1.7185,139.45
1.696,140.62
1.6725,142.48
1.6481,143.31
1.6217,141.89
1.5943,138.57
1.5679,134.66
1.5415,131.29
1.5142,128.41
1.4878,125.58
1.4624,122.26
1.4418,118.3
1.4233,114.05
1.4008,109.95
1.3783,105.94
1.3568,102.13
1.3363,98.421
1.3157,94.855
1.2942,91.29
1.2737,88.164
1.2551,85.966
1.2454,85.233
1.2522,85.673
1.2854,86.698
1.3392,87.48
1.4194,87.675
1.5425,87.431
1.6999,87.138
1.8807,87.138
2.0694,87.48
2.2502,87.822
2.4115,87.675
2.5464,87.138
2.652,86.259
2.7302,85.428
2.783,84.94
2.8113,84.696
2.8221,84.256
2.8231,83.377
2.8123,81.912
2.7879,80.3
2.7507,78.932
2.7019,78.053
2.6432,77.809
2.5767,77.858
2.5024,77.662
2.4252,77.174
2.347,76.294
2.2698,75.366
2.2014,74.683
2.1398,74.243
2.0782,73.852
2.0186,73.217
1.9648,72.387
1.9179,71.41
1.8788,70.726
1.8465,70.531
1.8201,70.97
1.7986,72.387
1.783,76.001
1.7703,83.67
1.7586,96.321
1.7478,111.95
1.7341,126.16
1.7185,135.3
1.6999,138.81
1.6784,139.35
1.654,139.89
1.6266,141.06
1.5973,141.79
1.566,140.72
1.5337,137.79
1.5015,133.93
1.4692,130.22
1.4428,126.99
1.4174,123.82
1.3871,120.45
1.3539,116.74
1.3196,112.88
1.2864,109.12
1.2561,105.36
1.2287,101.5
1.2023,97.542
1.1779,93.732
1.1554,90.557
1.1339,88.408
1.1183,87.236
1.1085,86.747
1.1046,86.503
1.1173,86.259
1.1603,86.161
1.2405,86.405
1.3617,86.943
1.5181,87.675
1.7009,88.31
1.8964,88.701
2.087,88.603
2.259,88.115
2.4027,87.284
2.5044,86.503
2.5738,85.917
2.6285,85.428
2.6657,84.842
2.6882,83.914
2.696,82.742
2.6891,81.618
2.6706,80.739
2.6393,80.153
2.5953,79.665
2.5396,79.127
2.4721,78.444
2.4047,77.613
2.3363,77.027
2.2581,76.734
2.1769,76.734
2.0968,76.685
2.0205,76.343
1.9482,75.66
1.8827,74.731
1.824,73.901
1.7742,73.364
1.7331,73.12
1.7009,73.12
1.6774,73.559
1.6598,75.415
1.6432,80.788
1.6266,91.387
1.6109,106.38
1.5953,121.87
1.5797,133
1.5621,137.79
1.5435,138.18
1.522,137.54
1.4985,137.98
1.4751,138.86
1.4506,138.47
1.4311,136.08
1.4125,132.12
1.391,127.92
1.3675,124.26
1.3441,121.04
1.3196,117.81
1.2942,114.2
1.2678,110.24
1.2434,106.14
1.2209,101.99
1.1984,97.981
1.176,94.171
1.1603,90.752
1.1486,88.066
1.1349,86.405
1.1212,85.819
1.1095,85.721
1.1065,85.868
1.1193,85.917
1.1593,85.917
1.2346,86.112
1.35,86.503
1.5024,86.991
1.6833,87.431
1.8798,87.626
2.0508,87.529
2.1965,87.284
2.3392,86.943
2.4614,86.356
2.5543,85.673
2.6178,84.842
2.6569,83.914
2.6764,82.986
2.6804,82.156
2.6716,81.423
2.65,80.739
2.6178,80.055
2.5787,79.372
2.5357,78.786
2.4839,78.444
2.4252,78.248
2.3617,78.053
2.3089,77.662
2.26,77.125
2.2004,76.294
2.1398,75.562
2.0831,74.878
2.0352,74.438
1.9951,74.097
1.9648,73.901
1.9423,73.657
1.9257,73.315
1.914,72.729
1.9042,72.973
1.8944,75.806
1.8847,83.279
1.8739,96.125
1.8612,111.95
1.8465,126.07
1.8289,134.81
1.8104,138.38
1.7918,139.55
1.7752,140.87
1.7576,142.82
1.7361,144.19
1.7107,143.6
1.6843,141.06
1.6569,137.59
1.6266,134.42
1.5934,131.68
1.5601,129
1.5288,125.87
1.4976,122.06
1.4673,117.81
1.4379,113.37
1.4154,109.07
1.3949,104.87
1.3715,101.01
1.346,97.297
1.3206,94.074
1.2962,91.436
1.2747,89.678
1.26,88.75
1.259,88.359
1.2805,88.261
1.3363,88.164
1.435,88.066
1.5513,87.919
1.6901,87.822
1.8739,87.871
2.0792,87.968
2.2864,88.115
2.4761,88.164
2.6344,88.115
2.7556,87.822
2.8416,87.431
2.8974,86.845
2.9267,86.161
2.9365,85.282
2.9306,84.354
2.912,83.377
2.8847,82.547
2.8485,81.863
2.8035,81.423
2.7498,81.032
2.6872,80.593
2.6158,80.104
2.5357,79.469
2.4467,78.786
2.349,78.004
2.2493,77.32
2.1515,76.734
2.0684,76.343
1.9951,76.05
1.9228,75.757
1.8573,75.415
1.8016,75.122
1.7546,74.731
1.7155,74.536
1.6833,75.366
1.6569,78.786
1.6334,86.747
1.6109,99.789
1.5875,115.57
1.564,129.39
1.5464,137.69
1.5298,140.67
1.5083,141.31
1.4829,142.38
1.4555,144.38
1.4272,145.75
1.3969,145.02
1.3646,142.19
1.3314,138.42
1.3001,134.86
1.2688,131.88
1.2375,129.05
1.2131,125.92
1.1935,122.5
1.172,118.74
1.1476,114.78
1.1212,110.73
1.0948,106.48
1.0665,102.28
1.0371,98.323
1.0049,94.806
0.97263,92.071
0.94526,90.166
0.92962,89.043
0.9306,88.554
0.9521,88.359
1.001,88.359
1.0919,88.603
1.2248,88.994
1.392,89.385
1.5846,89.678
1.7869,89.824
1.9804,89.678
2.1535,89.434
2.2972,88.945
2.4096,88.261
2.4936,87.382
2.5484,86.356
2.5836,85.379
2.6139,84.403
2.6373,83.719
2.652,83.182
2.6549,82.547
2.6442,81.912
2.6188,81.179
2.5777,80.3
2.521,79.469
2.4487,78.883
2.3646,78.346
2.2727,78.053
2.1867,77.76
2.1065,77.467
2.0215,77.027
1.9374,76.539
1.8602,76.05
1.7937,75.562
1.738,75.073
1.6931,74.438
1.6569,73.755
1.6285,73.217
1.6041,73.901
1.5806,77.467
1.5601,85.966
1.5425,99.593
1.522,115.76
1.4995,129.44
1.4761,137.45
1.4506,140.04
1.4242,140.48
1.3978,141.55
1.3705,143.55
1.3431,144.73
1.3148,143.8
1.2864,140.72
1.259,136.86
1.2375,133.34
1.219,130.51
1.1955,127.73
1.1711,124.55
1.1447,120.69
1.1173,116.44
1.088,112.1
1.0577,107.95
1.0283,103.74
1,99.544
0.97165,95.637
0.94428,92.12
0.92473,89.531
0.91105,87.968
0.89736,87.382
0.89345,87.284
0.91007,87.48
0.95797,87.626
1.0459,87.822
1.176,87.871
1.3451,88.066
1.5396,88.164
1.7429,88.408
1.9374,88.701
2.0929,88.75
2.2151,88.554
2.3255,87.968
2.4145,87.236
2.479,86.356
2.523,85.575
2.5484,84.696
2.5591,83.865
2.5572,82.937
2.5406,82.058
2.5083,81.277
2.4594,80.739
2.3969,80.3
2.3314,79.909
2.262,79.567
2.1769,79.03
2.0821,78.444
1.9853,77.76
1.8915,77.027
1.8055,76.441
1.7292,75.855
1.6647,75.366
1.61,74.878
1.564,74.487
1.5249,74.048
1.4946,73.755
1.4692,73.803
1.4428,75.415
1.4164,80.349
1.39,90.508
1.3627,105.36
1.3343,121.28
1.305,133.3
1.2747,139.06
1.2424,140.18
1.2072,140.18
1.173,141.16
1.1378,142.62
1.1095,142.72
1.0841,140.57
1.0518,136.67
1.0166,132.51
0.98045,128.95
0.94428,125.87
0.90909,122.84
0.8739,119.33
0.83969,115.37
0.80743,111.22
0.77615,107.16
0.74682,103.16
0.72727,99.251
0.71359,95.295
0.69795,91.778
0.68133,89.092
0.66373,87.626
0.64712,87.138
0.63734,87.236
0.64418,87.431
0.67742,87.626
0.7478,87.626
0.86022,87.724
1.0137,88.066
1.1984,88.359
1.3734,88.603
1.5396,88.701
1.7155,88.408
1.8788,87.968
2.0166,87.431
2.1251,86.943
2.2033,86.356
2.2561,85.721
2.2893,85.038
2.306,84.305
2.306,83.475
2.3275,82.595
2.3578,81.863
2.3539,81.13
2.3265,80.446
2.2835,79.811
2.2278,79.176
2.1642,78.492
2.0968,77.858
2.0264,77.223
1.957,76.685
1.8905,76.099
1.8299,75.562
1.7771,75.073
1.7341,74.536
1.7048,74.194
1.6852,73.901
1.6696,73.755
1.6579,73.657
1.652,74.341
1.6491,77.174
1.65,84.403
1.652,97.2
1.654,113.51
1.653,128.51
1.6481,138.03
1.6393,141.5
1.6295,141.79
1.6197,142.43
1.607,144.24
1.5934,145.8
1.5806,145.26
1.5699,142.38
1.5611,138.38
1.5533,134.57
1.5464,131.49
1.5396,128.7
1.5318,125.58
1.522,121.82
1.5103,117.67
1.5024,113.51
1.4966,109.36
1.4888,105.36
1.48,101.45
1.4702,97.493
1.4604,94.074
1.4497,91.485
1.4389,89.922
1.4311,89.238
1.433,88.994
1.4526,88.945
1.4995,88.945
1.565,88.945
1.6549,89.043
1.7879,89.385
1.9531,89.678
2.1349,89.873
2.3167,89.873
2.4829,89.727
2.6227,89.385
2.7331,88.847
2.8133,88.164
2.8661,87.431
2.8974,86.601
2.912,85.721
2.911,84.793
2.8974,83.914
2.8759,83.133
2.8456,82.302
2.8045,81.57
2.7537,80.935
2.694,80.3
2.6266,79.762
2.5513,79.225
2.4731,78.786
2.3959,78.346
2.3196,77.906
2.2542,77.467
2.1965,76.978
2.1388,76.49
2.087,76.05
2.042,75.611
2.0039,75.171
1.9717,74.731
1.9423,74.243
1.9179,74.097
1.8974,75.562
1.8788,80.446
1.8612,90.557
1.8426,105.36
1.825,121.43
1.8084,133.93
1.7898,140.43
1.7703,142.43
1.7478,143.31
1.7234,145.31
1.6989,147.8
1.6745,148.97
1.6491,147.56
1.6217,144.24
1.5963,140.38
1.5709,137.06
1.5494,134.22
1.5308,131.44
1.5083,127.97
1.4848,124.02
1.4614,119.77
1.4379,115.42
1.4145,111.22
1.393,106.92
1.3744,102.62
1.3587,98.421
1.3431,94.66
1.3275,91.729
1.3148,89.922
1.3079,89.043
1.3118,88.75
1.3324,88.799
1.3793,88.945
1.4585,89.092
1.5718,89.385
1.7165,89.629
1.8817,89.824
2.0528,89.922
2.2151,89.873
2.3587,89.629
2.4761,89.189
2.5582,88.603
2.6129,87.968
2.6569,87.187
2.6882,86.308
2.7058,85.428
2.7107,84.5
2.7038,83.572
2.6862,82.693
2.6579,81.863
2.6188,81.13
2.5699,80.349
2.5122,79.762
2.4545,79.176
2.3969,78.59
2.3304,78.199
2.262,77.809
2.1945,77.369
2.13,76.929
2.0704,76.441
2.0156,75.904
1.9658,75.464
1.9238,75.073
1.8895,74.634
1.8592,74.097
1.8348,73.657
1.8162,73.803
1.8025,75.757
1.7889,81.667
1.7732,92.95
1.7576,108.43
1.741,124.06
1.7234,135.3
1.7038,140.43
1.6833,141.75
1.6618,142.67
1.6393,144.82
1.6168,147.17
1.5973,147.75
1.5816,145.6
1.5621,141.75
1.5386,137.59
1.5142,134.08
1.4907,130.95
1.4663,127.73
1.4399,124.02
1.4125,119.81
1.3861,115.42
1.3607,111.12
1.3382,106.82
1.3167,102.57
1.3011,98.372
1.2884,94.416
1.2727,91.192
1.2551,88.945
1.2405,87.675
1.2336,87.236
1.2395,87.236
1.2649,87.382
1.3196,87.626
1.4066,87.871
1.5249,88.261
1.6667,88.603
1.8016,88.847
1.9296,88.945
2.0674,88.799
2.1955,88.506
2.304,87.968
2.3891,87.284
2.4497,86.405
2.4888,85.477
2.5103,84.5
2.5191,83.426
2.5152,82.449
2.5005,81.423
2.4751,80.446
2.4448,79.567
2.4076,78.737
2.3597,78.053
2.3021,77.467
2.2375,77.027
2.1691,76.685
2.1007,76.343
2.0332,76.05
1.9697,75.66
1.9101,75.22
1.8553,74.731
1.8065,74.194
1.7693,73.608
1.74,73.168
1.7116,72.778
1.6862,72.436
1.6618,72.192
1.6373,72.436
1.6149,74.341
1.5934,80.055
1.5728,91.045
1.5523,106.48
1.5308,122.35
1.5073,133.98
1.4839,139.35
1.4653,140.67
1.4497,141.35
1.4321,143.26
1.4135,145.41
1.3959,145.8
1.3803,143.5
1.3627,139.3
1.3441,134.86
1.3255,131.1
1.305,127.92
1.2835,124.75
1.261,120.99
1.2434,116.74
1.2287,112.29
1.2102,107.95
1.1887,103.74
1.1652,99.593
1.1417,95.637
1.1173,91.925
1.0929,88.994
1.0704,87.187
1.0528,86.356
1.044,86.308
1.0508,86.405
1.0792,86.601
1.1261,86.796
1.1955,87.138
1.2991,87.529
1.4311,88.066
1.5797,88.408
1.738,88.603
1.8915,88.554
2.0235,88.359
2.1281,87.919
2.2053,87.284
2.2581,86.601
2.2884,85.721
2.3021,84.842
2.303,84.012
2.2942,83.23
2.2747,82.498
2.2473,81.716
2.2102,81.13
2.1642,80.446
2.1095,79.86
2.0479,79.323
1.9824,78.786
1.914,78.346
1.8456,77.858
1.781,77.418
1.7273,76.881
1.6813,76.197
1.6354,75.562
1.5943,74.878
1.5591,74.292
1.5298,73.803
1.5064,73.364
1.4897,72.875
1.479,72.729
1.4712,73.901
1.4653,78.541
1.4585,88.506
1.4545,103.5
1.4506,119.86
1.4428,132.51
1.4311,138.77
1.4154,140.04
1.3959,140.23
1.3754,141.6
1.3539,143.6
1.3333,144.04
1.3118,141.7
1.2903,137.25
1.2669,132.32
1.2424,128.17
1.2219,124.8
1.2033,121.48
1.1808,117.67
1.1593,113.37
1.1378,108.82
1.1173,104.43
1.0987,100.33
1.0841,96.418
1.0723,92.657
1.0626,89.434
1.0538,86.991
1.0459,85.575
1.043,85.135
1.0459,85.233
1.0567,85.575
1.085,85.868
1.1388,86.259
1.2239,86.601
1.3412,87.04
1.4878,87.529
1.652,87.968
1.8201,88.261
1.9795,88.31
2.1183,88.066
2.2307,87.626
2.3089,87.138
2.3617,86.405
2.4008,85.624
2.4252,84.745
2.4379,83.816
2.4389,82.937
2.4282,82.107
2.4066,81.277
2.3783,80.495
2.346,79.762
2.3089,79.03
2.2678,78.346
2.2307,77.76
2.1945,77.174
2.1525,76.734
2.1085,76.294
2.0645,75.904
2.0235,75.464
1.9863,74.976
1.9531,74.536
1.9257,74.097
1.9052,73.657
1.8905,73.217
1.8807,72.778
1.8749,72.436
1.8729,72.729
1.8729,75.22
1.8749,81.912
1.8759,94.074
1.8739,110
1.868,125.24
1.8573,135.54
1.8407,139.94
1.8211,141.11
1.7996,142.38
1.7771,144.92
1.7527,147.17
1.7322,147.26
1.7146,144.58
1.695,140.23
1.6745,135.93
1.654,132.37
1.6325,129.24
1.61,125.87
1.5885,121.91
1.566,117.47
1.5406,113.07
1.5142,108.73
1.4897,104.58
1.4731,100.47
1.4604,96.467
1.4438,92.95
1.4262,90.069
1.4086,88.164
1.392,87.187
1.3812,86.796
1.3861,86.747
1.4135,86.747
1.4702,86.991
1.5611,87.382
1.6823,87.822
1.828,88.31
1.9638,88.603
2.0919,88.75
2.2307,88.701
2.3607,88.506
2.4712,88.066
2.5582,87.529
2.6217,86.796
2.6647,85.966
2.6911,85.038
2.7048,84.061
2.7048,83.133
2.6911,82.156
2.6686,81.277
2.6383,80.495
2.5973,79.762
2.5464,79.03
2.4868,78.492
2.4233,77.906
2.3578,77.418
2.2933,76.978
2.2287,76.539
2.1681,76.05
2.1134,75.611
2.0655,75.073
2.0264,74.536
1.9961,74.097
1.9717,73.657
1.9501,73.217
1.9316,72.778
1.9169,72.436
1.9052,72.68
1.8944,75.073
1.8837,81.472
1.8729,93.292
1.8631,108.87
1.8514,124.02
1.8368,134.52
1.8231,139.3
1.8104,140.82
1.7957,142.19
1.7781,144.63
1.7586,146.83
1.738,146.83
1.7185,144.14
1.6999,139.79
1.6823,135.35
1.6628,131.63
1.6403,128.41
1.6168,125.04
1.5943,121.18
1.5767,116.93
1.5601,112.49
1.5406,108.19
1.521,103.99
1.5015,99.886
1.4848,95.783
1.4712,91.973
1.4575,88.847
1.4428,86.796
1.4311,85.721
1.4262,85.477
1.436,85.624
1.4604,85.868
1.5054,86.161
1.5846,86.552
1.7009,86.991
1.8495,87.431
2.0186,87.675
2.1945,87.822
2.3636,87.724
2.5142,87.529
2.6403,87.236
2.741,86.698
2.8152,85.966
2.8661,85.184
2.8944,84.305
2.9052,83.377
2.9062,82.351
2.8964,81.423
2.8759,80.544
2.8436,79.665
2.7996,78.883
2.7478,78.199
2.6862,77.564
2.6178,76.978
2.5455,76.49
2.4702,76.099
2.4027,75.66
2.3421,75.22
2.2805,74.78
2.2229,74.292
2.1711,73.803
2.1271,73.217
2.0899,72.729
2.0587,72.24
2.0332,71.654
2.0137,71.117
1.9971,70.873
1.9834,71.801
1.9687,75.855
1.956,84.793
1.9453,98.665
1.9316,114.64
1.9159,127.73
1.9003,135.25
1.8817,137.79
1.8602,138.62
1.8368,140.23
1.8143,142.62
1.7928,143.75
1.7713,142.28
1.7488,138.47
1.7292,133.78
1.7107,129.53
1.6882,126.07
1.6618,122.79
1.6334,119.23
1.6041,115.13
1.5748,110.73
1.5435,106.43
1.5122,102.23
1.4829,98.225
1.4545,94.367
1.4282,90.752
1.3988,87.675
1.3724,85.575
1.3529,84.403
1.3343,84.061
1.3265,84.11
1.3372,84.354
1.3754,84.696
1.4516,85.135
1.5689,85.624
1.7243,86.112
1.9081,86.601
2.1056,86.845
2.3011,86.943
2.4594,86.747
2.5846,86.356
2.6989,85.721
2.7908,84.989
2.8583,84.158
2.9032,83.279
2.9277,82.449
2.9335,81.57
2.9238,80.739
2.8983,79.909
2.8592,79.176
2.8084,78.492
2.7468,77.858
2.6833,77.369
2.6158,76.881
2.5367,76.49
2.4536,76.05
2.3705,75.611
2.2893,75.171
2.2121,74.731
2.1417,74.194
2.0811,73.608
2.0293,72.973
1.9853,72.387
1.9482,71.85
1.9218,71.361
1.9022,71.068
1.8827,71.312
1.8641,73.364
1.8456,79.372
1.826,90.655
1.8055,106.14
1.784,121.38
1.7625,131.88
1.739,136.23
1.7165,136.86
1.696,137.11
1.6755,138.42
1.6579,139.69
1.6413,139.01
1.6217,135.69
1.5982,130.95
1.5728,126.12
1.5455,122.11
1.5152,118.79
1.4829,115.37
1.4497,111.51
1.4174,107.26
1.3881,102.87
1.3627,98.665
1.3441,94.806
1.3294,91.192
1.3109,87.968
1.2893,85.477
1.2669,83.914
1.2454,83.279
1.2258,83.279
1.2141,83.621
1.216,84.012
1.2444,84.305
1.3089,84.745
1.4164,85.184
1.566,85.673
1.7224,86.112
1.8866,86.405
2.0802,86.503
2.2776,86.308
2.4594,85.868
2.61,85.233
2.7234,84.403
2.8006,83.572
2.8465,82.547
2.8651,81.57
2.8622,80.593
2.8426,79.762
2.8143,79.03
2.7771,78.346
2.7283,77.809
2.6686,77.32
2.6012,76.783
2.5269,76.343
2.4506,75.855
2.3754,75.415
2.303,74.976
2.2356,74.536
2.174,74.097
2.1193,73.657
2.0772,73.364
2.0459,73.12
2.0186,72.778
1.9951,72.533
1.9785,72.192
1.9668,71.801
1.9609,71.752
1.958,72.875
1.9599,77.027
1.9638,86.259
1.9668,100.37
1.9668,116.3
1.9638,129.19
1.9589,136.08
1.9511,138.03
1.9394,138.42
1.9247,139.6
1.9091,141.45
1.8944,141.94
1.8798,139.94
1.8641,135.93
1.8475,131.44
1.8309,127.53
1.8143,124.5
1.7957,121.57
1.7791,118.2
1.7634,114.25
1.7449,110.09
1.7243,105.99
1.7058,101.99
1.6901,98.128
1.6774,94.367
1.6657,90.948
1.654,88.164
1.6442,86.405
1.6373,85.624
1.6354,85.477
1.6422,85.624
1.6598,85.721
1.697,85.868
1.7693,86.112
1.8807,86.405
2.0313,86.796
2.2131,87.138
2.4115,87.284
2.61,87.236
2.7918,87.04
2.9443,86.698
3.0626,86.112
3.1457,85.477
3.1926,84.696
3.2141,83.816
3.2239,82.84
3.2219,81.912
3.2072,81.032
3.1789,80.251
3.1378,79.421
3.0841,78.737
3.0196,78.053
2.9462,77.467
2.8661,76.978
2.782,76.539
2.696,76.099
2.6188,75.757
2.5474,75.318
2.4731,74.878
2.4018,74.438
2.3363,73.999
2.2776,73.608
2.2258,73.168
2.1818,72.729
2.1447,72.24
2.1144,71.801
2.089,71.654
2.0674,73.071
2.0518,77.662
2.0381,87.382
2.0235,101.89
2.0088,117.81
1.9941,130.41
1.9775,137.2
1.957,139.3
1.9355,140.04
1.914,141.75
1.8915,143.94
1.869,144.82
1.8485,143.26
1.828,139.6
1.8104,135.54
1.7937,131.93
1.7742,128.95
1.7517,125.97
1.7263,122.55
1.6999,118.54
1.6725,114.34
1.6452,110.24
1.6178,106.19
1.5934,102.18
1.5728,98.177
1.5543,94.318
1.5415,90.997
1.5298,88.408
1.5152,86.943
1.5024,86.259
1.4995,86.112
1.5132,86.308
1.5552,86.552
1.6354,86.943
1.7586,87.236
1.9208,87.626
2.1134,87.919
2.3206,88.115
2.5249,88.066
2.6901,87.822
2.8201,87.382
2.9404,86.796
3.0381,86.161
3.1124,85.428
3.1623,84.549
3.1926,83.67
3.2063,82.742
3.2023,81.814
3.1838,80.886
3.1505,80.055
3.1036,79.225
3.0499,78.492
2.9883,77.858
2.9159,77.223
2.8368,76.783
2.7527,76.441
2.6667,76.099
2.5826,75.757
2.5005,75.318
2.4223,74.78
2.3509,74.292
2.2884,73.755
2.2336,73.217
2.1877,72.729
2.1535,72.192
2.1281,71.654
2.1065,71.654
2.087,73.364
2.0684,78.59
2.0518,88.994
2.0362,103.7
2.0205,119.13
2.0039,130.76
1.9844,136.47
1.9638,138.03
1.9423,138.77
1.9238,140.38
1.9052,142.28
1.8827,142.72
1.8583,140.72
1.8328,137.06
1.8055,133
1.7243,129.49
1.6158,126.6
1.5484,123.62
1.5005,120.16
1.4624,116.1
1.4291,111.8
1.3988,107.51
1.3763,103.26
1.3568,99.007
1.3333,94.806
1.3079,90.997
1.2815,87.968
1.2551,86.112
1.2287,85.282
1.2053,85.135
1.1926,85.233
1.2014,85.428
1.2434,85.721
1.3255,86.112
1.4282,86.503
1.5562,86.845
1.7283,86.991
1.9238,86.943
2.1232,86.747
2.3099,86.601
2.4702,86.601
2.5973,86.698
2.6911,86.503
2.7537,85.819
2.7918,84.696
2.8094,83.279
2.8123,82.009
2.8016,80.788
2.7801,79.811
2.7488,78.932
2.7058,78.248
2.651,77.809
2.5846,77.564
2.5064,77.564
2.4174,77.467
2.3226,77.369
2.2248,76.929
2.13,76.294
2.043,75.464
1.9726,74.536
1.915,73.657
1.8622,72.924
1.8182,72.436
1.783,72.192
1.7517,72.045
1.7214,72.094
1.6911,73.071
1.6598,76.343
1.6285,84.11
1.6002,97.004
1.5777,112.68
1.563,126.51
1.5533,134.61
1.5445,137.11
1.5347,137.06
1.521,137.45
1.5024,138.81
1.48,139.6
1.4526,138.47
1.4223,135.44
1.3891,131.44
1.3539,127.63
1.3187,124.31
1.2845,120.99
1.259,117.32
1.2395,113.17
1.219,108.87
1.1994,104.67
1.1818,100.67
1.1681,96.858
1.1544,93.292
1.1398,90.117
1.1212,87.724
1.0948,86.308
1.0645,85.819
1.0362,85.819
1.0196,85.966
1.0196,86.112
1.042,86.112
1.1007,86.161
1.2033,86.259
1.3509,86.405
1.5357,86.552
1.7419,86.698
1.9521,86.698
2.1486,86.698
2.3167,86.601
2.4506,86.308
2.5503,85.721
2.6129,84.842
2.6481,83.816
2.6706,82.693
2.6794,81.618
2.6764,80.69
2.6637,79.86
2.6403,79.176
2.609,78.59
2.5679,78.102
2.5161,77.662
2.4526,77.418
2.3793,77.174
2.3089,76.929
2.2395,76.539
2.1642,76.001
2.0899,75.318
2.0225,74.487
1.9668,73.852
1.9228,73.364
1.8905,73.071
1.868,72.875
1.8514,72.729
1.8368,72.68
1.825,73.168
1.8162,75.66
1.8084,82.156
1.8025,93.878
1.7957,109.31
1.7889,124.02
1.7801,133.69
1.7683,137.45
1.7546,137.98
1.739,138.57
1.7214,140.33
1.7028,141.79
1.6833,141.45
1.6628,138.67
1.6461,134.66
1.6325,130.76
1.6168,127.53
1.6041,124.6
1.5924,121.43
1.5806,117.67
1.5679,113.61
1.5543,109.61
1.5386,105.8
1.521,102.13
1.5024,98.47
1.4839,94.855
1.4653,91.632
1.4506,89.189
1.4379,87.675
1.4242,87.04
1.4164,86.943
1.4213,86.845
1.4487,86.796
1.5103,86.796
1.6119,86.991
1.7546,87.382
1.9326,87.724
2.1339,88.066
2.3412,88.164
2.5142,88.066
2.6559,87.675
2.7908,87.138
2.9032,86.405
2.9892,85.575
3.0508,84.598
3.0899,83.67
3.1114,82.693
3.1173,81.716
3.1065,80.935
3.0792,80.153
3.0371,79.567
2.9804,78.981
2.9179,78.492
2.8475,78.004
2.7634,77.418
2.6716,76.929
2.5787,76.49
2.4897,76.05
2.4076,75.562
2.3333,75.122
2.2698,74.683
2.217,74.292
2.172,73.901
2.1349,73.608
2.1056,73.217
2.0802,72.778
2.0557,72.533
2.0323,73.12
2.0098,76.05
1.9873,83.572
1.9638,96.321
1.9423,112.19
1.9208,126.6
1.8974,135.74
1.8729,139.16
1.8485,139.89
1.8221,140.72
1.7977,142.67
1.7732,144.29
1.7439,143.85
1.7136,141.16
1.6823,137.5
1.65,133.93
1.6188,130.95
1.5885,128.26
1.5591,125.19
1.5298,121.62
1.5015,117.62
1.4761,113.61
1.4585,109.66
1.4428,105.75
1.4242,101.74
1.4047,97.737
1.3842,94.074
1.3627,91.045
1.3412,89.043
1.3206,88.066
1.3089,87.675
1.3148,87.626
1.349,87.724
1.4194,87.871
1.5318,88.115
1.6598,88.408
1.8074,88.701
1.998,88.75
2.2082,88.701
2.4174,88.359
2.608,87.919
2.7703,87.382
2.9003,86.747
2.998,85.917
3.0674,85.038
3.1134,84.11
3.1378,83.182
3.1427,82.302
3.1329,81.423
3.1114,80.69
3.0782,80.007
3.0323,79.323
2.9756,78.737
2.9091,78.297
2.8338,77.858
2.7507,77.467
2.6598,77.027
2.567,76.636
2.477,76.197
2.393,75.66
2.3206,75.22
2.2581,74.731
2.1994,74.292
2.1466,73.803
2.0997,73.315
2.0606,72.875
2.0274,72.778
1.999,74.097
1.9736,78.786
1.9511,88.408
1.9306,102.72
1.9091,118.35
1.8729,130.66
1.8299,137.11
1.7967,139.01
1.7674,139.45
1.738,140.62
1.7067,142.43
1.6755,143.11
1.6442,141.55
1.6139,138.23
1.5846,134.42
1.5562,131.05
1.5288,128.26
1.5024,125.43
1.48,122.11
1.4585,118.3
1.4321,114.25
1.4047,110.09
1.3763,105.99
1.349,101.89
1.3216,97.737
1.2962,93.781
1.2727,90.41
1.2512,87.968
1.2317,86.552
1.217,85.966
1.2209,85.868
1.2346,85.966
1.26,86.161
1.3236,86.405
1.4291,86.698
1.5738,86.943
1.7507,87.138
1.9462,87.187
2.1457,87.04
2.3324,86.747
2.4946,86.259
2.6266,85.575
2.7165,84.793
2.7742,84.012
2.8192,83.23
2.8475,82.498
2.8592,81.716
2.8553,80.984
2.8358,80.3
2.8006,79.616
2.7527,78.932
2.6921,78.346
2.6197,77.858
2.5386,77.418
2.4506,76.978
2.3705,76.636
2.2942,76.246
2.2121,75.806
2.13,75.415
2.0538,74.927
1.9853,74.487
1.9257,73.901
1.8749,73.364
1.8319,72.875
1.7947,72.387
1.7644,71.996
1.74,72.045
1.7204,73.852
1.7028,79.323
1.6843,90.069
1.6637,105.31
1.6422,121.04
1.6188,132.66
1.5934,137.89
1.564,138.57
1.5327,138.23
1.5005,138.91
1.4682,140.13
1.437,140.04
1.4066,137.74
1.3812,133.88
1.3587,129.88
1.3333,126.56
1.306,123.72
1.2786,120.79
1.2512,117.37
1.2239,113.42
1.1945,109.31
1.1662,105.31
1.1388,101.35
1.1114,97.542
1.0831,93.976
1.0606,90.948
1.0401,88.75
1.0147,87.48
0.98827,87.138
0.96579,87.138
0.95406,87.187
0.96285,87.187
1.0049,87.138
1.088,87.187
1.2151,87.382
1.3812,87.626
1.5758,87.822
1.781,87.871
1.958,87.724
2.1105,87.382
2.26,86.845
2.3891,86.161
2.4907,85.379
2.565,84.5
2.6149,83.572
2.6442,82.693
2.6549,81.912
2.6481,81.228
2.6256,80.593
2.5885,80.055
2.5455,79.469
2.4946,78.981
2.4311,78.492
2.3568,77.906
2.2757,77.418
2.1896,76.978
2.1026,76.49
2.0176,75.904
1.9374,75.366
1.8641,74.78
1.8006,74.292
1.7468,73.852
1.7048,73.559
1.6755,73.12
1.6549,72.778
1.6373,72.973
1.6237,75.171
1.6119,81.57
1.6012,93.439
1.5894,109.31
1.5748,124.7
1.5582,134.81
1.5396,138.57
1.5171,138.57
1.4927,138.42
1.4721,139.6
1.4536,140.87
1.4321,140.38
1.4096,137.69
1.3861,133.78
1.3636,130.12
1.3421,127.19
1.3216,124.6
1.3011,121.72
1.2796,118.3
1.259,114.34
1.2405,110.29
1.2239,106.28
1.2131,102.38
1.2072,98.47
1.2014,94.758
1.1945,91.485
1.1877,89.043
1.1818,87.724
1.176,87.284
1.174,87.431
1.1848,87.529
1.216,87.626
1.2796,87.626
1.3832,87.675
1.5005,87.871
1.6393,88.115
1.8211,88.31
2.0215,88.31
2.2219,88.115
2.4047,87.675
2.5591,87.187
2.6813,86.503
2.7703,85.721
2.8299,84.94
2.8651,84.012
2.8817,83.035
2.8827,82.156
2.87,81.374
2.8456,80.593
2.8104,80.007
2.7654,79.469
2.7097,79.127
2.6422,78.786
2.565,78.492
2.4819,78.053
2.3978,77.467
2.3128,76.881
2.2297,76.246
2.1525,75.66
2.088,75.22
2.0342,74.878
1.9844,74.536
1.9394,74.194
1.8993,73.803
1.8661,73.413
1.8377,73.51
1.8123,75.171
1.7889,80.251
1.7674,90.41
1.7458,105.11
1.7253,120.74
1.7048,132.66
1.6862,138.67
1.6676,140.38
1.6461,141.06
1.6188,142.82
1.5875,145.02
1.5533,145.75
1.5181,144.04
1.4839,140.62
1.4516,136.76
1.4203,133.44
1.39,130.66
1.3607,127.87
1.3372,124.75
1.3177,121.18
1.2933,117.47
1.2669,113.76
1.2414,109.8
1.217,105.7
1.1935,101.3
1.173,97.053
1.1554,93.243
1.1398,90.41
1.1261,88.799
1.1173,88.261
1.1173,88.31
1.13,88.603
1.1632,88.994
1.2297,89.287
1.3353,89.531
1.48,89.678
1.6569,89.629
1.8524,89.434
2.0489,89.043
2.2317,88.701
2.3891,88.261
2.5171,87.724
2.6158,87.187
2.6794,86.552
2.7175,85.868
2.7458,85.038
2.7644,84.11
2.7722,83.035
2.7664,82.009
2.7458,80.984
2.7116,80.153
2.6647,79.469
2.607,79.03
2.5386,78.737
2.4624,78.541
2.3822,78.297
2.3079,78.004
2.2385,77.564
2.1662,76.978
2.0958,76.294
2.0303,75.611
1.9707,74.927
1.9374,74.341
1.9208,73.901
1.8964,73.608
1.87,73.413
1.8436,73.999
1.8192,76.783
1.7996,83.865
1.781,96.125
1.7615,111.8
1.7419,126.31
1.7204,135.69
1.6979,139.3
1.6745,139.94
1.6491,140.72
1.6227,142.72
1.5953,144.63
1.5679,144.48
1.5415,142.04
1.52,138.38
1.5005,134.81
1.477,131.78
1.4516,129.09
1.4242,126.16
1.3939,122.7
1.3617,118.74
1.3216,114.64
1.2864,110.49
1.261,106.38
1.2356,102.18
1.2131,97.932
1.1916,94.074
1.176,90.948
1.1623,88.945
1.1476,87.919
1.1359,87.675
1.1339,87.675
1.1525,87.871
1.2014,88.066
1.2854,88.261
1.4076,88.408
1.565,88.603
1.7468,88.554
1.9384,88.31
2.1026,87.871
2.2414,87.382
2.3763,86.796
2.4917,86.161
2.5806,85.428
2.6442,84.598
2.6862,83.719
2.7107,82.742
2.7195,81.716
2.7146,80.739
2.6979,79.86
2.6686,79.127
2.6276,78.492
2.5816,77.906
2.5298,77.564
2.4653,77.223
2.391,76.929
2.3099,76.539
2.2258,76.197
2.1417,75.757
2.0606,75.22
1.9844,74.731
1.915,74.194
1.8524,73.608
1.7977,73.168
1.7546,72.778
1.7185,72.533
1.6823,72.436
1.6491,73.071
1.6188,76.001
1.5904,83.23
1.5621,95.881
1.5367,111.95
1.5122,126.75
1.4888,136.13
1.4653,139.45
1.4409,139.55
1.4164,139.94
1.3949,141.55
1.3763,143.06
1.3529,142.58
1.3284,139.74
1.303,135.74
1.2747,132.07
1.2463,129.09
1.218,126.51
1.1877,123.62
1.1574,120.01
1.1271,115.91
1.0987,111.66
1.0782,107.55
1.0626,103.5
1.042,99.495
1.0205,95.637
1,92.315
0.97947,89.873
0.95894,88.408
0.93842,87.871
0.92278,87.822
0.91984,87.822
0.93939,87.822
0.99218,87.871
1.0841,88.066
1.1926,88.31
1.3206,88.603
1.4858,88.799
1.6686,88.799
1.8514,88.603
2.0186,88.31
2.1593,87.724
2.2688,87.04
2.348,86.308
2.4008,85.477
2.433,84.696
2.4487,83.865
2.4516,83.035
2.4428,82.351
2.4233,81.716
2.392,81.179
2.35,80.69
2.2981,80.251
2.2375,79.811
2.1691,79.372
2.0948,78.981
2.0176,78.492
1.9423,78.004
1.871,77.418
1.8035,76.783
1.7498,76.197
1.7038,75.611
1.6579,75.122
1.6168,74.683
1.5787,74.243
1.5455,73.901
1.5171,74.438
1.4917,77.418
1.4682,84.94
1.4467,97.932
1.4262,114.05
1.4066,128.36
1.391,136.86
1.3773,139.35
1.3607,139.01
1.3421,139.25
1.3236,140.72
1.306,142.04
1.2884,141.26
1.2708,138.18
1.2522,134.13
1.2317,130.36
1.2053,127.39
1.1808,124.6
1.1632,121.62
1.1496,117.91
1.1378,113.81
1.1222,109.56
1.1075,105.41
1.0938,101.45
1.0821,97.493
1.0704,93.781
1.0577,90.752
1.043,88.701
1.0264,87.675
1.0108,87.48
1.001,87.675
1.0029,87.871
1.0235,87.919
1.0733,87.968
1.1593,88.066
1.2845,88.164
1.4457,88.359
1.6325,88.506
1.827,88.408
2.0137,88.261
2.1799,87.871
2.3177,87.382
2.4233,86.747
2.4995,85.966
2.5455,85.184
2.5699,84.256
2.5836,83.377
2.5855,82.498
2.5767,81.716
2.5591,81.032
2.5298,80.446
2.4888,79.86
2.4379,79.323
2.3803,78.786
2.3167,78.346
2.2493,77.906
2.1877,77.418
2.13,76.978
2.0704,76.49
2.0108,76.001
1.9531,75.464
1.9003,75.073
1.8534,74.634
1.8104,74.243
1.7752,73.803
1.7478,73.413
1.7253,73.364
1.7077,74.683
1.6931,79.225
1.6823,89.043
1.6735,103.79
1.6637,120.06
1.651,132.81
1.6364,139.25
1.6197,140.72
1.5992,141.01
1.5748,142.58
1.5464,145.02
1.5171,146.39
1.4878,145.16
1.4594,141.89
1.437,137.98
1.4184,134.66
1.3969,131.98
1.3734,129.29
1.348,125.97
1.3226,122.11
1.2981,117.91
1.2737,113.81
1.2512,109.75
1.2317,105.7
1.2151,101.55
1.1994,97.542
1.1887,93.976
1.1799,91.29
2.5327,79.127
2.5064,78.737
2.4516,78.346
2.3812,78.004
2.305,77.613
2.2278,77.125
2.1554,76.636
2.089,76.099
2.0323,75.611
1.9834,75.122
1.9433,74.683
1.914,74.243
1.8915,73.755
1.871,73.755
1.8514,75.366
1.8328,80.446
1.8152,90.752
1.7986,105.6
1.783,121.43
1.7654,133.44
1.7458,139.25
1.7243,140.62
1.6999,141.11
1.6794,143.06
1.653,145.6
1.6266,146.92
1.6051,145.6
1.5797,142.23
1.5543,138.42
1.5288,135.2
1.5034,132.42
1.4761,129.63
1.4497,126.31
1.4223,122.35
1.3949,118.11
1.3675,113.9
1.348,109.66
1.3324,105.5
1.3138,101.25
1.2942,97.2
1.2737,93.683
1.2522,91.094
1.2326,89.531
1.217,88.799
1.2102,88.603
1.2199,88.603
1.2561,88.701
1.3284,88.847
1.4203,89.092
1.5376,89.287
1.6979,89.482
1.8827,89.531
2.0753,89.434
2.2571,89.092
2.4154,88.701
2.5445,88.115
2.6422,87.48
2.7136,86.698
2.7625,85.819
2.7937,84.842
2.8084,83.914
2.8084,83.035
2.7957,82.156
2.7742,81.374
2.741,80.593
2.695,79.909
2.6393,79.372
2.5738,78.883
2.5005,78.444
2.4213,78.004
2.3392,77.662
2.2581,77.32
2.1808,76.929
2.1153,76.441
2.0577,75.904
2.001,75.415
1.9501,74.878
1.9062,74.341
1.8671,73.852
1.8338,73.364
1.8065,73.168
1.782,74.292
1.7615,78.737
1.7419,88.164
1.7214,102.47
1.7009,118.3
1.6852,130.85
1.6706,137.45
1.651,139.25
1.6285,139.69
1.6041,141.35
1.5797,143.85
1.5562,145.36
1.5337,144.24
1.5112,140.92
1.4888,136.81
1.4653,133.1
1.4409,130.12
1.4213,127.24
1.4037,123.82
1.3803,119.77
1.3519,115.37
1.3226,110.92
1.2923,106.68
1.261,102.57
1.2287,98.47
1.1955,94.611
1.1623,91.387
1.13,89.043
1.0997,87.724
1.0733,87.236
1.0596,87.236
1.0616,87.431
1.0841,87.675
1.1388,87.919
1.2356,88.164
1.3754,88.506
1.5513,88.701
1.7498,88.799
1.9521,88.701
2.1437,88.408
2.3109,88.066
2.4467,87.48
2.5406,86.845
2.6041,86.063
2.652,85.233
2.6833,84.305
2.6989,83.426
2.7009,82.595
2.6882,81.912
2.6598,81.228
2.6168,80.69
2.563,80.153
2.4966,79.665
2.4203,79.176
2.3392,78.688
2.2639,78.248
2.1935,77.76
2.1193,77.32
2.045,76.734
1.9736,76.197
1.9081,75.611
1.8504,74.976
1.8016,74.487
1.7595,74.048
1.7234,73.608
1.694,73.315
1.6696,73.559
1.652,75.611
1.6383,81.667
1.6217,93.195
1.6041,108.82
1.5806,124.11
1.5591,134.42
1.5425,138.42
1.523,138.62
1.5005,138.67
1.4751,140.13
1.4487,141.94
1.4233,141.94
1.3949,139.45
1.3705,135.25
1.349,131
1.3236,127.48
1.2962,124.6
1.2669,121.57
1.2366,117.86
1.2072,113.66
1.1789,109.31
1.1525,105.06
1.1271,101.01
1.1026,97.102
1.0792,93.536
1.0635,90.557
1.0499,88.506
1.0293,87.48
1.0068,87.236
0.98925,87.382
0.98143,87.529
0.99218,87.626
1.0323,87.626
1.1124,87.724
1.2366,87.919
1.4008,88.115
1.5953,88.164
1.8045,88.164
1.9883,87.919
2.1466,87.48
2.3021,86.845
2.4379,86.112
2.5474,85.233
2.6325,84.354
2.694,83.475
2.7361,82.595
2.7595,81.912
2.7634,81.228
2.7498,80.69
2.7185,80.104
2.6774,79.567
2.6295,78.981
2.5689,78.444
2.4985,77.906
2.4213,77.467
2.3412,77.125
2.261,76.783
2.1838,76.343
2.1134,75.904
2.0538,75.366
2.0039,74.927
1.9648,74.536
1.9384,74.194
1.9218,73.852
1.912,73.559
1.9081,73.413
1.9062,74.487
1.9042,78.541
1.9013,87.675
1.8944,101.89
1.8837,118.01
1.869,131
1.8514,137.79
1.8328,139.45
1.8152,139.55
1.8016,140.87
1.7898,143.26
1.7761,144.63
1.7625,143.46
1.7478,139.99
1.7322,135.88
1.7146,132.22
1.695,129.29
1.6764,126.41
1.6559,123.04
1.6325,119.13
1.609,114.88
1.5894,110.68
1.5728,106.63
1.5562,102.62
1.5406,98.665
1.5259,94.855
1.5103,91.729
1.4956,89.531
1.479,88.408
1.4633,88.115
1.4545,88.115
1.4594,88.115
1.4907,88.115
1.5591,88.164
1.6481,88.359
1.7664,88.701
1.9335,88.994
2.1349,89.092
2.35,89.043
2.5582,88.799
2.7458,88.408
2.9003,87.871
3.0176,87.236
3.1007,86.503
3.1544,85.624
3.1848,84.696
3.1916,83.719
3.1828,82.84
3.1662,82.058
3.1378,81.277
3.0958,80.544
3.0411,79.86
2.9756,79.323
2.9003,78.737
2.8182,78.248
2.7312,77.809
2.6422,77.369
2.5552,76.978
2.4731,76.539
2.4037,76.099
2.3441,75.66
2.2874,75.22
2.2346,74.878
2.1906,74.438
2.1544,73.901
2.1251,73.51
2.0958,73.364
2.0714,74.78
2.0557,79.567
2.0401,89.531
2.0254,104.43
2.0127,120.55
2,133
1.9834,139.3
1.9629,140.87
1.9384,141.45
1.912,143.36
1.8827,146.04
1.8524,147.56
1.8231,146.43
1.7937,143.16
1.7644,139.35
1.7361,136.13
1.7087,133.34
1.6872,130.61
1.6667,127.24
1.6422,123.28
1.6168,119.03
1.5934,114.88
1.5709,110.83
1.5484,106.68
1.5259,102.57
1.5044,98.372
1.4829,94.513
1.4633,91.436
1.4448,89.434
1.4311,88.506
1.4242,88.359
1.4282,88.603
1.4545,89.043
1.5152,89.434
1.6178,89.824
1.7644,89.922
1.9501,89.873
2.1603,89.629
2.3773,89.385
2.5836,89.092
2.7654,88.945
2.914,88.603
3.0166,88.164
3.0841,87.431
3.1378,86.308
3.175,84.94
3.1975,83.572
3.2053,82.498
3.1984,81.863
3.1769,81.814
3.1417,81.814
3.0919,81.618
3.0313,80.935
2.9589,80.007
2.8837,78.786
2.8074,77.76
2.7204,76.929
2.6295,76.441
2.5396,76.197
2.4516,76.197
2.3695,76.294
2.2952,76.441
2.2317,76.343
2.1799,75.904
2.1378,75.122
2.1026,74.097
2.0743,73.657
2.0538,75.22
2.0381,80.886
2.0225,92.169
2.0078,107.95
1.9932,123.87
1.9775,135.2
1.9599,140.33
1.9394,141.35
1.9159,141.99
1.8905,143.85
1.8622,146
1.8319,146.43
1.8045,144.38
1.7781,140.57
1.7468,136.62
1.7146,133.49
1.6813,131
1.6481,128.36
1.6178,125.14
1.5924,121.23
1.5679,116.93
1.5455,112.44
1.522,107.95
1.4976,103.45
1.4721,99.056
1.4526,95.099
1.436,91.973
1.4145,89.824
1.392,88.554
1.3734,87.968
1.3646,87.822
1.3763,87.822
1.4174,87.919
1.4966,88.115
1.6168,88.359
1.7771,88.701
1.9668,88.945
2.1447,88.945
2.3128,88.554
2.4917,87.968
2.6588,87.431
2.8025,86.943
2.9179,86.405
3.0059,85.721
3.0684,84.94
3.1085,84.158
3.13,83.377
3.132,82.595
3.1144,81.716
3.0772,80.739
3.0293,79.567
2.9707,78.248
2.8964,77.174
2.8094,76.49
2.7155,76.294
2.6188,76.49
2.521,76.929
2.4272,77.662
2.3382,78.492
2.2581,78.786
2.175,78.102
2.1056,76.441
2.0665,74.536
2.0332,73.071
2,72.192
1.9697,71.85
1.9443,72.289
1.9218,74.536
1.8983,80.69
1.8739,92.364
1.8485,108.48
1.8211,124.8
1.7928,136.18
1.7634,140.87
1.738,141.31
1.7155,141.31
1.6901,142.67
1.6628,144.48
1.6334,144.58
1.6031,141.99
1.5738,137.74
1.5425,133.25
1.5093,129.44
1.4761,126.16
1.4399,122.99
1.4037,119.47
1.3695,115.61
1.3421,111.56
1.3187,107.51
1.2933,103.6
1.2659,99.886
1.2414,96.467
1.219,93.634
1.1965,91.485
1.172,90.362
1.1486,90.069
1.13,90.166
1.1202,90.313
1.129,90.313
1.1584,90.166
1.217,90.117
1.3187,90.117
1.4653,90.166
1.652,90.117
1.8631,89.873
2.0831,89.385
2.2933,88.75
2.479,88.066
2.6305,87.382
2.7458,86.503
2.8299,85.624
2.8827,84.745
2.9071,83.914
2.913,83.23
2.9071,82.595
2.8876,82.009
2.8563,81.423
2.8152,80.886
2.7625,80.495
2.6999,80.153
2.6285,79.909
2.5503,79.616
2.4673,79.176
2.3812,78.59
2.306,78.004
2.2375,77.369
2.1672,76.734
2.0997,76.246
2.0401,75.855
1.9892,75.464
1.9462,75.073
1.911,74.536
1.8817,74.243
1.8583,75.318
1.8377,79.811
1.8192,89.678
1.8025,104.62
1.7898,120.89
1.7771,133.2
1.7615,138.91
1.7419,139.94
1.7195,139.94
1.695,141.45
1.6696,143.8
1.6452,144.73
1.6217,143.11
1.6012,139.35
1.5836,135.2
1.5679,131.73
1.5562,129.05
1.5445,126.41
1.5298,123.23
1.5132,119.47
1.4956,115.37
1.4809,111.22
1.4692,107.16
1.4604,103.11
1.4536,99.007
1.4467,95.051
1.4379,91.778
1.4282,89.531
1.4164,88.506
1.4086,88.31
1.3754,88.506
1.3382,88.701
1.347,88.799
1.4027,88.847
1.5064,88.994
1.7146,89.238
1.9306,89.482
2.0978,89.531
2.2923,89.434
2.4839,89.092
2.652,88.701
2.7752,88.164
2.8612,87.529
2.9296,86.845
2.9775,86.063
3.0049,85.184
3.0156,84.256
3.0127,83.377
2.9951,82.547
2.9658,81.716
2.9257,80.984
2.8729,80.349
2.8094,79.811
2.737,79.323
2.6667,78.883
2.5748,78.541
2.4858,78.199
2.4194,77.76
2.3441,77.32
2.2698,76.881
2.1994,76.343
2.1359,75.904
2.0802,75.562
2.0332,75.122
1.9961,74.634
1.9668,74.194
1.9453,74.097
1.9296,75.757
1.9159,80.935
1.9042,91.436
1.8925,106.63
1.8798,122.75
1.8661,135.01
1.8504,140.92
1.8319,142.28
1.8094,142.67
1.784,144.24
1.7546,146.48
1.7224,147.51
1.6931,146.19
1.6667,143.16
1.6354,139.79
1.6041,137.01
1.5728,134.42
1.5415,131.44
1.5093,127.83
1.478,124.06
1.4467,120.35
1.4154,116.3
1.3861,111.66
1.3578,106.97
1.3372,102.91
1.3196,99.691
1.2991,96.76
1.2766,93.781
1.2542,90.948
1.2336,88.799
1.2199,87.675
1.2219,87.529
1.2815,88.408
1.3617,89.873
1.4448,91.387
1.5846,92.413
1.7683,92.657
1.9482,92.315
2.1222,92.071
2.3138,92.169
2.4976,92.511
2.6569,92.315
2.7849,91.29
2.8817,89.678
2.9521,87.871
2.9961,86.308
3.0156,84.989
3.0186,84.061
2.9971,83.426
2.9677,83.035
2.9413,82.595
2.9003,81.57
2.827,79.86
2.7537,78.004
2.696,76.734
2.6246,76.441
2.5445,76.734
2.4604,77.32
2.3763,77.467
2.2942,77.027
2.216,76.246
2.1447,75.66
2.086,75.66
2.0381,75.904
1.9941,75.855
1.956,75.22
1.9247,74.536
1.8993,74.878
1.8798,78.248
1.8631,86.405
1.8456,99.691
1.8289,115.32
1.8113,128.75
1.7937,137.01
1.7791,140.33
1.7644,141.5
1.7458,143.02
1.7224,145.16
1.6931,146.68
1.6598,146.19
1.6158,143.6
1.5758,139.94
1.5484,136.37
1.5191,133.49
1.4829,130.95
1.4526,128.17
1.4301,124.8
1.4106,120.74
1.392,116.35
1.3705,112.05
1.35,107.85
1.3314,103.84
1.3138,99.984
1.2962,96.321
1.2776,93.195
1.2581,90.997
1.2385,89.873
1.2248,89.531
1.2239,89.727
1.2385,89.922
1.2766,90.069
1.3539,90.069
1.4741,89.971
1.6354,89.922
1.828,89.727
2.0371,89.531
2.2463,89.238
2.4399,88.847
2.6246,88.359
2.7664,87.871
2.8495,87.382
2.9022,86.943
2.9306,86.405
2.9482,85.917
2.9541,85.282
2.9472,84.549
2.9159,83.67
2.8788,82.693
2.8446,81.716
2.7947,80.788
2.7331,79.909
2.6608,78.981
2.5826,78.102
2.4995,77.223
2.4008,76.441
2.3167,75.611
2.2551,74.976
2.1867,74.438
2.1085,74.048
2.043,73.755
2.001,73.364
1.9638,72.778
1.9316,71.996
1.9052,71.215
1.8837,70.97
1.8631,72.24
1.8456,76.685
1.8289,86.161
1.8094,100.81
1.7889,117.47
1.7674,131.29
1.7429,138.91
1.7165,141.01
1.6784,140.87
1.6315,141.5
1.5973,143.26
1.5718,144.43
1.5327,143.5
1.4936,140.48
1.4721,136.81
1.4526,133.54
1.4164,131.1
1.3812,128.95
1.3539,126.16
1.3128,122.7
1.2737,118.54
1.2375,114.2
1.1945,109.85
1.1584,105.41
1.1281,100.86
1.1075,96.321
1.0909,92.169
1.0762,89.043
1.0606,87.236
1.043,86.747
1.0391,86.991
1.044,87.48
1.0899,87.822
1.1984,87.919
1.2942,88.115
1.4526,88.408
1.7028,88.945
1.9443,89.385
2.1427,89.482
2.306,89.287
2.4594,88.799
2.5894,88.164
2.6911,87.626
2.7634,86.991
2.8084,86.161
2.8328,85.184
2.8407,84.158
2.8338,83.23
2.8104,82.547
2.7722,82.009
2.7263,81.277
2.6716,80.495
2.6041,79.567
2.5279,78.688
2.4418,78.053
2.35,77.662
2.2542,77.467
2.1593,77.32
2.0684,76.978
1.9853,76.636
1.9101,76.197
1.8426,75.757
1.7849,75.366
1.741,75.073
1.7077,74.683
1.6774,74.438
1.65,74.536
1.6266,76.246
1.607,81.57
1.5904,91.973
1.5758,106.87
1.5621,122.35
1.5455,133.54
1.5249,138.38
1.5005,138.86
1.478,138.67
1.4555,139.69
1.4262,141.26
1.3949,141.31
1.3627,139.06
1.3314,135.2
1.303,131.2
1.2766,127.87
1.2444,125.19
1.2092,122.45
1.1789,119.13
1.1505,115.17
1.1241,110.92
1.1056,106.63
1.0909,102.43
1.0733,98.421
1.0547,94.66
1.0332,91.485
1.0117,89.189
0.99218,87.871
0.97654,87.382
0.96774,87.284
0.97458,87.431
1.0088,87.48
1.0811,87.626
1.175,87.822
1.2962,87.968
1.4633,88.115
1.6618,88.115
1.8739,87.919
2.0802,87.529
2.2659,87.138
2.4203,86.698
2.5406,86.308
2.6285,85.819
2.6872,85.038
2.7234,84.012
2.7419,82.791
2.7429,81.716
2.7283,81.179
2.7038,81.032
2.6676,81.13
2.6197,80.984
2.5621,80.446
2.4956,79.372
2.4233,78.199
2.347,77.223
2.2708,76.734
2.1955,76.685
2.1232,76.685
2.0606,76.636
2.0068,76.294
1.9541,75.806
1.9062,75.22
1.8651,74.78
1.8309,74.438
1.8016,74.194
1.7771,73.852
1.7586,73.657
1.7458,74.341
1.739,77.858
1.7361,86.308
1.7361,100.23
1.738,116.79
1.74,130.76
1.739,138.42
1.7312,140.43
1.7136,140.38
1.6862,141.26
1.652,143.16
1.6139,144.43
1.5738,143.5
1.5376,140.57
1.5064,136.86
1.4809,133.54
1.4614,130.85
1.4448,128.31
1.4262,125.19
1.4037,121.43
1.3773,117.32
1.347,113.17
1.3187,109.12
1.2942,105.16
1.2747,101.35
1.2581,97.591
1.2454,94.367
1.2336,91.876
1.2229,90.362
1.219,89.727
1.2239,89.531
1.2444,89.482
1.2942,89.385
1.3822,89.287
1.5142,89.385
1.6901,89.531
1.8993,89.824
2.1251,89.971
2.347,89.922
2.5474,89.727
2.7146,89.385
2.8299,88.799
2.9071,88.261
2.9658,87.529
3.0039,86.796
3.0225,85.868
3.0235,84.842
3.0108,83.816
2.9814,82.791
2.9365,81.814
2.8759,80.935
2.8016,80.153
2.7155,79.372
2.6207,78.59
2.5298,77.906
2.4428,77.418
2.349,77.125
2.2571,76.881
2.1711,76.685
2.0938,76.441
2.0264,76.099
1.9697,75.806
1.9228,75.415
1.8876,75.122
1.8631,74.731
1.8465,74.243
1.8358,73.755
1.828,73.608
1.8201,75.171
1.8113,80.446
1.8006,91.045
1.7869,106.38
1.7703,122.45
1.7517,134.37
1.7302,139.99
1.7058,141.16
1.6784,141.55
1.65,143.26
1.6266,145.56
1.6031,146.48
1.5748,144.92
1.5435,141.6
1.5093,138.03
1.4741,135.2
1.4399,132.81
1.4057,130.22
1.3705,126.85
1.3353,122.94
1.3021,118.69
1.2717,114.64
1.2444,110.63
1.2258,106.63
1.2141,102.43
1.2014,98.225
1.1887,94.513
1.175,91.68
1.1623,89.971
1.1544,89.238
1.1584,89.043
1.1867,89.092
1.2493,89.189
1.3539,89.189
1.5005,89.238
1.654,89.287
1.8172,89.385
2.0127,89.385
2.2121,89.287
2.3978,89.092
2.5582,88.75
2.6872,88.115
2.7859,87.382
2.8553,86.503
2.9022,85.673
2.9326,84.842
2.9482,84.061
2.9492,83.279
2.9355,82.498
2.9091,81.716
2.871,80.984
2.8211,80.3
2.7586,79.762
2.6833,79.323
2.5973,78.883
2.5044,78.492
2.4096,78.053
2.3157,77.613
2.2258,77.125
2.1417,76.636
2.0733,76.099
2.0166,75.66
1.9638,75.171
1.9179,74.731
1.8798,74.243
1.8495,73.755
1.824,73.413
1.8016,73.852
1.7801,76.783
1.7595,84.158
1.739,97.004
1.7175,112.98
1.694,127.43
1.6716,136.37
1.65,139.5
1.6246,139.79
1.5953,140.43
1.565,142.28
1.5337,143.85
1.5034,143.6
1.4721,141.16
1.4418,137.69
1.4135,134.37
1.3851,131.63
1.3578,129
1.3363,126.07
1.3187,122.5
1.2972,118.45
1.2747,114.3
1.2512,110.19
1.2297,106.04
1.2092,101.79
1.1887,97.542
1.1681,93.634
1.1457,90.508
1.1222,88.408
1.1026,87.431
1.0919,87.187
1.0958,87.236
1.1222,87.431
1.1838,87.626
1.2854,87.919
1.4282,88.261
1.6041,88.506
1.7996,88.701
1.998,88.701
2.1857,88.408
2.348,88.115
2.479,87.529
2.5777,86.943
2.6413,86.112
2.6784,85.233
2.7058,84.305
2.7234,83.377
2.7302,82.449
2.7263,81.57
2.7107,80.739
2.6813,79.909
2.6383,79.225
2.5816,78.688
2.5122,78.248
2.4321,77.858
2.3421,77.613
2.2581,77.32
2.1789,76.929
2.0948,76.49
2.0117,75.904
1.9365,75.22
1.87,74.536
1.8133,73.852
1.7644,73.364
1.7224,72.924
1.6862,72.533
1.654,72.24
1.6256,72.289
1.6041,73.803
1.5865,78.737
1.5728,89.043
1.5611,104.23
1.5445,120.74
1.523,133.25
1.4956,139.25
1.4633,140.18
1.4272,139.69
1.39,140.23
1.3558,141.55
1.3236,141.89
1.2933,140.18
1.2698,136.81
1.2502,133.05
1.2268,129.88
1.2023,127.29
1.1779,124.75
1.1544,121.48
1.131,117.57
1.1075,112.98
1.085,108.24
1.0655,103.55
1.0508,99.3
1.0401,95.49
1.0332,92.364
1.0283,90.215
1.0186,89.238
1.0059,88.994
0.99609,89.287
0.99511,89.629
1.0147,89.629
1.0655,89.434
1.1554,89.238
1.2874,89.434
1.4575,89.824
1.652,90.069
1.8553,89.727
2.0293,88.847
2.176,87.724
2.3167,86.796
2.436,86.259
2.5279,85.917
2.5934,85.673
2.6354,85.184
2.6588,84.354
2.6676,83.182
2.6637,81.814
2.6491,80.495
2.6237,79.421
2.5924,78.59
2.5543,78.102
2.5064,77.809
2.4487,77.662
2.3812,77.76
2.3069,77.906
2.2307,78.102
2.1564,78.053
2.086,77.564
2.0215,76.636
1.9648,75.562
1.9179,74.487
1.8807,73.755
1.8534,73.315
1.8338,73.12
1.8192,72.973
1.8074,73.12
1.7977,74.438
1.7898,78.932
1.783,88.603
1.7761,103.35
1.7674,119.62
1.7566,132.32
1.7439,138.42
1.7253,139.35
1.7067,138.91
1.6862,139.79
1.6588,141.75
1.6285,142.82
1.5973,141.7
1.566,138.57
1.5357,134.76
1.5054,131.44
1.4761,128.8
1.4487,126.41
1.4223,123.48
1.3959,119.91
1.3744,115.86
1.3558,111.66
1.3363,107.7
1.3167,103.84
1.2991,100.03
1.2825,96.369
1.2669,93.048
1.2512,90.606
1.2356,89.189
1.2248,88.701
1.2258,88.554
1.2493,88.554
1.304,88.506
1.3793,88.506
1.4819,88.603
1.6315,88.847
1.8162,89.043
2.0196,89.092
2.2229,88.994
2.4096,88.701
2.5689,88.31
2.696,87.871
2.7908,87.236
2.8563,86.503
2.8964,85.624
2.913,84.696
2.913,83.67
2.9032,82.84
2.8817,82.058
2.8475,81.277
2.7996,80.593
2.7419,79.909
2.6755,79.225
2.5992,78.737
2.5161,78.248
2.4291,77.809
2.3412,77.418
2.2532,77.027
2.1769,76.734
2.1095,76.343
2.043,76.05
1.9824,75.757
1.9296,75.366
1.8866,74.927
1.8514,74.487
1.8231,73.901
1.7996,73.364
1.781,73.217
1.7664,74.683
1.7546,79.616
1.7468,89.873
1.74,104.92
1.7302,121.04
1.7175,133.49
1.6999,139.69
1.6794,141.01
1.6559,141.11
1.6295,142.38
1.6022,144.63
1.5738,145.85
1.5464,144.87
1.5191,141.94
1.4907,138.33
1.4673,135.05
1.4477,132.42
1.4242,129.88
1.3978,126.8
1.3695,123.14
1.3402,118.98
1.3118,114.78
1.2854,110.63
1.261,106.43
1.2395,102.23
1.217,98.03
1.1926,94.123
1.174,90.997
1.1603,88.945
1.1476,88.115
1.1417,88.115
1.1535,88.554
1.1935,89.043
1.2717,89.482
1.393,89.678
1.5523,89.678
1.741,89.482
1.9433,89.287
2.1408,89.238
2.3216,89.043
2.4594,88.75
2.563,88.115
2.653,87.382
2.7243,86.601
2.7771,85.868
2.8113,85.184
2.8299,84.354
2.8338,83.475
2.825,82.595
2.8025,81.667
2.7654,80.788
2.7146,80.104
2.6598,79.469
2.6002,78.981
2.5298,78.59
2.4506,78.199
2.3675,77.76
2.2845,77.174
2.2014,76.636
2.1212,76.05
2.0479,75.611
1.9824,75.318
1.9257,74.976
1.8778,74.683
1.8368,74.243
1.8045,73.755
1.7791,73.217
1.7556,73.071
1.7322,74.194
1.7097,78.248
1.6882,87.04
1.6667,100.81
1.6452,116.64
1.6217,129.88
1.5973,137.45
1.5728,139.79
1.5484,140.23
1.5279,141.35
1.5093,143.55
1.4878,145.07
1.4663,144.38
1.4457,141.55
1.4252,137.79
1.4047,134.37
1.3822,131.49
1.3587,128.75
1.3353,125.58
1.3118,121.72
1.2884,117.57
1.2659,113.22
1.2502,108.97
1.2375,104.62
1.2209,100.18
1.2033,95.881
1.1838,92.12
1.1632,89.287
1.1427,87.675
1.1261,86.943
1.1202,86.845
1.132,86.991
1.1711,87.187
1.2463,87.382
1.3392,87.529
1.4555,87.724
1.6109,87.919
1.7889,87.919
1.9717,87.822
2.1437,87.529
2.2952,87.236
2.4174,86.747
2.5093,86.161
2.5728,85.428
2.6119,84.549
2.6305,83.67
2.6325,82.791
2.6217,82.107
2.6012,81.57
2.5709,81.13
2.5318,80.544
2.4829,79.811
2.4262,78.932
2.3617,78.053
2.2903,77.369
2.2248,76.881
2.1623,76.441
2.0909,76.001
2.0186,75.611
1.956,75.366
1.9022,75.171
1.8495,74.976
1.8016,74.536
1.7595,73.901
1.7234,73.168
1.6911,72.533
1.6637,72.045
1.6383,71.801
1.6129,71.996
1.5885,73.364
1.564,78.004
1.5386,87.724
1.5161,102.43
1.4936,118.74
1.4653,131.44
1.435,137.59
1.4037,138.57
1.3724,137.94
1.3402,138.62
1.3089,140.43
1.2786,141.45
1.2473,140.18
1.2151,136.86
1.1848,132.86
1.1623,129.39
1.1437,126.51
1.1212,123.82
1.0958,120.74
1.0714,117.03
1.0469,112.93
1.0225,108.82
1,104.72
0.97849,100.67
0.95797,96.809
0.93842,93.195
0.91789,90.215
0.89736,88.408
0.88465,87.626
0.87781,87.529
0.8739,87.822
0.88465,87.919
0.92278,87.871
0.99609,87.871
1.1095,87.919
1.259,88.115
1.436,88.31
1.6246,88.359
1.8104,88.261
1.9775,87.871
2.1056,87.284
2.2014,86.552
2.2805,85.673
2.3382,84.793
2.3763,83.914
2.3969,83.182
2.4047,82.547
2.4018,81.912
2.3871,81.277
2.3607,80.69
2.3255,80.104
2.2796,79.567
2.2326,78.981
2.1818,78.541
2.1202,78.102
2.0518,77.76
1.9804,77.32
1.9101,76.734
1.8436,76.099
1.782,75.415
1.7273,74.634
1.6823,73.852
1.6471,73.217
1.6188,72.729
1.5992,72.24
1.5885,71.752
1.5826,71.215
1.5787,71.508
1.5748,74.048
1.5689,81.179
1.5601,94.074
1.5484,110.83
1.5327,126.41
1.5132,136.32
1.4927,139.5
1.4712,139.11
1.4497,138.91
1.433,140.38
1.4184,142.14
1.4008,142.23
1.3832,140.04
1.3646,136.37
1.3431,132.66
1.3216,129.53
1.3001,126.85
1.2815,123.92
1.2659,120.35
1.2522,116.35
1.2434,112.39
1.2385,108.43
1.2385,104.62
1.2395,100.72
1.2375,96.809
1.2336,93.243
1.2278,90.362
1.2219,88.603
1.216,87.919
1.217,87.919
1.2317,88.066
1.2698,88.115
1.3412,88.066
1.4497,88.066
1.5718,88.164
1.7107,88.506
1.8866,88.75
2.0782,88.799
2.2659,88.554
2.434,88.115
2.5738,87.48
2.6823,86.698
2.7615,85.868
2.8133,84.989
2.8446,84.061
2.8592,83.133
2.8592,82.302
2.8456,81.472
2.8211,80.886
2.7859,80.3
2.74,79.86
2.6833,79.372
2.6178,78.932
2.5455,78.346
2.4682,77.906
2.3891,77.467
2.3128,77.125
2.2395,76.734
2.172,76.441
2.1163,76.197
2.0694,75.855
2.0254,75.464
1.9883,75.073
1.957,74.487
1.9316,73.901
1.911,73.315
1.8944,72.778
1.8798,73.217
1.8651,76.246
1.8504,83.816
1.8338,96.858
1.8152,113.17
1.7986,127.92
1.782,136.86
1.7605,139.69
1.7341,139.55
1.7038,139.99
1.6716,142.04
1.6383,144.24
1.6061,144.58
1.5748,142.43
1.5435,138.91
1.5142,135.44
1.4858,132.56
1.4633,130.07
1.4438,127.29
1.4203,123.92
1.3959,120.16
1.3724,116.3
1.35,112.49
1.3304,108.63
1.3128,104.38
1.2972,99.74
1.2835,95.197
1.2698,91.387
1.2581,88.847
1.2493,87.822
1.2473,87.724
1.2561,88.066
1.2825,88.31
1.3382,88.359
1.4321,88.31
1.565,88.359
1.7331,88.603
1.9247,89.092
2.1241,89.482
2.3157,89.629
2.4848,89.287
2.6246,88.603
2.7224,87.724
2.7879,86.796
2.8397,85.868
2.8778,84.989
2.9013,84.061
2.912,83.035
2.9091,82.107
2.8935,81.228
2.8661,80.495
2.8289,79.86
2.7801,79.372
2.7195,78.883
2.6491,78.444
2.5797,78.004
2.5103,77.564
2.434,77.125
2.3539,76.685
2.2757,76.099
2.2033,75.464
2.1378,74.78
2.0811,74.194
2.0342,73.608
1.9971,73.168
1.9687,72.778
1.9462,72.485
1.9286,72.289
1.914,73.071
1.8993,76.441
1.8837,84.403
1.8671,97.444
1.8485,113.12
1.828,126.85
1.8045,135.2
1.782,138.13
1.7586,138.62
1.7341,139.69
1.7087,141.79
1.6823,143.6
1.6598,143.6
1.6383,141.35
1.6129,137.89
1.5846,134.42
1.5552,131.44
1.5259,128.61
1.4966,125.63
1.4682,122.06
1.4379,118.06
1.4086,113.9
1.3822,109.8
1.3568,105.75
1.3372,101.69
1.3216,97.591
1.303,93.927
1.2845,90.85
1.2678,88.799
1.2532,87.675
1.2444,87.284
1.2493,87.382
1.2776,87.529
1.3412,87.675
1.4428,87.822
1.5836,87.822
1.7566,87.822
1.9218,87.822
2.0821,87.675
2.2796,87.382
2.48,86.991
2.6422,86.405
2.7683,85.721
2.8631,84.94
2.9316,84.012
2.9765,82.937
3.002,81.863
3.0117,80.788
3.0068,79.811
2.9912,78.883
2.9638,78.004
2.9238,77.174
2.8739,76.539
2.8143,76.05
2.7449,75.66
2.6686,75.415
2.5885,75.122
2.5054,74.683
2.4233,74.243
2.3441,73.803
2.2688,73.413
2.2014,72.973
2.1476,72.485
2.1036,71.947
2.0616,71.361
2.0244,70.97
1.9922,70.726
1.9629,70.726
1.9355,71.508
1.9091,74.487
1.8817,81.618
1.8534,94.123
1.825,110.05
1.7947,124.85
1.7683,134.37
1.7419,137.59
1.7097,137.54
1.6755,137.54
1.6413,139.01
1.609,140.67
1.5787,140.67
1.5494,138.42
1.5191,134.66
1.4888,130.8
1.4594,127.63
1.4311,124.99
1.4096,122.35
1.392,119.33
1.3724,115.81
1.3529,111.95
1.3333,107.8
1.3148,103.45
1.2972,99.007
1.2796,94.806
1.26,91.29
1.2375,88.75
1.2141,87.187
1.1926,86.405
1.1799,86.161
1.1818,86.112
1.2043,86.161
1.2561,86.405
1.346,86.698
1.478,86.796
1.6471,86.747
1.8426,86.405
2.0489,86.259
2.2493,86.161
2.4282,86.308
2.5787,86.405
2.696,86.308
2.7742,85.673
2.824,84.5
2.8602,82.986
2.8817,81.814
2.8895,81.13
2.8817,80.788
2.8583,80.3
2.8211,79.421
2.7722,78.444
2.7136,77.613
2.6461,77.32
2.5699,77.369
2.4868,77.467
2.4096,77.32
2.3353,76.685
2.2571,75.855
2.1799,75.171
2.1075,74.731
2.0411,74.438
1.9814,73.999
1.9296,73.315
1.8866,72.387
1.8495,71.557
1.8172,71.166
1.7908,71.947
1.7722,75.366
1.7586,83.426
1.7439,96.809
1.7263,113.12
1.7077,127.39
1.6882,135.69
1.6657,138.18
1.6413,138.03
1.6149,138.42
1.5885,139.6
1.563,139.94
1.5396,138.13
1.5191,134.37
1.5044,129.93
1.4936,125.92
1.479,122.45
1.4604,119.13
1.4399,115.76
1.4194,112.29
1.3988,108.82
1.3763,105.36
1.3519,101.89
1.3284,98.177
1.3069,94.416
1.2864,91.045
1.2708,88.603
1.2571,87.382
1.2395,87.04
1.2229,87.187
1.2121,87.187
1.216,87.04
1.2454,86.796
1.3118,86.747
1.4233,86.796
1.5787,86.796
1.7742,86.698
1.9951,86.356
2.2219,85.966
2.4125,85.575
2.5699,85.038
2.7175,84.403
2.8407,83.67
2.9345,82.791
3,82.009
3.0411,81.374
3.0635,80.984
3.0714,80.593
3.0645,80.153
3.043,79.762
3.0078,79.225
2.9648,78.932
2.914,78.737
2.8524,78.688
2.782,78.492
2.7058,78.199
2.6256,77.662
2.5464,76.929
2.4702,76.05
2.3988,75.171
2.3343,74.487
2.2776,74.048
2.2297,73.755
2.1906,73.51
2.1613,73.12
2.1398,72.533
2.1212,72.24
2.1065,73.12
2.0948,76.881
2.0841,85.379
2.0733,98.909
2.0626,114.73
2.0489,127.92
2.0332,135.2
2.0156,137.25
1.9961,137.45
1.9765,138.47
1.957,140.33
1.9335,140.92
1.9091,139.3
1.8837,136.32
1.8573,133.54
1.8309,131.63
1.8065,129.73
1.782,127.04
1.7566,123.38
1.7331,119.23
1.7107,115.61
1.6891,112.49
1.6716,109.51
1.6569,106.04
1.6393,102.18
1.6207,98.225
1.6012,94.611
1.5816,91.876
1.5621,90.117
1.5445,89.043
1.5337,88.261
1.5386,87.431
1.5709,86.943
1.6403,86.991
1.7312,87.724
1.8485,88.701
2.0147,89.238
2.2111,89.189
2.4194,88.506
2.6217,87.675
2.8016,86.991
2.9501,86.503
3.0645,86.063
3.1466,85.477
3.2004,84.793
3.2326,84.061
3.2463,83.182
3.2424,82.351
3.2258,81.472
3.1994,80.69
3.1613,79.86
3.1095,79.176
3.045,78.688
2.9707,78.346
2.8895,78.053
2.8035,77.809
2.7146,77.418
2.6266,76.978
2.5425,76.441
2.4692,75.855
2.4047,75.366
2.3421,74.878
2.2864,74.487
2.2385,74.194
2.2004,73.803
2.1681,73.364
2.1388,73.071
2.1124,73.413
2.087,76.05
2.0616,83.035
2.0342,95.295
2.0049,110.92
1.9785,125.43
1.9531,134.66
1.9247,138.03
1.8964,138.42
1.868,138.91
1.8416,140.57
1.8182,142.14
1.7967,142.04
1.7771,140.04
1.7576,137.06
1.7361,134.22
1.7136,131.93
1.694,129.83
1.6735,127.14
1.6461,123.82
1.6158,119.91
1.5836,116
1.5513,112
1.522,107.95
1.4976,103.79
1.477,99.593
1.4145,95.783
1.3314,92.608
1.2815,90.41
1.2532,89.189
1.2385,88.75
1.2346,88.603
1.2512,88.603
1.2981,88.603
1.3842,88.603
1.5122,88.603
1.6794,88.554
1.8749,88.408
2.0831,88.261
2.2874,87.919
2.4741,87.626
2.6334,87.187
2.7478,86.601
2.827,85.917
2.8935,85.038
2.9413,84.11
2.9717,83.182
2.9863,82.253
2.9873,81.472
2.9746,80.739
2.9482,80.055
2.9091,79.469
2.8592,78.981
2.7977,78.492
2.7331,78.004
2.6647,77.564
2.5855,77.125
2.5005,76.734
2.4135,76.343
2.3275,76.001
2.2454,75.562
2.1711,74.976
2.1046,74.487
2.0459,73.999
1.9961,73.413
1.9521,72.924
1.915,72.485
1.8856,72.778
1.8612,75.22
1.8377,81.814
1.8143,93.683
1.7918,109.12
1.7703,123.72
1.7468,133.34
1.7234,137.11
1.7009,137.45
1.6764,137.69
1.65,139.11
1.6217,140.72
1.5973,140.82
1.5748,138.81
1.5494,135.64
1.523,132.51
1.4976,129.93
1.4721,127.53
1.4457,124.85
1.4203,121.57
1.3949,117.76
1.3705,113.76
1.346,109.75
1.3236,105.75
1.3011,101.55
1.2835,97.346
1.2688,93.439
1.2493,90.166
1.2258,88.066
1.2023,86.943
1.1828,86.601
1.175,86.747
1.1877,86.991
1.2326,87.187
1.3167,87.382
1.4418,87.48
1.6041,87.529
1.7654,87.529
1.9267,87.431
2.1075,87.187
2.2835,86.747
2.4399,86.161
2.5699,85.575
2.6706,84.745
2.7439,83.914
2.7947,83.133
2.826,82.253
2.8407,81.472
2.8416,80.739
2.8289,80.055
2.8035,79.372
2.7664,78.737
2.7155,78.199
2.651,77.76
2.5748,77.32
2.4907,76.978
2.3998,76.636
2.3069,76.246
2.216,75.806
2.1281,75.366
2.0459,74.78
1.9717,74.243
1.911,73.755
1.8612,73.217
1.8123,72.875
1.7683,72.533
1.7302,72.436
1.6989,73.364
1.6725,76.929
1.6481,85.184
1.6256,98.616
1.6041,114.49
1.5806,127.92
1.5552,135.3
1.5269,137.06
1.5015,136.37
1.4761,136.42
1.4448,137.59
1.4106,138.42
1.3754,137.45
1.3412,134.57
1.3079,131.05
1.2766,127.92
1.2463,125.38
1.218,122.94
1.1916,119.91
1.1662,116.35
1.1466,112.49
1.13,108.53
1.1124,104.72
1.0958,100.91
1.0802,97.053
1.0645,93.341
1.0479,90.215
1.0303,88.164
1.0117,87.138
0.99413,86.943
0.98338,87.04
0.98925,87.138
1.0244,87.138
1.0811,87.138
1.1681,87.187
1.304,87.284
1.4809,87.431
1.6862,87.431
1.9022,87.236
2.1114,86.845
2.2981,86.308
2.4526,85.624
2.5718,84.793
2.6579,84.012
2.7155,83.133
2.7468,82.302
2.7586,81.57
2.7595,80.886
2.7488,80.251
2.7263,79.762
2.6921,79.225
2.6452,78.737
2.5836,78.297
2.5112,77.858
2.4301,77.418
2.3431,77.027
2.2551,76.685
2.1701,76.294
2.0958,75.855
2.0313,75.366
1.9677,74.878
1.9101,74.341
1.8602,73.803
1.8192,73.315
1.7859,72.778
1.7605,72.485
1.7439,73.12
1.7331,76.099
1.7273,83.572
1.7234,96.321
1.7195,112.24
1.7146,126.56
1.7058,135.1
1.6931,137.59
1.6745,137.11
1.652,137.11
1.6276,138.62
1.6041,140.23
1.5816,140.18
1.5611,137.98
1.5406,134.76
1.52,131.63
1.5005,129.19
1.4839,126.95
1.4682,124.26
1.4497,120.89
1.4291,116.98
1.4076,113.07
1.3851,109.12
1.3636,105.16
1.3431,101.11
1.3255,97.2
1.3099,93.536
1.2952,90.801
1.2815,89.189
1.2717,88.408
1.2678,88.31
1.2717,88.31
1.2942,88.261
1.346,88.164
1.437,88.164
1.5709,88.31
1.7449,88.408
1.9462,88.408
2.1593,88.31
2.3646,88.066
2.5503,87.724
2.7077,87.236
2.8192,86.601
2.8954,85.868
2.957,84.989
3,84.061
3.0244,83.182
3.0332,82.302
3.0274,81.472
3.0068,80.788
2.9726,80.153
2.9267,79.616
2.869,79.03
2.7996,78.59
2.7283,78.199
2.6549,77.809
2.5709,77.418
2.4809,76.978
2.3891,76.49
2.3001,76.001
2.2151,75.464
2.1369,75.073
2.0694,74.536
2.0127,74.097
1.9648,73.608
1.9257,73.071
1.8964,72.924
1.8729,74.243
1.8504,78.981
1.8289,88.847
1.8084,103.5
1.7889,119.33
1.7683,131.44
1.7458,137.3
1.7214,138.38
1.696,138.18
1.6696,139.25
1.6422,141.45
1.6149,142.87
1.5924,142.14
1.5699,139.55
1.5435,136.37
1.5191,133.54
1.4966,131.2
1.4721,128.7
1.4467,125.63
1.4223,122.01
1.3978,118.06
1.3705,114.05
1.3441,110.05
1.3196,106.04
1.3001,101.89
1.2845,97.737
1.2659,94.123
1.2463,91.387
1.2258,89.727
1.2063,88.945
1.1935,88.75
1.1965,88.75
1.2248,88.75
1.2893,88.75
1.3959,88.799
1.5445,88.847
1.7292,88.847
1.9071,88.75
2.0782,88.408
2.2639,87.968
2.4418,87.431
2.5973,86.796
2.7234,86.112
2.8201,85.379
2.8905,84.598
2.9384,83.816
2.9677,82.986
2.9804,82.253
2.9795,81.472
2.9629,80.788
2.9326,80.153
2.8905,79.616
2.8358,79.03
2.7693,78.541
2.6931,78.102
2.608,77.76
2.5171,77.418
2.4233,77.027
2.3304,76.685
2.2405,76.246
2.1554,75.757
2.0792,75.171
2.0176,74.634
1.9668,74.048
1.9179,73.413
1.8739,72.973
1.8358,73.071
1.8035,74.976
1.7752,80.739
1.7498,91.729
1.7263,106.87
1.7048,122.06
1.6833,132.61
1.6608,136.91
1.6403,137.25
1.6188,137.11
1.5934,138.47
1.566,140.43
1.5376,141.11
1.5103,139.6
1.4848,136.47
1.4604,133.05
1.436,130.17
1.4135,127.73
1.391,125.14
1.3685,121.91
1.347,118.11
1.3314,114.05
1.3177,110
1.2991,105.85
1.2786,101.74
1.2561,97.591
1.2326,93.732
1.2092,90.655
1.1857,88.603
1.1632,87.626
1.1466,87.284
1.1398,87.382
1.1505,87.431
1.1789,87.529
1.2326,87.529
1.3265,87.626
1.4614,87.626
1.6305,87.626
1.8201,87.529
2.0137,87.431
2.1945,87.187
2.3519,86.698
2.48,86.063
2.5777,85.233
2.6481,84.305
2.6931,83.426
2.7146,82.547
2.7214,81.814
2.7214,81.032
2.7116,80.446
2.6901,79.909
2.6579,79.567
2.6129,79.225
2.5562,78.932
2.4897,78.59
2.4145,78.248
2.3324,77.809
2.2444,77.369
2.1652,76.881
2.0929,76.343
2.0156,75.806
1.9423,75.318
1.8768,74.78
1.8201,74.487
1.7732,74.243
1.7351,74.048
1.7048,74.048
1.6794,74.683
1.6549,77.467
1.6315,84.5
1.607,96.614
1.5865,111.76
1.567,125.14
1.5415,132.81
1.5122,134.42
1.4809,133.05
1.4487,132.17
1.4154,132.81
1.3822,133.74
1.3509,133.3
1.3206,131
1.2913,127.63
1.263,124.41
1.2414,121.87
1.2239,119.62
1.2033,117.13
1.1808,114.2
1.1593,110.88
1.1408,107.36
1.1222,103.74
1.1036,99.984
1.0841,96.076
1.0635,92.364
1.0391,89.238
1.0108,87.138
0.97849,85.966
0.95112,85.624
0.92766,85.575
0.90616,85.624
0.90029,85.673
0.92278,85.721
0.98436,85.917
1.089,86.161
1.2336,86.356
1.4086,86.356
1.5982,86.308
1.782,86.112
1.9453,85.868
2.0665,85.624
2.1505,85.135
2.2141,84.256
2.2522,82.937
2.2659,81.374
2.26,80.055
2.2395,79.323
2.2063,78.932
2.1652,78.541
2.1193,78.199
2.0714,78.004
2.0235,78.004
1.9775,78.199
1.9394,78.492
1.9062,78.492
1.8749,78.199
1.8456,77.906
1.8192,78.59
1.7967,80.251
1.7761,81.667
1.7586,81.618
1.7439,79.469
1.7302,76.343
1.7185,73.559
1.7077,71.85
1.6999,71.605
1.6931,73.803
1.6852,80.153
1.6755,91.973
1.6608,107.31
1.6403,121.43
1.6109,130.41
1.5718,133.74
1.5239,134.42
1.4682,135.64
1.4086,137.98
1.349,140.13
1.3001,140.23
1.262,138.33
1.2248,135.25
1.1906,132.32
1.1593,129.53
1.1251,126.75
1.085,123.43
1.0371,119.62
0.9824,115.57
0.92375,111.36
0.86706,107.12
0.81818,102.87
0.78299,98.812
0.76735,95.197
0.76931,92.12
0.78201,89.824
0.8045,88.164
0.83382,87.187
0.86804,86.698
0.90909,86.405
0.96383,86.259
1.043,86.259
1.1574,86.356
1.3109,86.601
1.4985,86.943
1.6804,87.236
1.8583,87.284
2.0567,86.943
2.2502,86.161
2.4223,85.282
2.563,84.5
2.6735,83.865
2.7566,83.426
2.8162,83.035
2.8563,82.742
2.8778,82.351
2.8798,81.912
2.8612,81.374
2.827,80.69
2.7791,80.007
2.7136,79.323
2.6354,78.688
2.5503,78.102
2.4624,77.467
2.3744,76.929
2.2893,76.441
2.2092,76.05
2.1359,75.855
2.0694,75.757
2.0108,75.611
1.9638,75.318
1.9257,74.78
1.8925,74.048
1.8631,73.559
1.8397,74.438
1.8201,78.541
1.8055,87.724
1.7967,101.74
1.7928,117.32
1.7908,129.68
1.824,135.93
1.8749,137.2
1.8954,137.01
1.9003,137.94
1.8944,139.94
1.8788,141.26
1.8553,140.43
1.825,137.94
1.7918,135.01
1.7586,132.61
1.7273,130.76
1.7028,128.7
1.6852,125.82
1.6735,122.16
1.6667,118.11
1.6628,114.1
1.6608,110.05
1.6559,105.94
1.6461,101.6
1.6315,97.297
1.6119,93.536
1.5885,90.801
1.5621,89.238
1.5376,88.75
1.522,88.799
1.523,88.994
1.5513,89.043
1.6149,89.043
1.6979,88.994
1.8074,88.945
1.9638,88.799
2.1496,88.603
2.348,88.31
2.5406,87.968
2.7126,87.529
2.8553,87.04
2.9648,86.503
3.045,85.819
3.1007,85.135
3.1378,84.305
3.1554,83.426
3.1603,82.547
3.1603,81.667
3.1535,80.886
3.1369,80.251
3.1095,79.762
3.0704,79.372
3.0186,78.981
2.956,78.688
2.8847,78.297
2.8065,77.858
2.7253,77.32
2.6432,76.685
2.5689,76.001
2.5034,75.366
2.4389,74.78
2.3793,74.194
2.3275,73.657
2.2845,73.559
2.2483,74.927
2.217,79.567
2.1896,89.189
2.1642,103.5
2.1398,118.89
2.1163,130.66
2.0958,136.37
2.0762,137.35
2.0547,137.11
2.0342,138.13
2.0127,140.04
1.9922,141.16
1.9726,140.33
1.9541,137.89
1.9374,134.86
1.9198,132.32
1.9013,130.07
1.8807,127.53
1.8583,124.41
1.8368,120.74
1.8143,116.79
1.7869,112.93
1.7566,108.97
1.7263,105.06
1.6979,101.06
1.6725,97.053
1.6471,93.488
1.6217,90.85
1.5973,89.287
1.5758,88.75
1.5601,88.603
1.5562,88.554
1.5699,88.408
1.6109,88.164
1.6901,88.066
1.8113,88.115
1.9707,88.115
2.1554,88.115
2.35,87.871
2.5396,87.382
2.7087,86.698
2.8475,85.917
2.956,85.135
3.0362,84.354
3.085,83.67
3.1124,82.937
3.1329,82.156
3.1427,81.277
3.1427,80.495
3.13,79.811
3.1046,79.225
3.0665,78.786
3.0156,78.346
2.9541,77.809
2.8827,77.174
2.8045,76.49
2.7302,75.806
2.6579,75.122
2.5797,74.438
2.5005,73.755
2.4233,73.071
2.3529,72.387
2.2893,71.752
2.2346,71.312
2.1877,71.361
2.1486,73.071
2.1153,78.199
2.088,88.554
2.0635,103.55
2.043,119.33
2.0235,130.95
2.0029,136.08
1.9795,136.37
1.955,135.74
1.9296,136.47
1.9022,138.18
1.8739,139.01
1.8446,137.79
1.8133,135.05
1.782,132.07
1.7507,129.49
1.7234,127.19
1.6989,124.7
1.6696,121.57
1.6383,117.86
1.607,114
1.5758,110.09
1.5445,106.24
1.5152,102.28
1.4868,98.128
1.4614,94.171
1.437,90.752
1.4106,88.408
1.3861,87.187
1.3695,86.747
1.3597,86.747
1.3587,86.796
1.3783,86.796
1.4291,86.845
1.5181,86.991
1.6481,87.138
1.8123,87.236
1.999,87.236
2.1926,87.04
2.3773,86.601
2.5396,85.966
2.6579,85.233
2.7429,84.5
2.8152,83.719
2.871,82.986
2.9101,82.253
2.9335,81.472
2.9433,80.739
2.9384,80.104
2.9179,79.616
2.8827,79.127
2.8328,78.59
2.7693,78.199
2.7028,77.662
2.6305,77.223
2.5464,76.734
2.4555,76.246
2.3617,75.562
2.2688,74.927
2.1808,74.438
2.0997,74.048
2.0274,73.755
1.9668,73.51
1.9159,73.315
1.8759,73.901
1.8436,76.929
1.8211,84.354
1.8025,97.102
1.7849,112.68
1.7683,126.16
1.7517,133.74
1.7341,135.25
1.7146,134.08
1.695,133.44
1.6755,134.22
1.6559,135.05
1.6344,134.37
1.6129,131.88
1.5943,128.56
1.5767,125.43
1.5552,122.79
1.5318,120.16
1.5083,117.13
1.4848,113.56
1.4614,109.75
1.4389,105.94
1.4154,102.18
1.392,98.372
1.3685,94.611
1.3441,91.192
1.3206,88.506
1.3021,86.943
1.2854,86.356
1.2649,86.356
1.2454,86.552
1.2356,86.552
1.2454,86.405
1.2835,86.308
1.3607,86.308
1.479,86.356
1.6344,86.503
1.8172,86.503
2.0127,86.356
2.1808,86.112
2.3226,85.624
2.4585,84.989
2.5728,84.256
2.6608,83.572
2.7224,82.791
2.7625,82.058
2.7849,81.374
2.7928,80.739
2.7869,80.104
2.7693,79.469
2.74,78.932
2.6999,78.444
2.6549,77.906
2.6031,77.564
2.5406,77.125
2.4702,76.734
2.3949,76.246
2.3196,75.66
2.2463,75.122
2.1789,74.634
2.1193,74.097
2.0674,73.755
2.0244,73.315
1.9883,72.924
1.9619,72.729
1.9423,73.755
1.9257,77.613
1.912,86.308
1.8485,100.13
1.7595,115.91
1.7087,128.75
1.6774,135.3
1.654,136.42
1.6315,135.88
1.609,136.57
1.5855,138.57
1.5611,139.99
1.5396,139.35
1.5191,136.86
1.4956,133.64
1.4721,130.85
1.4497,128.56
1.4272,126.12
1.4047,123.04
1.3832,119.33
1.3607,115.32
1.3392,111.32
1.3177,107.41
1.2962,103.45
1.2805,99.349
1.2669,95.49
1.2502,92.12
1.2307,89.678
1.2102,88.261
1.1906,87.626
1.175,87.431
1.1681,87.382
1.1818,87.382
1.2258,87.431
1.3079,87.529
1.4311,87.724
1.5885,87.822
1.7449,87.724
1.8983,87.48
2.0674,87.138
2.2297,86.698
2.3705,86.112
2.4829,85.428
2.566,84.549
2.6237,83.621
2.6608,82.742
2.6804,81.912
2.6862,81.179
2.6784,80.495
2.6579,79.811
2.6266,79.176
2.5826,78.59
2.5259,78.102
2.4585,77.76
2.3842,77.418
2.303,77.027
2.217,76.685
2.131,76.246
2.0459,75.757
1.9648,75.171
1.8905,74.683
1.824,74.194
1.7722,73.803
1.7312,73.364
1.694,72.973
1.6628,73.315
1.6373,75.855
1.6178,82.693
1.6012,94.758
1.5855,110.29
1.5718,124.75
1.5591,133.88
1.5455,136.86
1.5288,136.76
1.5122,136.86
1.4946,138.57
1.4712,140.62
1.4438,141.16
1.4145,139.6
1.3832,136.67
1.3529,133.64
1.3236,130.95
1.2952,128.26
1.2688,125.19
1.2424,121.43
1.217,117.42
1.1916,113.37
1.173,109.51
1.1574,105.55
1.1378,101.45
1.1173,97.297
1.0958,93.488
1.0743,90.557
1.0528,88.603
1.0313,87.626
1.0137,87.187
1.0049,87.04
1.0137,87.04
1.0508,87.04
1.1075,87.236
1.1906,87.382
1.3157,87.48
1.4731,87.431
1.652,87.236
1.8368,86.845
2.0117,86.356
2.1652,85.721
2.2913,85.038
2.3881,84.305
2.4585,83.572
2.5064,82.84
2.5367,82.253
2.5484,81.716
2.5474,81.228
2.5367,80.69
2.5171,80.055
2.4858,79.372
2.4438,78.541
2.39,77.76
2.3255,77.027
2.2532,76.49
2.176,76.05
2.0948,75.855
2.0127,75.66
1.9404,75.464
1.8749,75.171
1.8084,74.683
1.7458,73.901
1.6911,73.071
1.6442,72.192
1.6051,71.508
1.5738,71.85
1.5474,74.731
1.523,82.253
1.5005,95.002
1.477,110.88
1.4526,125.14
1.4311,133.74
1.4106,136.42
1.3871,136.13
1.3646,136.18
1.3431,137.69
1.3245,139.25
1.3089,139.16
1.2952,137.06
1.2815,133.78
1.2659,130.76
1.2483,128.17
1.2287,125.63
1.2131,122.45
1.1984,118.3
1.1779,113.66
1.1554,108.92
1.1339,104.43
1.1114,100.18
1.089,96.369
1.0674,92.95
1.0459,90.166
1.0244,88.31
1.001,87.187
0.97849,86.601
0.96285,86.161
0.95699,85.819
0.9609,85.477
0.98534,85.379
1.0391,85.428
1.1271,85.624
1.2502,85.868
1.3978,85.966
1.5572,85.966
1.7155,85.868
1.8592,85.624
1.9804,85.233
2.0772,84.696
2.1437,84.012
2.1877,83.133
2.2209,82.156
2.2434,81.228
2.2551,80.495
2.2542,79.909
2.2395,79.469
2.2131,79.127
2.175,78.786
2.1271,78.346
2.0714,77.809
2.0088,77.223
1.9501,76.636
1.8944,76.099
1.8319,75.66
1.7664,75.171
1.7019,74.683
1.6403,74.097
1.5826,73.51
1.5308,72.924
1.4878,72.387
1.4516,71.85
1.4213,71.41
1.3949,71.605
1.3715,73.803
1.3529,80.007
1.3363,91.632
1.3177,107.07
1.2962,121.87
1.2727,131.39
1.2483,134.42
1.2239,133.93
1.1994,133.49
1.175,134.66
1.1515,136.32
1.13,136.37
1.1075,134.17
1.0899,130.51
1.0753,126.75
1.0567,123.58
1.0342,120.6
1.0098,117.37
0.98436,113.51
0.95894,109.26
0.93451,105.01
0.91105,101.01
0.88856,97.2
0.86608,93.536
0.84457,90.362
0.82209,87.871
0.80547,86.308
0.79179,85.624
0.77419,85.477
0.75758,85.575
0.74585,85.428
0.74878,85.233
0.77517,84.989
0.83284,84.94
0.92571,85.038
1.0508,85.233
1.2004,85.379
1.3627,85.379
1.5064,85.135
1.6305,84.745
1.7498,84.158
1.8485,83.572
1.9228,82.791
1.9726,82.107
2.002,81.423
2.0156,80.788
2.0166,80.3
2.0068,79.811
1.9873,79.372
1.9589,78.932
1.9208,78.444
1.8807,77.906
1.8368,77.418
1.781,76.929
1.7185,76.49
1.652,76.001
1.5836,75.366
1.5161,74.78
1.4536,74.097
1.3978,73.51
1.3509,72.924
1.3832,72.387
1.4594,71.85
1.4956,71.41
1.5132,71.215
1.52,72.24
1.522,76.197
1.522,85.135
1.52,99.154
1.5181,115.17
1.5142,127.87
1.5083,134.13
1.5015,135.01
1.4946,134.37
1.4858,135.25
1.4761,137.5
1.4702,139.06
1.4653,138.33
1.4565,135.44
1.4467,131.68
1.4379,128.31
1.4291,125.48
1.4213,122.55
1.4135,119.03
1.4057,114.98
1.3978,110.68
1.3891,106.53
1.3783,102.57
1.3705,98.665
1.3636,94.904
1.3539,91.485
1.3431,88.799
1.3324,87.187
1.3236,86.503
1.3167,86.356
1.3138,86.405
1.3196,86.356
1.3421,86.259
1.3891,86.161
1.4673,86.308
1.5777,86.503
1.695,86.698
1.8201,86.796
1.9697,86.747
2.1251,86.552
2.2698,86.161
2.393,85.673
2.4897,84.989
2.5601,84.256
2.607,83.426
2.6354,82.595
2.6491,81.863
2.6491,81.13
2.6373,80.446
2.6149,79.762
2.5816,79.127
2.5376,78.492
2.4858,77.906
2.4272,77.467
2.3627,77.027
2.2933,76.685
2.2229,76.246
2.1554,75.806
2.0919,75.366
2.0342,74.878
1.9844,74.292
1.9462,73.852
1.915,73.413
1.8856,72.973
1.8592,72.485
1.8358,72.094
1.8152,72.192
1.7967,74.097
1.7791,79.811
1.7634,90.801
1.7488,105.94
1.7341,120.99
1.7204,131.49
1.7087,135.79
1.6979,136.32
1.6843,136.67
1.6696,138.81
1.653,141.6
1.6344,142.92
1.6149,141.7
1.5934,138.57
1.5699,135.01
1.5455,131.93
1.522,129.09
1.4995,126.07
1.477,122.31
1.4594,118.11
1.4448,113.76
1.4282,109.56
1.4135,105.55
1.3988,101.5
1.3851,97.444
1.3705,93.683
1.3539,90.606
1.3363,88.506
1.3206,87.284
1.3069,86.845
1.3011,86.796
1.3069,86.845
1.3284,87.04
1.3734,87.187
1.4487,87.284
1.5572,87.284
1.696,87.236
1.8524,87.138
2.0156,86.991
2.173,86.747
2.3128,86.356
2.4282,85.917
2.5171,85.233
2.5748,84.403
2.6109,83.572
2.6364,82.693
2.65,81.863
2.653,81.032
2.6442,80.349
2.6237,79.665
2.5924,79.03
2.5513,78.444
2.5024,77.906
2.4467,77.467
2.3842,77.027
2.3177,76.636
2.2581,76.246
2.2023,75.806
2.1427,75.366
2.0841,74.878
2.0293,74.341
1.9804,73.852
1.9384,73.315
1.9022,72.778
1.8729,72.24
1.8504,71.752
1.8328,71.752
1.8182,73.51
1.8074,78.883
1.7986,89.434
1.7879,104.18
1.7752,119.23
1.7615,129.93
1.7478,134.52
1.7322,135.1
1.7146,135.49
1.697,137.35
1.6784,139.94
1.6608,141.16
1.6422,139.79
1.6256,136.57
1.6119,132.81
1.5982,129.49
1.5816,126.56
1.564,123.43
1.5445,119.77
1.5239,115.66
1.5024,111.51
1.4809,107.36
1.4594,103.31
1.4379,99.251
1.4184,95.197
1.3988,91.632
1.3842,88.799
1.3734,87.04
1.3597,86.259
1.346,85.917
1.3372,85.819
1.3382,85.673
1.3578,85.575
1.4037,85.477
1.48,85.575
1.5885,85.575
1.7253,85.575
1.8807,85.428
2.042,85.184
2.1799,84.793
2.2942,84.305
2.4008,83.719
2.4897,83.035
2.5572,82.351
2.607,81.57
2.6413,80.739
2.6628,79.909
2.6706,79.225
2.6647,78.541
2.6471,77.906
2.6178,77.369
2.5816,76.881
2.5396,76.49
2.4868,76.099
2.4272,75.806
2.3627,75.415
2.2952,75.122
2.2248,74.731
2.1564,74.292
2.0909,73.803
2.0293,73.315
1.9736,72.729
1.9238,72.24
1.8807,71.801
1.8485,71.361
1.825,71.068
1.8025,71.166
1.782,72.729
1.7644,77.76
1.7507,87.822
1.738,102.23
1.7243,117.32
1.7107,128.36
1.697,133.3
1.6813,133.88
1.6657,133.69
1.652,134.86
1.6393,136.76
1.6227,137.5
1.6051,135.88
1.5865,132.37
1.5679,128.36
1.5494,124.85
1.5298,121.82
1.5112,118.69
1.4927,115.13
1.4741,111.07
1.4545,106.87
1.435,102.82
1.4203,98.86
1.4076,95.002
1.39,91.436
1.3695,88.359
1.347,86.259
2.6237,77.418
2.5924,76.929
2.5279,76.49
2.4448,76.001
2.3529,75.464
2.259,74.927
2.1691,74.292
2.0938,73.657
2.0323,73.168
1.9726,72.729
1.9198,72.289
1.8778,71.947
1.8446,71.605
1.8201,72.045
1.8006,74.683
1.7869,81.57
1.7761,93.732
1.7644,109.12
1.7507,122.94
1.7361,131.1
1.7224,133.3
1.7077,132.61
1.6872,132.42
1.6637,133.74
1.6364,135.01
1.609,134.37
1.5836,131.49
1.5582,127.53
1.5337,123.82
1.5083,120.79
1.4839,118.2
1.4594,115.13
1.4418,111.41
1.4272,107.31
1.4076,103.31
1.3851,99.447
1.3636,95.783
1.3421,92.364
1.3206,89.385
1.2981,87.236
1.2757,86.063
1.2532,85.477
1.2346,85.038
1.2239,84.598
1.2258,84.354
1.2434,84.549
1.2874,85.184
1.3715,85.868
1.5024,86.259
1.6833,86.063
1.9081,85.624
2.1584,85.233
2.4154,84.989
2.6598,84.842
2.8759,84.5
3.0528,84.012
3.1896,83.23
3.2776,82.449
3.3314,81.667
3.3695,80.886
3.391,80.104
3.3939,79.372
3.3793,78.737
3.347,78.297
3.2972,77.906
3.2336,77.564
3.1564,76.978
3.0704,76.294
2.9795,75.611
2.8876,74.976
2.8045,74.634
2.7263,74.438
2.6461,74.243
2.5689,73.999
2.4966,73.559
2.433,72.973
2.3783,72.289
2.3324,71.752
2.2952,71.361
2.2639,71.752
2.2375,74.097
2.2131,80.495
2.1935,92.169
2.174,107.41
2.1515,122.06
2.1241,131.54
2.0948,135.05
2.0645,135.2
2.0332,135.49
2.001,137.35
1.9717,139.5
1.9433,139.99
1.9159,138.03
1.8886,134.76
1.8661,131.39
1.8436,128.56
1.8172,126.07
1.7889,123.18
1.7595,119.77
1.7283,115.81
1.696,111.8
1.6628,107.8
1.6295,103.84
1.5973,99.789
1.5679,95.783
1.5406,92.218
1.5122,89.434
1.4897,87.724
1.4673,86.845
1.4399,86.601
1.4154,86.601
1.4037,86.601
1.4203,86.747
1.479,86.845
1.5924,86.991
1.7634,86.991
1.9824,86.943
2.2326,86.747
2.4946,86.405
2.7155,86.112
2.8974,85.673
3.0704,85.184
3.216,84.5
3.3284,83.816
3.4096,83.133
3.4643,82.302
3.4966,81.472
3.5083,80.593
3.5034,79.811
3.4819,79.03
3.4418,78.492
3.3842,78.004
3.3177,77.564
3.2434,77.174
3.1535,76.783
3.0518,76.441
2.9413,75.904
2.828,75.415
2.7146,74.878
2.6061,74.341
2.5054,73.852
2.4164,73.413
2.3382,72.924
2.2717,72.436
2.2199,71.947
2.1799,71.85
2.1437,73.559
2.1114,78.883
2.085,89.434
2.0616,104.04
2.0381,118.94
2.0137,129.44
1.9863,133.93
1.956,134.37
1.9228,134.32
1.8886,135.69
1.8553,137.74
1.828,138.62
1.8035,137.25
1.7771,134.22
1.7517,130.95
1.7283,128.07
1.7048,125.58
1.6804,122.84
1.654,119.57
1.6246,115.86
1.5934,111.85
1.5582,107.95
1.523,103.99
1.4956,99.984
1.4741,95.979
1.4516,92.315
1.4272,89.385
1.4018,87.431
1.3763,86.405
1.3539,86.063
1.3363,85.966
1.3324,86.063
1.3539,86.161
1.4125,86.405
1.522,86.698
1.6843,86.845
1.8583,86.845
2.0479,86.698
2.2796,86.308
2.523,85.868
2.7537,85.282
2.955,84.696
3.1183,84.012
3.2434,83.23
3.3324,82.498
3.39,81.716
3.4223,80.935
3.4301,80.153
3.4174,79.421
3.3881,78.737
3.3441,78.102
3.2845,77.467
3.2121,76.929
3.129,76.441
3.0362,75.904
2.9345,75.562
2.826,75.22
2.7155,74.976
2.6061,74.634
2.4995,74.194
2.3998,73.559
2.3177,72.778
2.2502,71.996
2.1867,71.215
2.131,70.629
2.0831,70.629
2.042,72.387
2.0059,78.004
1.9736,88.799
1.9443,103.7
1.9169,118.59
1.8895,129
1.8622,133.25
1.8387,133.54
1.8172,133.44
1.7889,134.61
1.7566,136.23
1.7224,136.62
1.6852,134.66
1.6461,131.39
1.608,127.92
1.5709,125.19
1.5347,122.79
1.4995,120.25
1.4663,116.98
1.436,113.12
1.4115,108.92
1.3891,104.62
1.3627,100.33
1.3343,96.125
1.303,92.218
1.2688,89.043
1.2326,86.943
1.1935,85.819
1.1544,85.575
1.1183,85.673
1.0929,85.868
1.089,85.868
1.1095,85.819
1.1642,85.673
1.2717,85.624
1.436,85.575
1.654,85.575
1.9101,85.477
2.1838,85.379
2.4497,85.135
2.6852,84.745
2.8788,84.158
3.0283,83.572
3.0166,82.742
2.9091,81.912
2.8573,81.13
2.8289,80.3
2.8104,79.469
2.7898,78.786
2.7605,78.297
2.7175,77.858
2.6598,77.564
2.5885,77.32
2.5054,77.174
2.4145,76.929
2.3167,76.539
2.216,76.001
2.1271,75.22
2.0459,74.292
1.9619,73.51
1.8817,72.729
1.8094,72.192
1.7458,71.801
1.6931,71.557
1.65,71.605
1.6158,72.875
1.5885,77.174
1.567,86.405
1.5484,100.37
1.5318,115.57
1.5181,127.14
1.5064,132.32
1.4897,132.56
1.4692,131.39
1.4448,131.39
1.4184,132.51
1.3891,132.86
1.3597,131.39
1.3314,128.12
1.303,124.41
1.2747,121.18
1.2483,118.35
1.2287,115.42
1.2121,112.1
1.1906,108.24
1.1652,104.23
1.1359,100.37
1.1046,96.614
1.0723,93.048
1.0411,89.824
1.0108,87.236
0.98338,85.575
0.95894,84.94
0.93548,84.94
0.91398,85.233
0.90029,85.428
0.89932,85.428
0.913,85.282
0.95503,85.233
1.0371,85.184
1.1662,85.282
1.3382,85.379
1.5435,85.379
1.7644,85.184
1.9814,84.793
2.1779,84.158
2.3421,83.426
2.4575,82.595
2.5337,81.667
2.5904,80.739
2.6256,79.86
2.6422,79.176
2.6422,78.688
2.6295,78.297
2.6041,77.906
2.567,77.613
2.5171,77.32
2.4555,76.881
2.3842,76.441
2.3128,76.001
2.2395,75.562
2.1564,75.122
2.0694,74.731
1.9853,74.341
1.9071,73.999
1.8387,73.608
1.782,73.217
1.738,72.875
1.7048,72.436
1.6804,72.436
1.6628,73.755
1.652,78.297
1.6461,87.968
1.6432,102.23
1.6422,117.47
1.6413,128.95
1.6393,134.13
1.6373,134.61
1.6344,133.98
1.6285,134.66
1.6217,136.23
1.6149,136.81
1.608,135.35
1.5992,132.37
1.5904,129.05
1.5806,126.26
1.566,123.87
1.5474,121.23
1.5279,118.11
1.5073,114.49
1.4858,110.68
1.4643,106.87
1.4438,103.11
1.4252,99.3
1.4066,95.49
1.3891,92.12
1.3715,89.629
1.3578,88.115
1.3441,87.626
1.3284,87.529
1.3148,87.626
1.3109,87.626
1.3245,87.529
1.3685,87.48
1.4545,87.529
1.5885,87.626
1.7664,87.529
1.9775,87.284
2.2053,86.943
2.4018,86.405
2.5689,85.917
2.7322,85.282
2.871,84.549
2.9775,83.816
3.0499,82.937
3.0929,82.107
3.1114,81.277
3.1095,80.544
3.0929,79.86
3.0626,79.323
3.0205,78.737
2.9648,78.297
2.9032,77.858
2.8358,77.564
2.7566,77.174
2.6667,76.783
2.5699,76.343
2.4702,75.904
2.3705,75.415
2.2757,74.927
2.1887,74.487
2.1124,74.048
2.0459,73.608
1.9883,73.168
1.9443,72.778
1.9091,73.217
1.8768,76.099
1.8485,83.426
1.824,95.93
1.8025,111.41
1.783,125.38
1.7634,133.78
1.7439,136.47
1.7234,136.32
1.7009,136.57
1.6755,138.13
1.6471,139.74
1.6217,139.74
1.5982,137.79
1.5709,134.91
1.5425,132.17
1.5142,129.83
1.4858,127.48
1.4604,124.7
1.437,121.23
1.4125,117.42
1.3881,113.56
1.3646,109.66
1.3431,105.75
1.3265,101.74
1.3118,97.786
1.2933,94.22
1.2737,91.485
1.2532,89.727
1.2336,88.847
1.2141,88.554
1.2023,88.506
1.2072,88.408
1.2405,88.408
1.3109,88.359
1.4252,88.359
1.5855,88.31
1.7507,88.115
1.9247,87.822
2.131,87.431
2.3412,86.943
2.5347,86.356
2.6989,85.673
2.8299,84.94
2.9296,84.11
3.002,83.279
3.0508,82.498
3.0792,81.716
3.0909,80.984
3.0841,80.349
3.0626,79.762
3.0283,79.176
2.9795,78.737
2.9179,78.297
2.8426,77.906
2.7556,77.564
2.6618,77.174
2.5621,76.734
2.4624,76.246
2.3636,75.66
2.2708,75.073
2.1877,74.536
2.1202,74.048
2.0635,73.559
2.0108,73.12
1.9629,73.071
1.9208,74.487
1.8847,79.323
1.8534,89.092
1.825,103.35
1.7986,118.5
1.7732,129.93
1.7478,135.3
1.7214,136.13
1.6979,135.88
1.6755,136.76
1.6481,138.42
1.6188,139.25
1.5894,138.03
1.5591,135.35
1.5308,132.37
1.5024,129.68
1.4741,127.39
1.4467,124.75
1.4203,121.57
1.392,117.91
1.3636,114.05
1.3421,110.09
1.3245,106.19
1.305,102.18
1.2835,98.177
1.263,94.416
1.2414,91.29
1.219,89.092
1.1955,87.919
1.172,87.431
1.1525,87.187
1.1437,87.04
1.1584,86.991
1.1945,86.845
1.261,86.796
1.3763,86.747
1.5367,86.552
1.7341,86.259
1.9423,85.917
2.1417,85.575
2.3255,85.038
2.4819,84.403
2.607,83.719
2.7009,82.937
2.7889,82.156
2.8201,81.374
2.8328,80.593
2.8231,79.909
2.8035,79.225
2.7713,78.59
2.6989,78.102
2.6344,77.662
2.5582,77.369
2.4712,77.125
2.3783,76.881
2.2815,76.441
2.1945,76.001
2.1163,75.562
2.0352,75.073
1.958,74.634
1.8895,74.194
1.8299,73.657
1.781,73.168
1.7419,72.533
1.7097,72.094
1.6833,72.436
1.6618,75.171
1.6413,82.302
1.6237,94.66
1.6061,110.24
1.5846,124.5
1.5601,133.1
1.5327,135.74
1.5024,135.25
1.4702,134.91
1.4389,135.98
1.4096,137.06
1.3803,136.42
1.3519,133.93
1.3236,130.51
1.2952,127.43
1.2708,125.19
1.2502,122.99
1.2268,120.25
1.2023,116.64
1.1799,112.54
1.1593,108.29
1.1417,104.28
1.1251,100.37
1.1085,96.614
1.0802,93.048
1.0587,90.166
1.0381,88.359
1.0166,87.48
1.0088,87.382
1.0196,87.382
1.0626,87.284
1.1466,87.138
1.2737,86.943
1.4399,86.943
1.6315,86.991
1.8328,87.138
2.0244,87.04
2.1916,86.845
2.3265,86.405
2.4467,85.917
2.4976,85.379
2.5337,84.696
2.563,84.012
2.565,83.23
2.5552,82.547
2.5327,81.814
2.4966,81.179
2.4467,80.69
2.3851,80.251
2.3138,79.86
2.2444,79.469
2.176,79.03
2.0978,78.59
2.0166,78.102
1.9365,77.564
1.8602,76.929
1.7908,76.294
1.7312,75.66
1.6804,75.122
1.6383,74.634
1.6051,74.194
1.5787,73.755
1.5572,73.364
1.5425,73.315
1.5308,74.634
1.5161,79.176
1.4995,88.799
1.4819,103.31
1.4633,118.89
1.4428,130.51
1.4203,135.49
1.3978,135.64
1.3763,134.66
1.3558,135.01
1.3363,136.18
1.3226,136.57
1.3109,135.05
1.2952,131.98
1.2776,128.75
1.259,125.92
1.2405,123.58
1.2229,120.94
1.2063,117.76
1.1887,114
1.1711,110.05
1.1535,106.19
1.1359,102.38
1.1193,98.567
1.1075,94.904
1.0987,91.778
1.0899,89.434
1.088,88.115
1.1026,87.675
1.1447,87.675
1.2239,87.724
1.346,87.724
1.5054,87.626
1.694,87.529
1.8964,87.48
2.0948,87.529
2.2542,87.529
2.3803,87.431
2.4946,87.187
2.5875,86.796
2.6559,86.308
2.7019,85.721
2.7292,85.038
2.74,84.305
2.7361,83.475
2.7165,82.693
2.6833,81.912
2.6364,81.228
2.5777,80.593
2.5161,80.055
2.4516,79.567
2.3773,79.127
2.2991,78.737
2.2209,78.346
2.1447,78.004
2.0723,77.564
2.0068,77.125
1.9492,76.636
1.9003,76.099
1.8583,75.611
1.8231,75.171
1.7967,74.878
1.7761,74.487
1.7576,74.097
1.7419,73.999
1.7283,75.171
1.7165,79.665
1.7038,89.238
1.6891,103.7
1.6716,119.42
1.653,131.54
1.6315,137.35
1.607,138.23
1.5816,137.94
1.5601,138.91
1.5425,140.92
1.522,142.14
1.5005,141.26
1.479,138.67
1.4575,135.74
1.436,133.2
1.4164,130.95
1.3969,128.41
1.3773,125.24
1.3568,121.48
1.3353,117.57
1.3187,113.66
1.304,109.75
1.2854,105.75
1.263,101.6
1.2405,97.688
1.2219,94.367
1.2131,92.071
1.2239,90.752
1.2649,90.166
1.3431,89.971
1.4633,89.922
1.6227,89.873
1.8113,89.873
1.9873,89.873
2.1505,89.922
2.3226,89.824
2.4809,89.629
2.6109,89.287
2.7116,88.945
2.783,88.359
2.8299,87.822
2.8592,87.187
2.8739,86.503
2.8759,85.673
2.8651,84.94
2.8436,84.061
2.8123,83.182
2.7693,82.351
2.7146,81.57
2.65,80.886
2.5758,80.3
2.4966,79.811
2.4135,79.421
2.3284,79.127
2.2444,78.688
2.1642,78.297
2.0909,77.809
2.0244,77.223
1.9717,76.685
1.9277,76.099
1.8847,75.611
1.8475,75.171
1.8152,74.683
1.7879,74.438
1.7654,75.318
1.7478,78.981
1.7331,87.48
1.7204,101.06
1.7067,116.79
1.6921,129.83
1.6774,136.86
1.6628,138.47
1.6432,138.13
1.6207,138.67
1.5982,140.57
1.5767,142.04
1.5562,141.75
1.5367,139.55
1.5171,136.76
1.4976,134.13
1.4761,131.78
1.4536,129.39
1.4282,126.36
1.4066,122.7
1.3861,118.69
1.3607,114.69
1.3333,110.73
1.306,106.68
1.2786,102.57
1.2532,98.47
1.2317,95.002
1.217,92.511
1.219,90.997
1.2473,90.215
1.3177,89.873
1.4145,89.629
1.5347,89.385
1.6989,89.189
1.8925,89.092
2.0987,89.189
2.2981,89.189
2.4761,89.043
2.6237,88.75
2.739,88.359
2.824,87.919
2.8837,87.284
2.9208,86.601
2.9365,85.868
2.9374,85.135
2.9296,84.354
2.9091,83.621
2.8778,82.986
2.8338,82.351
2.7791,81.716
2.7126,81.13
2.6373,80.544
2.5543,80.007
2.4682,79.567
2.3822,79.176
2.2991,78.786
2.2297,78.444
2.1691,78.004
2.1095,77.467
2.0538,76.929
2.0059,76.343
1.9648,75.757
1.9296,75.171
1.8983,74.683
1.869,74.292
1.8377,74.487
1.8055,76.49
1.7713,82.253
1.74,93.195
1.7107,108.09
1.6784,122.79
1.6452,132.86
1.6129,136.81
1.5806,136.86
1.5494,136.67
1.522,137.98
1.4966,139.79
1.4741,140.38
1.4536,138.91
1.435,136.08
1.4184,133.05
1.4066,130.41
1.3969,127.97
1.3842,125.19
1.3675,121.62
1.35,117.62
1.3304,113.51
1.3089,109.51
1.2864,105.5
1.2639,101.45
1.2405,97.444
1.217,93.732
1.1984,90.948
1.1926,89.189
1.2043,88.408
1.2414,88.164
1.3138,88.261
1.4262,88.164
1.5767,88.164
1.7586,88.115
1.956,88.115
2.1496,88.066
2.3245,87.919
2.4712,87.626
2.5846,87.236
2.6647,86.747
2.7107,86.161
2.7341,85.575
2.7478,84.793
2.7517,84.061
2.7478,83.377
2.7361,82.693
2.7146,82.009
2.6823,81.374
2.6393,80.739
2.5846,80.104
2.5191,79.567
2.4438,79.03
2.3705,78.59
2.2962,78.248
2.2131,77.809
2.1271,77.418
2.044,76.978
1.9687,76.49
1.9032,75.855
1.8485,75.122
1.8025,74.341
1.7654,73.657
1.7351,73.12
1.7107,72.631
1.6901,72.387
1.6735,72.875
1.6579,75.415
1.6383,82.107
1.6158,94.123
1.5924,109.75
1.567,124.31
1.5415,133.44
1.5152,136.23
1.4868,135.64
1.4575,135.2
1.4272,136.18
1.3949,137.54
1.3666,137.5
1.3421,135.49
1.3118,132.42
1.2805,129.39
1.2483,126.75
1.216,124.11
1.1848,120.94
1.1554,117.03
1.1251,112.88
1.0948,108.82
1.0645,105.01
1.0323,101.35
0.99902,97.786
0.97361,94.367
0.95406,91.485
0.93548,89.385
0.92766,88.261
0.94428,87.871
0.99609,87.724
1.0899,87.675
1.2287,87.529
1.4066,87.529
1.6109,87.626
1.825,87.871
2.0313,87.968
2.1965,87.968
2.3275,87.675
2.4448,87.138
2.5406,86.356
2.6129,85.624
2.6637,84.842
2.694,84.158
2.7058,83.572
2.6989,82.937
2.6755,82.498
2.6373,82.058
2.5855,81.618
2.522,81.13
2.4565,80.495
2.3891,79.86
2.3109,79.225
2.2258,78.688
2.1388,78.199
2.0518,77.809
1.9697,77.369
1.8944,76.929
1.8309,76.441
1.7801,75.855
1.74,75.22
1.7097,74.683
1.6891,74.097
1.6735,73.608
1.6569,73.217
1.6393,73.413
1.6227,75.562
1.607,81.57
1.5934,93.048
1.5836,108.68
1.5767,124.02
1.5699,134.13
1.5621,137.74
1.5523,137.5
1.5396,137.2
1.5288,138.42
1.5191,140.23
1.5083,140.62
1.4966,138.86
1.4848,135.93
1.4741,133.05
1.4643,130.76
1.4536,128.56
1.4409,125.87
1.4272,122.5
1.4115,118.59
1.3949,114.64
1.3832,110.73
1.3744,106.92
1.3627,103.01
1.349,98.909
1.3343,95.246
1.3226,92.364
1.3187,90.557
1.3304,89.824
1.3705,89.531
1.4497,89.434
1.5728,89.189
1.738,88.847
1.9335,88.75
2.1163,88.75
2.2874,88.799
2.4682,88.847
2.6354,88.75
2.7761,88.554
2.8876,88.115
2.9717,87.529
3.0303,86.943
3.0674,86.161
3.087,85.428
3.0909,84.696
3.0782,83.865
3.0528,83.182
3.0156,82.498
2.9668,81.912
2.9062,81.374
2.8358,80.788
2.7566,80.251
2.6706,79.762
2.5826,79.225
2.4936,78.786
2.4086,78.346
2.3284,77.906
2.2561,77.467
2.1965,76.978
2.1457,76.49
2.0958,76.001
2.0499,75.464
2.0078,75.073
1.9687,74.634
1.9335,74.194
1.9022,74.243
1.8749,76.099
1.8495,81.716
1.825,92.657
1.8006,107.99
1.7761,123.58
1.7537,134.57
1.7312,139.25
1.7058,139.89
1.6774,139.99
1.6461,141.6
1.6149,143.8
1.5855,144.73
1.5562,143.46
1.5279,140.72
1.5015,137.79
1.4751,135.44
1.4487,133.2
1.4282,130.56
1.4096,127.24
1.3881,123.38
1.3656,119.42
1.3441,115.57
1.3236,111.61
1.3177,107.51
1.3187,103.16
1.3109,98.909
1.303,95.246
1.303,92.511
1.3206,90.85
1.3666,90.117
1.4311,89.922
1.522,89.873
1.6559,89.922
1.825,89.922
2.0147,89.922
2.2082,89.971
2.39,89.922
2.5484,89.824
2.6784,89.482
2.7781,89.043
2.8514,88.554
2.9022,87.919
2.9306,87.236
2.9423,86.503
2.9472,85.673
2.9443,84.842
2.9306,84.061
2.9042,83.23
2.8651,82.498
2.8113,81.814
2.7458,81.179
2.6696,80.495
2.5875,79.909
2.5015,79.421
2.4145,78.981
2.3372,78.59
2.2688,78.248
2.2004,77.858
2.1359,77.369
2.0792,76.783
2.0303,76.246
1.9883,75.66
1.9521,75.171
1.9218,74.683
1.8954,74.243
1.8719,73.999
1.8495,74.927
1.8299,78.786
1.8113,87.48
1.7898,101.25
1.7674,116.93
1.7439,129.83
1.7195,136.76
1.694,138.47
1.6696,138.42
1.6452,139.45
1.6197,141.55
1.5934,143.16
1.567,142.87
1.5406,140.62
1.52,137.59
1.5005,134.86
1.479,132.51
1.4555,129.88
1.4321,126.7
1.4096,122.99
1.3871,118.98
1.3656,115.08
1.3441,111.07
1.3226,106.97
1.3001,102.72
1.2776,98.567
1.261,94.806
1.2502,91.973
1.2473,90.166
1.2649,89.238
1.3128,88.945
1.3988,88.799
1.5259,88.799
1.6882,88.799
1.8739,88.847
2.0684,88.945
2.2561,88.945
2.4223,88.847
2.5601,88.701
2.6579,88.31
2.7253,87.919
2.7801,87.284
2.8192,86.601
2.8426,85.819
2.8514,84.989
2.8475,84.11
2.8299,83.377
2.7996,82.693
2.7566,82.009
2.7028,81.277
2.6393,80.446
2.5748,79.567
2.5073,78.786
2.4282,78.248
2.3421,77.76
2.2551,77.32
2.1711,76.734
2.0929,76.197
2.0225,75.562
1.9619,74.78
1.911,73.999
1.869,73.217
1.8348,72.631
1.8065,72.094
1.7859,71.752
1.7693,71.361
1.7517,71.508
1.7341,73.12
1.7175,78.297
1.6999,88.75
1.6804,103.74
1.6598,119.67
1.6364,131.49
1.6109,136.86
1.5836,137.59
1.5533,137.45
1.5259,138.67
1.5005,140.72
1.4702,141.75
1.436,140.48
1.4008,137.59
1.3646,134.57
1.3284,132.07
1.2923,129.88
1.2581,127.24
1.2268,123.92
1.1994,120.01
1.175,115.86
1.1544,111.76
1.1417,107.6
1.1339,103.35
1.1222,99.056
1.1065,95.099
1.0909,91.876
1.0811,89.678
1.0841,88.506
1.1114,88.115
1.1711,87.968
1.2708,87.871
1.4115,87.675
1.5846,87.48
1.7507,87.48
1.911,87.626
2.087,87.919
2.2542,88.115
2.3988,88.115
2.5152,87.871
2.6031,87.284
2.6667,86.552
2.7087,85.819
2.7331,84.94
2.7419,84.061
2.7351,83.182
2.7126,82.498
2.6804,81.912
2.6383,81.57
2.5836,81.179
2.5191,80.739
2.4457,80.251
2.3656,79.665
2.2825,79.127
2.1965,78.541
2.1114,77.858
2.0293,77.223
1.9511,76.636
1.8788,76.05
1.8201,75.562
1.7722,75.122
1.7273,74.683
1.6872,74.292
1.6549,73.852
1.6285,73.559
1.6061,73.608
1.5846,75.366
1.564,80.935
1.5425,91.876
1.52,107.12
1.4966,122.45
1.4731,132.86
1.4536,136.86
1.437,136.62
1.4174,135.98
1.3949,136.67
1.3705,137.89
1.3451,137.74
1.3196,135.64
1.2942,132.17
1.2698,128.7
1.2473,125.82
1.2287,123.28
1.2141,120.5
1.2072,116.98
1.2033,113.12
1.1984,108.97
1.1916,104.92
1.1828,100.86
1.1711,96.907
1.1574,93.243
1.1447,90.166
1.1329,88.115
1.13,87.187
1.1447,86.991
1.1867,87.138
1.2493,87.187
1.3382,87.04
1.4692,86.943
1.6344,86.747
1.8182,86.698
2.0049,86.698
2.1779,86.601
2.3265,86.405
2.4448,86.161
2.5298,85.819
2.5875,85.282
2.6227,84.745
2.6403,84.11
2.6432,83.426
2.6354,82.693
2.6197,82.009
2.5953,81.228
2.5611,80.593
2.5171,80.055
2.4643,79.567
2.4037,79.127
2.3372,78.688
2.2678,78.199
2.1965,77.76
2.1251,77.32
2.0635,76.929
2.0088,76.539
1.955,76.197
1.9062,75.757
1.8651,75.22
1.8328,74.78
1.8094,74.292
1.7937,73.901
1.784,73.608
1.7771,73.315
1.7732,73.315
1.7693,74.683
1.7634,79.421
1.7566,89.287
1.7468,103.99
1.7322,119.77
1.7146,131.49
1.6931,136.76
1.6696,137.2
1.6442,136.67
1.6168,137.74
1.5885,139.79
1.5601,140.92
1.5318,139.89
1.5044,137.06
1.4721,133.93
1.4379,131.2
1.4125,128.8
1.393,126.12
1.3783,122.84
1.3675,119.03
1.3578,115.13
1.349,111.22
1.3392,107.36
1.3275,103.45
1.3118,99.447
1.2933,95.637
1.2776,92.511
1.2698,90.41
1.2766,89.434
1.306,88.994
1.3695,88.847
1.4751,88.799
1.6237,88.75
1.8084,88.799
2.0166,88.945
2.2297,88.994
2.4311,88.994
2.6061,88.75
2.7468,88.31
2.8407,87.822
2.8993,87.187
2.9404,86.503
2.9629,85.819
2.9707,85.038
2.9668,84.354
2.9501,83.621
2.9208,82.937
2.8788,82.156
2.824,81.423
2.7566,80.69
2.6774,80.007
2.5875,79.323
2.5005,78.688
2.4154,78.199
2.3226,77.809
2.2307,77.467
2.1466,77.174
2.0723,76.929
2.0117,76.539
1.9648,76.197
1.9286,75.757
1.9003,75.22
1.8768,74.731
1.8573,74.243
1.8426,73.657
1.8309,73.364
1.8201,73.803
1.8094,76.539
1.7977,83.475
1.7859,95.686
1.7722,111.17
1.7546,125.63
1.7312,134.76
1.7019,137.98
1.6696,138.03
1.6364,138.38
1.6041,140.13
1.5767,142.04
1.5533,142.48
1.5279,140.82
1.5015,138.03
1.4741,135.25
1.4457,132.86
1.4164,130.56
1.3861,127.68
1.3568,124.11
1.3275,120.11
1.3011,116
1.2776,111.85
1.262,107.75
1.2493,103.45
1.2346,99.154
1.219,95.295
1.2063,92.218
1.2043,90.215
1.2219,89.238
1.2688,88.847
1.3548,88.799
1.4848,88.75
1.6559,88.75
1.8573,88.75
2.0733,88.75
2.26,88.701
2.4223,88.554
2.5826,88.359
2.7234,88.066
2.8387,87.724
2.9267,87.382
2.9912,86.943
3.0342,86.356
3.0577,85.673
3.0645,84.793
3.0547,83.816
3.0274,82.84
2.9873,82.009
2.9365,81.13
2.87,80.3
2.7898,79.616
2.7019,79.03
2.607,78.59
2.5083,78.248
2.4096,77.906
2.3128,77.613
2.2209,77.174
2.1369,76.685
2.0616,76.001
1.9951,75.22
1.9443,74.487
1.9042,73.803
1.8671,73.315
1.8338,72.875
1.8055,72.533
1.782,72.485
1.7615,73.413
1.7429,77.027
1.7273,85.233
1.7126,98.421
1.6989,113.9
1.6862,126.99
1.6764,134.22
1.6676,136.18
1.6549,135.98
1.6403,136.67
1.6227,138.67
1.6041,140.38
1.5846,140.23
1.563,138.03
1.5396,134.91
1.5171,131.98
1.4946,129.44
1.4712,126.8
1.4457,123.62
1.4242,119.81
1.4037,115.66
1.3783,111.56
1.349,107.55
1.3157,103.55
1.2786,99.447
1.2375,95.441
1.1955,91.973
1.1584,89.385
1.1329,87.871
1.1329,87.187
1.1691,86.991
1.2317,86.991
1.3275,86.991
1.4741,87.04
1.6598,87.138
1.8661,87.236
2.0753,87.284
2.2698,87.236
2.437,87.04
2.5709,86.796
2.6735,86.405
2.7478,85.868
2.7986,85.184
2.8309,84.354
2.8446,83.426
2.8456,82.547
2.8377,81.716
2.8192,81.032
2.7879,80.495
2.7419,80.007
2.6804,79.567
2.6051,79.127
2.5181,78.59
2.4242,78.199
2.3255,77.76
2.2287,77.369
2.1457,76.929
2.0714,76.49
1.9971,75.904
1.9277,75.318
1.8651,74.634
1.8104,74.048
1.7625,73.51
1.7204,73.071
1.6843,72.68
1.652,72.387
1.6227,72.436
1.5943,73.999
1.5699,79.176
1.5464,89.531
1.52,104.58
1.4917,120.01
1.4614,131
1.4311,135.44
1.4008,135.25
1.3705,134.22
1.3431,134.66
1.3187,135.98
1.2962,136.32
1.2757,134.61
1.259,131.44
1.2473,128.12
1.2395,125.29
1.2278,122.84
1.2151,120.06
1.2023,116.69
1.1896,112.73
1.1769,108.73
1.1652,104.87
1.1535,101.06
1.1408,97.297
1.1251,93.732
1.1056,90.752
1.0909,88.603
1.0841,87.529
1.085,87.236
1.1065,87.284
1.1613,87.284
1.2571,87.187
1.3949,86.943
1.5699,86.796
1.7683,86.796
1.9736,86.845
2.1681,86.796
2.3372,86.601
2.4741,86.308
2.567,85.819
2.6276,85.233
2.6716,84.549
2.6979,83.719
2.7087,82.84
2.7048,82.009
2.6872,81.179
2.6588,80.495
2.6188,79.86
2.5689,79.323
2.5112,78.786
2.4467,78.346
2.3842,77.858
2.3206,77.418
2.2493,77.027
2.175,76.636
2.1026,76.246
2.0352,75.855
1.9756,75.415
1.9238,74.976
1.8807,74.487
1.8465,73.999
1.8192,73.559
1.7977,73.168
1.781,72.778
1.7693,72.485
1.7615,72.68
1.7546,74.487
1.7468,80.007
1.7361,90.801
1.7214,105.85
1.6833,121.04
1.6305,131.63
1.5865,135.64
1.5484,135.44
1.5132,134.81
1.48,135.79
1.4536,137.54
1.433,138.03
1.4125,136.42
1.392,133.49
1.3724,130.41
1.3539,127.87
1.3353,125.63
1.3157,122.94
1.2962,119.62
1.2776,115.86
1.261,111.95
1.2473,108.19
1.2356,104.43
1.2268,100.62
1.218,96.809
1.2063,93.341
1.1945,90.655
1.1877,89.043
1.1945,88.359
1.2268,88.164
1.2942,88.066
1.4037,87.871
1.5552,87.626
1.74,87.529
1.9443,87.529
2.1251,87.626
2.2835,87.529
2.4418,87.382
2.5806,87.138
2.6891,86.698
2.7664,86.161
2.8162,85.624
2.8436,84.842
2.8524,84.11
2.8446,83.279
2.8221,82.449
2.7869,81.667
2.74,80.935
2.6882,80.251
2.6305,79.616
2.5621,79.03
2.4848,78.492
2.4018,78.053
2.3138,77.613
2.2248,77.174
2.1378,76.783
2.0567,76.343
1.9834,75.904
1.9189,75.415
1.8631,74.976
1.8211,74.536
1.7889,74.097
1.7595,73.657
1.7331,73.217
1.7107,72.729
1.6921,72.485
1.6745,73.364
1.6559,77.223
1.6364,85.966
1.6168,99.789
1.5963,115.57
1.5738,128.51
1.5494,135.3
1.5288,136.86
1.5093,136.62
1.4848,137.45
1.4585,139.5
1.4311,141.16
1.4037,140.87
1.3763,138.67
1.3509,135.79
1.3245,133.2
1.2981,130.85
1.2727,128.41
1.2493,125.29
1.2317,121.57
1.218,117.57
1.2023,113.51
1.1857,109.51
1.1672,105.5
1.1486,101.3
1.1281,97.102
1.1075,93.341
1.0919,90.41
1.087,88.701
1.1046,87.968
1.1544,87.919
1.2463,88.066
1.3568,88.066
1.4907,88.066
1.6667,88.066
1.8651,88.066
2.0665,88.066
2.2532,87.968
2.4125,87.724
2.5406,87.431
2.6383,86.991
2.7087,86.405
2.7556,85.819
2.784,85.038
2.7928,84.256
2.7889,83.426
2.7761,82.547
2.7507,81.716
2.7116,80.984
2.6598,80.251
2.5953,79.616
2.521,79.03
2.4379,78.541
2.349,78.102
2.2571,77.662
2.1662,77.32
2.0782,76.929
2.0039,76.49
1.9404,76.001
1.8788,75.415
1.824,74.878
1.7781,74.243
1.74,73.755
1.7107,73.315
1.6862,72.778
1.6647,72.436
1.6452,72.924
1.6266,75.757
1.609,82.986
1.5934,95.441
1.5777,110.92
1.5582,124.94
1.5357,133.49
1.5112,136.18
1.4829,136.08
1.4545,136.37
1.4262,138.23
1.3988,140.13
1.3715,140.38
1.3451,138.42
1.3196,135.35
1.2991,132.32
1.2815,129.73
1.262,127.19
1.2414,124.06
1.219,120.35
1.1965,116.25
1.176,112.05
1.1554,107.95
1.1359,103.79
1.1153,99.691
1.0948,95.539
1.0753,91.925
1.0606,89.092
1.0557,87.431
1.0645,86.601
1.0958,86.405
1.1603,86.356
1.2639,86.356
1.4066,86.308
1.5816,86.308
1.7742,86.308
1.9687,86.308
2.1486,86.259
2.304,86.112
2.4282,85.917
2.5112,85.624
2.564,85.135
2.6012,84.549
2.6217,83.914
2.6266,83.133
2.6168,82.351
2.5943,81.57
2.5611,80.788
2.5161,80.153
2.4585,79.567
2.391,79.03
2.3148,78.541
2.2307,78.053
2.1515,77.564
2.0762,77.174
1.9932,76.783
1.9091,76.343
1.8289,75.904
1.7566,75.415
1.6931,74.78
1.6383,74.194
1.5924,73.608
1.5543,73.12
1.5239,72.68
1.4985,72.24
1.479,71.996
1.4633,72.192
1.4457,74.097
1.4291,79.811
1.4125,90.801
1.3939,105.99
1.3744,121.18
1.3548,131.54
1.3353,135.44
1.3157,135.25
1.2952,134.61
1.2727,135.49
1.2502,137.06
1.2326,137.35
1.217,135.54
1.1965,132.37
1.174,129
1.1505,126.16
1.1261,123.62
1.1007,120.74
1.0753,117.23
1.0499,113.32
1.0254,109.26
1.0029,105.31
0.98045,101.45
0.96285,97.591
0.94721,93.927
0.92766,90.801
0.90811,88.603
0.89247,87.529
0.89052,87.236
0.91105,87.284
0.96285,87.284
1.0557,87.138
1.1916,86.796
1.3627,86.601
1.5552,86.601
1.7517,86.698
1.9169,86.698
2.0538,86.552
2.1818,86.308
2.2874,85.868
2.3656,85.233
2.4184,84.598
2.4487,83.865
2.4604,83.133
2.4585,82.449
2.4448,81.716
2.4194,81.179
2.3832,80.593
2.3421,80.104
2.2962,79.616
2.2385,79.127
2.1711,78.59
2.0968,78.199
2.0196,77.76
1.9413,77.32
1.8661,76.783
1.7957,76.246
1.7322,75.611
1.6774,74.878
1.6315,74.243
1.5934,73.608
1.5963,73.12
1.6227,72.68
1.6276,72.289
1.6227,71.996
1.6139,72.631
1.6031,75.611
1.5904,83.279
1.5767,96.418
1.5611,112.49
1.5445,126.51
1.5259,134.22
1.5054,135.88
1.4888,135.01
1.4761,135.1
1.4614,136.86
1.4477,138.57
1.434,138.33
1.4203,135.93
1.4057,132.66
1.392,129.68
1.3803,127.24
1.3685,124.85
1.3568,121.87
1.346,118.25
1.3343,114.3
1.3265,110.39
1.3226,106.53
1.3167,102.72
1.3099,98.86
1.3021,95.099
1.2952,91.925
1.2913,89.727
1.2933,88.554
1.3109,88.115
1.3529,87.968
1.4291,87.871
1.5445,87.626
1.6706,87.382
1.8123,87.187
1.9902,87.187
2.1799,87.187
2.3636,87.138
2.5259,86.943
2.6579,86.601
2.7595,86.259
2.8309,85.721
2.8778,85.184
2.9042,84.5
2.913,83.816
2.9071,82.986
2.8895,82.253
2.8602,81.57
2.8211,80.886
2.7722,80.153
2.7126,79.567
2.6442,78.932
2.5679,78.444
2.4878,78.004
2.4066,77.613
2.3265,77.223
2.2493,76.881
2.1779,76.441
2.1193,75.904
2.0694,75.415
2.0225,74.927
1.9804,74.438
1.9443,73.901
1.914,73.413
1.8886,72.875
1.8661,72.436
1.8456,72.436
1.827,74.243
1.8084,79.86
1.7898,90.85
1.7693,106.04
1.7507,121.28
1.7331,131.78
1.7126,135.98
1.6882,136.13
1.6618,136.08
1.6344,137.69
1.6051,140.13
1.5758,141.26
1.5474,140.13
1.5191,137.45
1.4917,134.52
1.4673,131.98
1.4487,129.73
1.434,127.04
1.4174,123.72
1.3998,119.86
1.3822,115.81
1.3656,111.85
1.349,107.95
1.3304,103.84
1.3109,99.691
1.2903,95.734
1.2708,92.413
1.2571,90.117
1.26,88.799
1.2796,88.261
1.3255,88.115
1.4106,87.968
1.5406,87.919
1.7097,87.871
1.9052,87.871
2.1114,87.871
2.3089,87.871
2.4858,87.675
2.6334,87.382
2.7488,86.991
2.8348,86.503
2.8876,85.917
2.9189,85.233
2.9413,84.5
2.9531,83.67
2.9531,82.791
2.9394,82.058
2.912,81.277
2.87,80.544
2.8162,79.909
2.7527,79.323
2.6804,78.786
2.6012,78.346
2.5249,78.004
2.4516,77.613
2.3715,77.32
2.2903,76.881
2.2131,76.441
2.1417,75.855
2.0792,75.318
2.0254,74.683
1.9804,74.097
1.9433,73.608
1.912,73.12
1.8866,72.68
1.8651,72.68
1.8485,74.243
1.8338,79.372
1.8182,89.629
1.8006,104.18
1.782,119.33
1.7615,130.22
1.74,135.01
1.7175,135.49
1.6921,135.25
1.6657,136.37
1.6393,138.42
1.61,139.5
1.5855,138.47
1.565,135.88
1.5415,132.95
1.5171,130.32
1.4936,127.92
1.4702,125.19
1.4477,121.87
1.4272,118.01
1.4066,113.9
1.3871,109.95
1.3675,105.99
1.347,101.89
1.3255,97.786
1.3089,93.927
1.2962,90.752
1.2825,88.603
1.2776,87.529
1.2933,87.187
1.3412,87.04
1.4282,87.04
1.5572,86.991
1.7243,86.991
1.9179,87.04
2.1212,87.04
2.3167,87.04
2.4741,86.845
2.5982,86.601
2.7107,86.161
2.8025,85.721
2.87,85.135
2.9159,84.403
2.9433,83.67
2.9531,82.84
2.9482,82.058
2.9296,81.374
2.8974,80.69
2.8514,80.007
2.7928,79.372
2.7322,78.737
2.6667,78.102
2.5894,77.564
2.5034,76.929
2.4145,76.343
2.3255,75.806
2.2395,75.22
2.1613,74.683
2.0909,73.999
2.0303,73.315
1.9795,72.631
1.9384,71.996
1.9081,71.41
1.8847,70.922
1.8631,70.482
1.8436,70.433
1.825,71.605
1.8065,76.001
1.7879,85.282
1.7674,99.544
1.7439,115.32
1.7195,127.63
1.6931,133.64
1.6647,134.42
1.6354,133.74
1.61,134.37
1.5885,136.23
1.5621,137.54
1.5318,136.76
1.5005,134.17
1.4692,131
1.437,128.26
1.4047,125.92
1.3734,123.43
1.3441,120.3
1.3167,116.49
1.2903,112.44
1.2708,108.43
1.2561,104.48
1.2385,100.47
1.218,96.418
1.1955,92.608
1.1711,89.482
1.1496,87.431
1.1388,86.405
1.1486,86.259
1.1916,86.259
1.2757,86.308
1.4037,86.308
1.5709,86.259
1.737,86.308
1.9042,86.356
2.0919,86.356
2.2766,86.308
2.4418,86.112
2.5777,85.819
2.6823,85.282
2.7586,84.745
2.8104,84.11
2.8407,83.377
2.8514,82.595
2.8465,81.863
2.828,81.13
2.7967,80.349
2.7507,79.665
2.6911,79.127
2.6188,78.59
2.5367,78.102
2.4477,77.662
2.346,77.32
2.2385,76.929
2.1359,76.49
2.0401,76.001
1.9521,75.415
1.8739,74.78
1.8133,74.194
1.7644,73.608
1.7185,73.12
1.6774,72.68
1.6422,72.289
1.6109,71.996
1.5855,72.094
1.564,73.657
1.5455,78.737
1.5279,89.043
1.5093,103.84
1.4897,119.03
1.4731,129.68
1.4565,133.69
1.434,133
1.4066,131.68
1.3763,131.98
1.3441,133.25
1.3099,133.54
1.2757,131.78
1.2414,128.61
1.2082,125.19
1.1769,122.26
1.1457,119.62
1.1173,116.79
1.0968,113.37
1.0802,109.51
1.0606,105.55
1.0411,101.69
1.0235,97.932
1.0068,94.318
0.99022,90.948
0.97361,88.164
0.95894,86.356
0.95015,85.624
0.95601,85.477
0.98729,85.624
1.0401,85.624
1.1232,85.477
1.2542,85.233
1.4291,85.135
1.6364,85.038
1.8573,85.038
2.0733,84.989
2.2688,84.793
2.4301,84.5
2.5523,84.11
2.6364,83.621
2.6891,83.035
2.7165,82.449
2.7214,81.716
2.7087,81.032
2.6843,80.446
2.6481,79.86
2.6002,79.421
2.5425,78.932
2.4761,78.492
2.4027,78.102
2.3245,77.662
2.2434,77.223
2.1613,76.783
2.0802,76.441
2.0108,76.05
1.9511,75.611
1.8915,75.122
1.8377,74.634
1.7918,74.097
1.7566,73.559
1.7292,73.071
1.7097,72.631
1.697,72.192
1.6901,71.85
1.6862,72.192
1.6833,74.438
1.6813,80.739
1.6784,92.315
1.6716,107.75
1.6608,122.45
1.6452,131.73
1.6256,134.61
1.6022,133.93
1.5767,133.44
1.5523,134.81
1.5288,136.76
1.5054,137.25
1.4829,135.54
1.4624,132.61
1.4457,129.68
1.4301,127.19
1.4096,124.85
1.3881,122.11
1.3666,118.69
1.3441,114.88
1.3226,110.92
1.3021,107.16
1.2835,103.35
1.2659,99.495
1.2483,95.637
1.2297,92.315
1.216,89.824
1.2082,88.408
1.2092,87.919
1.2307,87.724
1.2874,87.675
1.3871,87.48
1.5318,87.284
1.7165,87.236
1.9277,87.187
2.1486,87.138
2.3587,86.943
2.5445,86.698
2.695,86.308
2.7977,85.917
2.8651,85.428
2.9159,84.842
2.9482,84.256
2.9648,83.475
2.9658,82.742
2.9531,81.912
2.9257,81.179
2.8837,80.495
2.826,79.86
2.7556,79.225
2.6745,78.688
2.5953,78.199
2.5152,77.809
2.4252,77.418
2.3324,77.125
2.2405,76.734
2.1535,76.343
2.0743,75.855
2.0029,75.318
1.9404,74.731
1.8886,74.243
1.8456,73.803
1.8104,73.364
1.7801,72.924
1.7576,72.436
1.739,72.387
1.7204,73.803
1.7028,78.688
1.6843,88.75
1.6657,103.31
1.6452,118.69
1.6237,130.07
1.6002,135.1
1.5758,135.54
1.5503,135.1
1.521,136.23
1.4976,138.42
1.48,139.74
1.4594,139.06
1.435,136.67
1.4086,133.78
1.3822,131.29
1.3548,129.05
1.3284,126.56
1.305,123.38
1.2845,119.57
1.2649,115.61
1.2463,111.66
1.2278,107.85
1.2141,103.84
1.2014,99.789
1.1848,95.881
1.1662,92.511
1.1486,90.069
1.1398,88.701
1.1535,88.115
1.2004,87.919
1.2933,87.822
1.434,87.675
1.6197,87.626
1.8348,87.529
2.0323,87.529
2.2131,87.48
2.4008,87.284
2.5718,87.04
2.7126,86.601
2.8211,86.112
2.8993,85.575
2.9521,84.94
2.9844,84.158
2.999,83.475
2.9971,82.693
2.9814,81.912
2.9511,81.13
2.9101,80.446
2.8602,79.762
2.7957,79.176
2.7185,78.688
2.6334,78.199
2.5415,77.76
2.4438,77.369
2.3451,76.978
2.2493,76.636
2.1593,76.197
2.0772,75.66
2.0049,75.122
1.9492,74.536
1.9052,73.999
1.8651,73.51
1.8299,72.973
1.7996,72.485
1.7732,72.387
1.7498,73.315
1.7273,77.223
1.7028,85.966
1.6774,99.544
1.653,114.98
1.6276,127.39
1.6002,133.64
1.5777,134.76
1.5562,134.17
1.5298,134.81
1.5005,136.76
1.4721,138.18
1.4448,137.79
1.4174,135.64
1.392,132.66
1.3685,129.97
1.3441,127.63
1.3206,124.99
1.2962,121.82
1.2776,118.06
1.261,114
1.2414,110
1.2209,105.99
1.2004,101.94
1.1799,97.786
1.1574,93.878
1.1339,90.508
1.1144,88.115
1.1036,86.747
1.1134,86.161
1.1564,85.966
1.2405,85.917
1.347,85.868
1.4819,85.819
1.6657,85.819
1.8768,85.819
2.0958,85.819
2.3021,85.673
2.48,85.428
2.6237,85.135
2.7312,84.696
2.8055,84.11
2.8504,83.475
2.8719,82.791
2.8749,82.107
2.8602,81.423
2.8309,80.69
2.7918,80.055
2.7429,79.421
2.6833,78.786
2.6139,78.297
2.5357,77.809
2.4506,77.369
2.3617,76.929
2.2717,76.49
2.1828,76.05
2.0958,75.66
2.0225,75.22
1.9599,74.731
1.8974,74.194
1.8407,73.559
1.7908,72.924
1.7488,72.387
1.7136,71.947
1.6833,71.508
1.6569,71.166
1.6325,71.41
1.61,73.51
1.5855,79.469
1.565,90.801
1.5455,106.14
1.5161,121.04
1.4878,130.76
1.4663,133.88
1.4418,133.05
1.4145,132.12
1.3851,132.95
1.3548,134.42
1.3245,134.76
1.2933,132.95
1.261,129.93
1.2297,126.8
1.2053,124.26
1.1857,121.87
1.1632,119.13
1.1388,115.66
1.1144,111.8
1.0909,107.75
1.0694,103.79
1.0469,99.984
1.0225,96.174
0.99804,92.511
0.97165,89.385
0.94624,87.236
0.93157,86.259
0.9306,86.112
0.94624,86.356
0.99316,86.503
1.0831,86.405
1.2199,86.259
1.3998,86.161
1.6109,86.161
1.8348,86.259
2.0508,86.161
2.2434,85.966
2.4018,85.673
2.5132,85.233
2.5865,84.745
2.6413,84.11
2.6764,83.426
2.694,82.595
2.695,81.863
2.6813,81.13
2.653,80.446
2.609,79.86
2.5494,79.372
2.477,78.786
2.3949,78.297
2.3069,77.809
2.2258,77.32
2.1505,76.929
2.0714,76.636
1.9922,76.246
1.9189,75.757
1.8543,75.122
1.7986,74.341
1.7537,73.657
1.7185,73.12
1.6921,72.631
1.6716,72.24
1.6549,71.947
1.6442,71.85
1.6373,72.778
1.6295,76.294
1.6217,84.549
1.6139,97.932
1.6051,113.66
1.5953,126.6
1.5826,133.1
1.566,133.88
1.5455,132.76
1.522,132.81
1.4966,134.52
1.4692,135.93
1.4467,135.44
1.4301,133.05
1.4115,130.07
1.3939,127.43
1.3773,125.24
1.3607,122.79
1.3441,119.81
1.3275,116.1
1.3109,112.24
1.2952,108.43
1.2815,104.72
1.2669,101.01
1.2551,97.297
1.2463,93.781
1.2356,90.948
1.2258,89.043
1.2229,88.164
1.2356,87.919
1.2757,87.822
1.3539,87.529
1.477,87.236
1.6432,86.991
1.8446,86.845
2.0655,86.845
2.2864,86.991
2.4673,86.943
2.6129,86.747
2.7498,86.356
2.8622,85.868
2.9462,85.282
3.0039,84.696
3.0391,84.012
3.0538,83.23
3.0518,82.498
3.0342,81.716
3.001,80.984
2.9531,80.3
2.8964,79.811
2.8338,79.323
2.7576,78.883
2.6716,78.444
2.5787,78.004
2.4819,77.564
2.3861,77.174
2.2942,76.685
2.2092,76.246
2.1329,75.66
2.0674,75.122
2.0117,74.487
1.9648,73.901
1.9277,73.364
1.8983,72.924
1.871,72.436
1.8456,72.094
1.8231,72.485
1.8006,74.927
1.782,81.472
1.7703,93.292
1.7586,108.68
1.7458,123.18
1.7302,132.37
1.7126,135.35
1.697,135.01
1.6794,135.01
1.6559,136.67
1.6305,138.91
1.6061,139.79
1.5816,138.62
1.5582,136.18
1.5357,133.64
1.5142,131.44
1.4927,129.24
1.4712,126.51
1.4516,123.04
1.434,119.33
1.4223,115.47
1.4125,111.66
1.3998,107.95
1.3861,103.94
1.3695,99.886
1.35,96.125
1.3294,93.048
1.3109,90.997
1.305,89.873
1.3245,89.287
1.3822,88.994
1.4868,88.75
1.609,88.506
1.7546,88.31
1.9472,88.164
2.1632,87.968
2.3803,87.822
2.5806,87.529
2.7507,87.138
2.8856,86.601
2.9873,85.917
3.0587,85.233
3.1046,84.403
3.131,83.67
3.1417,82.937
3.1369,82.156
3.1202,81.423
3.0938,80.788
3.0547,80.251
3.0029,79.762
2.9394,79.323
2.8651,78.786
2.782,78.444
2.6931,78.053
2.6002,77.662
2.5064,77.32
2.4145,76.978
2.3353,76.636
2.2659,76.246
2.1975,75.66
2.1359,75.122
2.0821,74.536
2.0352,74.048
1.9971,73.559
1.9648,73.168
1.9355,73.168
1.9081,74.731
1.8817,79.762
1.8534,89.727
1.8231,104.04
1.7967,118.94
1.7713,129.73
1.741,134.37
1.7087,134.57
1.6755,134.08
1.6422,135.05
1.609,137.01
1.5767,138.03
1.5455,137.25
1.5171,135.01
1.4907,132.32
1.4663,130.07
1.4467,127.92
1.4301,125.48
1.4115,122.35
1.392,118.69
1.3724,114.88
1.3529,110.97
1.3353,107.12
1.3177,103.11
1.2981,99.056
1.2766,95.246
1.2571,92.169
1.2454,89.971
1.2444,88.799
1.259,88.31
1.2972,88.115
1.3734,87.968
1.4936,87.822
1.6569,87.675
1.8553,87.529
2.0733,87.48
2.2669,87.382
2.4262,87.138
2.5689,86.796
2.6872,86.356
2.7781,85.917
2.8358,85.282
2.8719,84.598
2.8974,83.816
2.911,82.937
2.913,82.107
2.9022,81.374
2.8798,80.69
2.8446,80.055
2.7967,79.421
2.737,78.932
2.6667,78.346
2.5875,77.858
2.5024,77.369
2.4233,76.783
2.348,76.294
2.2678,75.757
2.1887,75.122
2.1153,74.487
2.0489,73.852
1.9912,73.168
1.9423,72.533
1.8964,71.85
1.8612,71.215
1.8387,70.629
1.8172,70.189
1.7986,70.482
1.782,72.973
1.7625,79.665
1.74,91.68
1.7146,107.26
1.6891,121.72
1.6637,130.8
1.6393,133.64
1.6149,133.05
1.5914,132.76
1.5679,134.08
1.5435,135.74
1.522,136.13
1.5015,134.42
1.4761,131.63
1.4477,128.85
1.4174,126.56
1.3842,124.41
1.35,121.82
1.3157,118.5
1.2825,114.69
1.2512,110.73
1.2229,106.87
1.1965,103.01
1.172,98.909
1.1544,94.904
1.1408,91.387
1.1241,88.701
1.1095,87.138
1.1056,86.552
1.1222,86.503
1.1701,86.601
1.2581,86.601
1.39,86.552
1.5601,86.503
1.7566,86.405
1.9629,86.405
2.1388,86.308
2.2874,86.063
2.4291,85.721
2.5503,85.282
2.6442,84.745
2.7116,84.158
2.7566,83.426
2.783,82.693
2.7937,81.863
2.7889,81.13
2.7703,80.446
2.738,79.762
2.6921,79.176
2.6403,78.688
2.5806,78.248
2.5064,77.809
2.4223,77.418
2.3314,76.978
2.2366,76.539
2.1437,76.099
2.0557,75.66
1.9746,75.122
1.9013,74.487
1.8377,73.803
1.7849,73.217
1.7449,72.729
1.7136,72.289
1.6833,71.947
1.6549,71.654
1.6295,72.045
1.6061,74.438
1.5826,80.886
1.5601,92.657
1.5386,108.04
1.5171,122.31
1.4936,130.95
1.4702,133.1
1.4448,131.88
1.4233,130.95
1.4047,131.68
1.3842,132.86
1.3617,132.66
1.3372,130.61
1.3128,127.43
1.2903,124.36
1.2688,121.72
1.2473,119.23
1.2258,116.35
1.2043,112.93
1.1838,109.07
1.1681,105.06
1.1554,101.25
1.1408,97.493
1.1261,93.927
1.1105,90.655
1.0938,88.261
1.0782,86.796
1.0684,86.259
1.0723,86.259
1.0987,86.308
1.1574,86.161
1.2571,85.868
1.3978,85.575
1.5455,85.379
1.7028,85.233
1.8895,85.038
2.0802,84.842
2.2551,84.549
2.4037,84.158
2.52,83.719
2.6041,83.182
2.6598,82.547
2.6921,81.863
2.7048,81.13
2.7019,80.349
2.6862,79.665
2.6598,79.127
2.6217,78.688
2.5718,78.248
2.5132,77.858
2.4457,77.467
2.3724,77.125
2.2952,76.783
2.216,76.441
2.1378,76.05
2.0626,75.66
1.9922,75.22
1.9218,74.78
1.8671,74.292
1.8309,73.803
1.7957,73.364
1.7644,73.071
1.737,72.68
1.7165,72.289
1.7009,72.094
1.6882,72.68
1.6764,75.464
1.6647,82.693
1.653,95.099
1.6383,110.63
1.6256,124.31
1.6119,132.22
1.5934,134.13
1.5718,133.34
1.5494,133.44
1.5279,135.05
1.5064,136.81
1.4868,136.86
1.4702,134.91
1.4565,132.07
1.4438,129.39
1.4301,127.19
1.4174,124.94
1.4066,122.11
1.3969,118.54
1.3832,114.69
1.3695,110.83
1.3578,106.97
1.346,103.16
1.3324,99.3
1.3177,95.637
1.3021,92.511
1.2864,90.313
1.2757,89.189
1.2786,88.799
1.2981,88.603
1.3441,88.408
1.4311,88.164
1.5611,87.919
1.7292,87.822
1.9257,87.724
2.132,87.675
2.3314,87.431
2.5083,87.138
2.654,86.747
2.7654,86.308
2.8446,85.721
2.8974,85.135
2.9238,84.403
2.9326,83.719
2.9316,82.986
2.9198,82.253
2.8974,81.472
2.8622,80.886
2.8143,80.153
2.7537,79.616
2.6813,79.127
2.5992,78.59
2.5112,78.248
2.4203,77.906
2.3372,77.564
2.261,77.125
2.1818,76.685
2.1056,76.197
2.0371,75.611
1.9765,75.073
1.9257,74.536
1.8837,74.097
1.8485,73.608
1.8182,73.168
1.7937,72.778
1.7713,72.973
1.7498,75.122
1.7322,81.277
1.7165,92.657
1.6979,107.85
1.6784,122.55
1.6579,132.17
1.6373,135.64
1.6149,135.44
1.5914,135.3
1.566,137.01
1.5406,139.3
1.5142,140.33
1.4888,139.25
1.4692,136.81
1.4526,134.22
1.4321,132.12
1.4106,129.97
1.3871,127.43
1.3636,124.11
1.3412,120.35
1.3196,116.44
1.3001,112.54
1.2815,108.63
1.263,104.58
1.2444,100.42
1.2307,96.565
1.2199,93.341
1.1945,91.192
1.1701,89.922
1.173,89.434
1.2102,89.189
1.2884,89.043
1.4115,88.945
1.5767,88.75
1.7722,88.603
1.9824,88.506
2.1896,88.31
2.3793,88.066
2.5239,87.675
2.6315,87.236
2.7263,86.747
2.8016,86.161
2.8583,85.477
2.8983,84.745
2.9208,83.914
2.9277,83.133
2.9198,82.351
2.8974,81.667
2.8592,81.032
2.8065,80.446
2.7478,79.811
2.6823,79.323
2.6041,78.883
2.4917,78.444
2.3861,78.053
2.3099,77.662
2.2248,77.223
2.1408,76.734
2.0616,76.246
1.9902,75.66
1.9277,75.171
1.8749,74.683
1.8299,74.243
1.7967,73.755
1.7713,73.217
1.7478,73.168
1.7263,74.536
1.7048,79.176
1.6833,88.847
1.6608,103.06
1.6364,118.25
1.6109,129.63
1.5836,134.66
1.5552,135.2
1.5269,134.76
1.5034,135.93
1.4829,138.18
1.4594,139.74
1.434,139.25
1.4086,137.06
1.3822,134.37
1.3558,131.98
1.3304,129.73
1.306,127.24
1.2835,124.02
1.262,120.25
1.2424,116.3
1.2229,112.29
1.2082,108.29
1.1965,104.23
1.1818,100.03
1.1642,96.076
1.1447,92.608
1.1261,90.166
1.1153,88.75
1.1212,88.066
1.1554,87.724
1.2278,87.529
1.3421,87.382
1.4976,87.236
1.6559,87.138
1.8192,87.04
2.0088,86.943
2.1984,86.698
2.3695,86.356
2.5122,85.966
2.6237,85.477
2.7048,84.989
2.7605,84.354
2.7947,83.719
2.8094,82.986
2.8084,82.253
2.7918,81.57
2.7644,80.935
2.7253,80.3
2.6725,79.762
2.609,79.225
2.5357,78.786
2.4526,78.346
2.3627,77.906
2.2688,77.564
2.175,77.125
2.0841,76.685
1.999,76.246
1.9228,75.757
1.8622,75.22
1.8133,74.683
1.7664,74.097
1.7243,73.559
1.6891,72.973
1.6588,72.485
1.6334,72.192
1.609,72.24
1.5855,73.901
1.5611,79.176
1.5367,89.678
1.5103,104.58
1.4809,119.86
1.4555,130.61
1.4321,134.81
1.4047,134.52
1.3763,133.69
1.349,134.57
1.3206,136.37
1.2923,137.25
1.2571,135.98
1.2258,133.25
1.2033,130.32
1.1779,127.83
1.1515,125.63
1.131,123.04
1.1134,119.81
1.0938,115.91
1.0733,111.85
1.0538,107.85
1.0342,103.84
1.0156,99.935
0.99609,96.125
0.97458,92.608
0.9521,90.069
0.93255,88.554
0.92375,88.115
0.93548,88.164
0.96774,88.261
1.0293,88.115
1.1369,87.871
1.2893,87.626
1.478,87.529
1.6872,87.626
1.8993,87.626
2.0968,87.529
2.2669,87.284
2.4027,86.943
2.5044,86.503
2.5748,85.868
2.6149,85.184
2.6344,84.5
2.6364,83.719
2.6285,83.035
2.6168,82.449
2.5904,81.863
2.5318,81.374
2.4702,80.886
2.4194,80.349
2.3539,79.86
2.2776,79.421
2.1955,78.932
2.1114,78.444
2.0381,77.906
1.9726,77.32
1.9062,76.636
1.8446,75.904
1.7849,75.171
1.7331,74.634
1.7028,74.194
1.6833,73.755
1.6667,73.364
1.6549,73.12
1.6461,73.608
1.6383,76.441
1.6315,83.67
1.6246,96.223
1.6149,111.85
1.6031,125.63
1.5846,133.49
1.566,135.3
1.5503,134.52
1.5308,134.57
1.5054,136.37
1.4761,138.33
1.4555,138.47
1.436,136.67
1.4164,133.78
1.4008,131.1
1.3881,128.95
1.3724,126.6
1.3509,123.82
1.3314,120.3
1.3118,116.44
1.2933,112.54
1.2766,108.73
1.26,104.87
1.2424,100.91
1.2239,97.053
1.2111,93.634
1.2043,91.192
1.2053,89.824
1.2239,89.238
1.2727,89.043
1.3607,88.799
1.4927,88.506
1.6637,88.115
1.8045,87.919
1.9873,87.919
2.2356,87.871
2.4399,87.724
2.6031,87.431
2.7155,87.04
2.7908,86.601
2.8504,86.161
2.8925,85.575
2.9179,84.94
2.9286,84.158
2.9267,83.426
2.911,82.693
2.8807,82.009
2.8358,81.374
2.7791,80.788
2.7116,80.251
2.6422,79.762
2.5699,79.225
2.4888,78.786
2.4037,78.444
2.3187,78.053
2.2356,77.662
2.1584,77.32
2.0899,76.783
2.0293,76.294
1.9785,75.806
1.9355,75.318
1.8983,74.878
1.87,74.341
1.8485,73.852
1.827,73.413
1.8045,73.559
1.784,75.366
1.7644,80.984
1.7439,91.925
1.7224,107.12
1.6999,122.26
1.6764,132.61
1.651,136.57
1.6246,136.57
1.5973,136.62
1.5738,138.42
1.5523,141.06
1.5298,142.43
1.5073,141.5
1.4839,139.06
1.4594,136.37
1.437,134.13
1.4145,132.07
1.4145,129.53
1.4252,126.26
1.4223,122.45
1.4125,118.5
1.4037,114.54
1.3949,110.63
1.3803,106.53
1.3627,102.43
1.3451,98.372
1.3284,94.855
1.3206,92.315
1.3304,90.801
1.3695,90.117
1.4477,89.922
1.5709,89.824
1.7361,89.629
1.9335,89.482
2.1183,89.287
2.2913,89.189
2.4751,89.043
2.6461,88.799
2.7918,88.506
2.9071,88.066
2.9932,87.529
3.0547,86.943
3.0968,86.308
3.1212,85.624
3.13,84.842
3.1232,84.061
3.1036,83.279
3.0714,82.547
3.0264,81.863
2.9687,81.228
2.8993,80.69
2.8201,80.153
2.7331,79.762
2.6413,79.372
2.5484,78.932
2.4575,78.492
2.3695,78.102
2.2874,77.662
2.2141,77.174
2.1554,76.636
2.1095,76.099
2.0684,75.562
2.0323,75.073
2.001,74.536
1.9736,73.999
1.9492,73.755
1.9257,74.438
1.9032,77.76
1.8807,85.819
1.8573,99.007
1.8338,114.54
1.8113,127.73
1.7898,134.91
1.7654,136.67
1.738,136.37
1.7097,137.06
1.6813,139.25
1.653,141.16
1.6266,141.31
1.6002,139.5
1.5758,136.81
1.5513,134.32
1.5279,132.12
1.5064,129.88
1.4888,126.99
1.4731,123.48
1.4565,119.62
1.4389,115.76
1.4203,111.8
1.4018,107.8
1.3812,103.7
1.3597,99.495
1.3392,95.734
1.3236,92.804
1.3216,90.997
1.3441,90.069
1.3881,89.727
1.4624,89.531
1.5846,89.385
1.7507,89.238
1.9492,89.092
2.1642,88.994
2.3773,88.847
2.5709,88.603
2.7341,88.359
2.8641,87.919
2.9609,87.48
3.0293,86.943
3.0743,86.308
3.0958,85.624
3.0997,84.842
3.0948,84.11
3.0792,83.279
3.0528,82.498
3.0127,81.716
2.9589,81.032
2.8935,80.495
2.8172,79.909
2.7312,79.469
2.6393,79.127
2.5445,78.737
2.4594,78.346
2.3822,78.004
2.3021,77.613
2.2248,77.174
2.1554,76.685
2.0948,76.099
2.044,75.562
2.002,75.073
1.9677,74.536
1.9394,74.097
1.914,73.657
1.8905,73.51
1.868,74.341
1.8495,78.102
1.8319,86.601
1.8104,100.18
1.7879,115.76
1.7644,128.26
1.738,134.66
1.7107,135.88
1.6823,135.3
1.653,135.98
1.6246,137.98
1.5973,139.6
1.5689,139.3
1.5435,137.11
1.521,134.22
1.4956,131.54
1.4682,129.19
1.4418,126.7
1.4174,123.62
1.3949,119.91
1.3724,116
1.3529,112.05
1.3353,108.09
1.3177,104.14
1.2991,99.984
1.2805,96.076
1.2678,92.608
