0.37439,56.519
0.37243,59.844
0.3695,64.733
0.36657,70.404
0.36364,76.662
0.3607,82.529
0.35777,88.201
0.35582,93.09
0.35484,97.393
0.35191,100.91
0.34995,103.46
0.34702,105.22
0.34409,106
0.34115,106.19
0.33822,105.61
0.33431,104.43
0.33138,102.87
0.32845,101.11
0.32454,98.761
0.3216,96.219
0.31867,93.481
0.31574,90.352
0.31281,87.027
0.3089,83.507
0.30596,80.378
0.30205,77.249
0.29814,74.707
0.29521,72.555
0.29228,70.6
0.29326,69.035
0.29717,67.862
0.30499,67.08
0.31867,66.297
0.34018,65.711
0.37146,65.319
0.41056,65.124
0.45455,64.928
0.50342,64.733
0.5523,64.537
0.59922,64.537
0.64125,64.537
0.67937,64.342
0.70968,64.146
0.73509,63.95
0.75073,63.755
0.76051,63.559
0.76833,63.364
0.77126,62.973
0.77028,62.777
0.76442,62.386
0.75464,61.995
0.74096,61.604
0.72434,61.408
0.70381,61.017
0.68133,60.626
0.65591,60.43
0.63343,60.039
0.61095,59.844
0.58749,59.452
0.56403,59.061
0.54057,58.67
0.51906,58.279
0.49951,57.888
0.48192,57.301
0.46628,56.91
0.45259,56.519
0.44086,56.128
0.43109,55.541
0.42229,55.15
0.41544,54.759
0.40958,54.368
0.40371,53.977
0.39883,53.585
0.39394,53.194
0.38905,52.803
0.38416,52.608
0.38025,52.608
0.37634,52.803
0.37146,53.781
0.36755,55.541
0.36364,58.67
0.35973,63.364
0.35679,69.035
0.35288,75.293
0.34897,81.552
0.34506,87.419
0.34115,92.699
0.33724,97.197
0.33333,101.11
0.32942,103.85
0.32551,105.8
0.3216,106.98
0.31769,107.17
0.31378,106.78
0.31085,105.61
0.30792,104.24
0.30401,102.09
0.3001,99.739
0.29619,97.197
0.2913,94.263
0.28739,91.134
0.28348,87.81
0.27957,84.289
0.27468,80.965
0.27077,78.031
0.26588,75.293
0.26295,72.947
0.261,70.991
0.26002,69.231
0.261,68.057
0.26784,66.884
0.28152,66.102
0.30303,65.515
0.33431,64.928
0.37341,64.537
0.41935,64.342
0.46921,64.146
0.51906,63.95
0.56794,63.95
0.60704,63.95
0.6393,63.755
0.6696,63.755
0.69697,63.559
0.7175,63.559
0.73314,63.364
0.74291,63.168
0.7478,62.973
0.74682,62.582
0.74096,62.386
0.73118,61.995
0.7175,61.604
0.70186,61.408
0.68426,61.017
0.66276,60.821
0.6393,60.43
0.61388,60.039
0.58847,59.844
0.56207,59.452
0.53666,59.061
0.5132,58.67
0.49071,58.279
0.47019,57.888
0.45161,57.497
0.435,56.91
0.42229,56.519
0.41251,56.128
0.40176,55.541
0.39296,55.15
0.38416,54.759
0.37732,54.368
0.37146,53.977
0.36559,53.585
0.3607,53.194
0.35679,52.999
0.35288,52.803
0.34897,52.608
0.34702,52.803
0.34409,53.194
0.34213,54.368
0.33822,56.519
0.33529,60.039
0.33236,64.928
0.32845,70.6
0.32551,76.662
0.3216,82.529
0.31867,87.81
0.31574,92.503
0.31183,96.61
0.3089,99.935
0.30694,102.28
0.30499,103.85
0.30303,104.63
0.3001,104.43
0.29423,103.85
0.28739,102.48
0.28152,100.72
0.27761,98.566
0.27273,96.024
0.26882,93.286
0.26491,90.157
0.261,86.832
0.25806,83.312
0.25611,79.987
0.25318,77.054
0.25024,74.511
0.24633,72.164
0.2434,70.404
0.24145,68.84
0.24145,67.471
0.24536,66.297
0.25513,65.515
0.27273,64.928
0.29814,64.342
0.33138,63.95
0.36559,63.559
0.40078,63.364
0.44379,63.168
0.48974,63.168
0.53372,62.973
0.57576,62.973
0.61193,62.973
0.64223,62.973
0.66667,62.777
0.68524,62.582
0.69795,62.582
0.70381,62.19
0.70479,61.995
0.70186,61.604
0.69501,61.408
0.68426,61.017
0.6696,60.821
0.652,60.43
0.63148,60.039
0.60899,59.844
0.58553,59.648
0.56109,59.257
0.53666,58.866
0.51222,58.67
0.48974,58.279
0.47116,57.888
0.45455,57.497
0.43793,57.106
0.42326,56.715
0.40958,56.323
0.39687,55.737
0.38612,55.346
0.37634,54.954
0.36852,54.563
0.36168,54.172
0.35582,53.781
0.35093,53.39
0.34702,52.999
0.34506,52.608
0.34213,52.412
0.3392,52.216
0.33529,52.216
0.33236,52.608
0.32942,53.39
0.32649,55.15
0.32356,58.083
0.32063,62.582
0.31769,68.057
0.31476,73.924
0.31183,79.987
0.30987,85.463
0.30792,90.548
0.30596,95.046
0.30401,98.761
0.30108,101.5
0.29814,103.65
0.29619,104.63
0.29326,105.02
0.29032,104.63
0.28739,103.65
0.28348,102.09
0.27957,100.13
0.27761,97.784
0.27566,95.046
0.27273,92.112
0.26979,88.788
0.26588,85.463
0.26197,81.943
0.25806,78.814
0.25513,75.88
0.25122,73.533
0.24829,71.382
0.24536,69.622
0.24536,68.057
0.24731,67.08
0.25318,66.102
0.26491,65.319
0.28446,64.733
0.31183,64.342
0.34702,63.95
0.38905,63.755
0.43597,63.559
0.48485,63.364
0.53177,63.364
0.57576,63.364
0.61486,63.168
0.64809,63.168
0.67155,63.168
0.68915,62.973
0.70283,62.777
0.71261,62.582
0.7175,62.386
0.7175,62.19
0.71261,61.799
0.70381,61.408
0.69013,61.213
0.67351,60.821
0.65396,60.43
0.63148,60.235
0.60997,59.844
0.58944,59.648
0.56598,59.452
0.54154,59.061
0.51808,58.67
0.4956,58.279
0.47507,57.888
0.45552,57.497
0.43793,57.106
0.42326,56.715
0.40958,56.323
0.39785,55.737
0.38807,55.346
0.38123,54.954
0.37439,54.563
0.36852,54.172
0.36364,53.781
0.35875,53.39
0.35484,52.999
0.35093,52.803
0.34702,52.608
0.34409,52.412
0.34115,52.608
0.33724,53.194
0.33431,54.563
0.33236,57.106
0.32942,61.017
0.32747,66.297
0.32454,72.164
0.3216,78.227
0.31867,84.094
0.31574,89.57
0.31281,94.263
0.30987,98.37
0.30694,101.5
0.30401,103.85
0.30108,105.41
0.29814,106
0.29619,105.8
0.29423,105.02
0.2913,103.65
0.28837,101.89
0.28543,99.739
0.28152,97.197
0.27761,94.263
0.2737,91.134
0.26979,87.81
0.26686,84.485
0.26295,81.16
0.25904,78.031
0.25611,75.293
0.25415,72.947
0.2522,70.991
0.25024,69.231
0.25024,68.057
0.25415,66.884
0.26491,66.102
0.2825,65.515
0.3089,64.928
0.34311,64.537
0.38416,64.342
0.43109,64.146
0.47898,63.95
0.52199,63.95
0.55816,63.95
0.59629,63.755
0.63245,63.755
0.66276,63.755
0.68719,63.559
0.70577,63.364
0.71848,63.364
0.72532,63.168
0.72727,62.973
0.72434,62.582
0.71652,62.19
0.70577,61.995
0.69208,61.604
0.67449,61.408
0.65396,61.017
0.63148,60.626
0.60704,60.235
0.58162,60.039
0.55621,59.648
0.53177,59.257
0.50831,58.866
0.48583,58.475
0.4653,58.279
0.44673,57.692
0.43206,57.301
0.42033,56.91
0.4086,56.323
0.39785,55.932
0.38807,55.346
0.38025,54.954
0.37243,54.563
0.36657,54.172
0.36168,53.781
0.35679,53.39
0.35288,52.999
0.34995,52.803
0.34702,52.803
0.34506,52.803
0.34213,53.39
0.3392,54.368
0.33627,56.715
0.33333,60.43
0.3304,65.515
0.32747,71.382
0.32454,77.64
0.3216,83.703
0.31867,89.179
0.31574,94.263
0.31281,98.761
0.30987,102.28
0.30792,105.02
0.30596,106.78
0.30303,107.56
0.3001,107.56
0.29619,106.98
0.29228,105.8
0.28935,104.24
0.28543,102.09
0.28152,99.739
0.27761,97.001
0.2737,94.068
0.27175,90.743
0.26882,87.223
0.26588,83.898
0.26295,80.574
0.25904,77.445
0.25513,74.902
0.2522,72.555
0.24927,70.795
0.24927,69.231
0.25318,68.057
0.26295,67.08
0.2825,66.297
0.31281,65.711
0.34409,65.319
0.37732,64.928
0.42033,64.733
0.46823,64.537
0.51808,64.342
0.56696,64.342
0.61193,64.342
0.652,64.146
0.68524,64.146
0.71261,63.95
0.73314,63.95
0.74682,63.755
0.75367,63.559
0.75464,63.168
0.75269,62.973
0.7478,62.777
0.73803,62.386
0.72434,61.995
0.70674,61.604
0.68719,61.408
0.66373,61.017
0.6393,60.821
0.6129,60.43
0.58651,60.235
0.56012,59.844
0.53763,59.452
0.51808,59.257
0.49756,58.866
0.47801,58.475
0.45943,58.083
0.44282,57.692
0.42913,57.301
0.41642,56.91
0.40567,56.323
0.39687,55.932
0.38807,55.541
0.38123,55.15
0.37634,54.759
0.37243,54.368
0.36852,53.977
0.36461,53.781
0.3607,53.781
0.35777,53.781
0.35386,53.977
0.35093,54.954
0.348,56.91
0.34506,60.235
0.34213,65.124
0.3392,70.991
0.33627,77.249
0.33431,83.312
0.33138,88.983
0.32845,94.263
0.32551,98.957
0.32258,102.67
0.31965,105.61
0.31672,107.56
0.31378,108.74
0.31085,108.93
0.30792,108.54
0.30499,107.37
0.30108,105.8
0.29912,103.85
0.29717,101.5
0.29423,98.957
0.2913,96.219
0.28837,93.09
0.28446,89.765
0.28152,86.245
0.27859,82.921
0.27468,79.791
0.27175,77.249
0.26882,74.902
0.26686,72.947
0.26686,71.382
0.26882,70.013
0.27566,69.035
0.28935,68.057
0.31085,67.471
0.34018,67.08
0.3783,66.688
0.42326,66.493
0.47214,66.493
0.52199,66.297
0.57087,66.297
0.61681,66.102
0.65689,66.102
0.68719,66.102
0.70968,65.906
0.72923,65.906
0.74585,65.711
0.7566,65.515
0.76149,65.124
0.76246,64.928
0.75855,64.537
0.75073,64.146
0.739,63.755
0.72239,63.559
0.70381,63.168
0.68426,62.973
0.66373,62.582
0.64125,62.19
0.61681,61.799
0.5914,61.604
0.56696,61.213
0.5435,60.821
0.52199,60.43
0.50147,60.039
0.48387,59.648
0.46823,59.257
0.45357,58.67
0.44184,58.279
0.43304,57.888
0.42522,57.301
0.41838,56.91
0.41251,56.519
0.40665,56.128
0.40176,55.737
0.39785,55.346
0.39394,55.15
0.39101,54.954
0.38807,54.954
0.38514,55.15
0.38221,56.128
0.37928,58.083
0.37732,61.408
0.37537,66.297
0.37243,72.36
0.3695,78.814
0.36657,85.267
0.36364,91.134
0.3607,96.61
0.35679,101.11
0.35386,105.02
0.35093,107.95
0.348,109.91
0.34506,110.89
0.34311,111.08
0.34115,110.5
0.33822,109.32
0.33529,107.76
0.33138,105.8
0.32747,103.65
0.32454,101.11
0.32063,98.37
0.31672,95.046
0.31281,91.917
0.30987,88.201
0.30596,84.681
0.30303,81.552
0.30108,78.618
0.29814,76.076
0.29521,73.729
0.29423,72.164
0.29521,70.6
0.30205,69.426
0.31574,68.449
0.33822,67.862
0.36852,67.275
0.40665,66.884
0.45161,66.688
0.49951,66.297
0.54252,66.297
0.58065,66.102
0.62072,66.102
0.65885,66.102
0.69208,65.906
0.71945,65.906
0.74096,65.711
0.7566,65.515
0.76637,65.124
0.77028,64.928
0.77028,64.537
0.76442,64.146
0.75562,63.755
0.74389,63.364
0.72923,62.973
0.71065,62.777
0.68915,62.386
0.66569,61.995
0.64027,61.604
0.61388,61.213
0.58651,60.821
0.56109,60.43
0.53568,60.039
0.51222,59.844
0.49071,59.257
0.47312,58.866
0.45846,58.279
0.44379,57.888
0.43011,57.301
0.41838,56.91
0.40762,56.519
0.39883,55.932
0.39101,55.541
0.38514,55.15
0.37928,54.759
0.37439,54.368
0.3695,53.977
0.36657,53.781
0.36364,53.585
0.35973,53.781
0.35582,54.172
0.35191,55.346
0.348,57.692
0.34409,61.408
0.34018,66.688
0.33627,72.751
0.33236,79.009
0.32845,85.072
0.32454,90.743
0.32063,95.632
0.31769,99.935
0.31476,103.46
0.31183,106
0.3089,107.56
0.30499,108.34
0.30108,108.15
0.29717,107.37
0.29326,106
0.28935,104.24
0.28446,102.09
0.28055,99.544
0.27664,96.61
0.2737,93.481
0.27077,90.352
0.26784,86.832
0.26393,83.312
0.26002,79.987
0.25611,77.249
0.2522,74.707
0.24927,72.555
0.24633,70.6
0.24633,69.231
0.25024,68.057
0.26002,67.08
0.27761,66.297
0.29814,65.906
0.32454,65.515
0.3607,65.124
0.40469,64.928
0.45259,64.733
0.50147,64.733
0.54839,64.537
0.59238,64.537
0.6305,64.537
0.66276,64.537
0.68817,64.342
0.70674,64.146
0.7175,63.95
0.72336,63.755
0.72532,63.364
0.72336,63.168
0.71652,62.777
0.70186,62.386
0.67937,62.19
0.65885,61.799
0.63832,61.408
0.61584,61.017
0.5914,60.626
0.56794,60.43
0.5435,60.039
0.52199,59.648
0.50244,59.257
0.48289,58.866
0.46334,58.475
0.44575,58.083
0.42913,57.692
0.41447,57.106
0.40176,56.715
0.39101,56.128
0.38221,55.737
0.37341,55.346
0.36657,54.954
0.36168,54.368
0.35875,53.977
0.35484,53.585
0.35093,53.39
0.348,52.999
0.34506,52.803
0.34213,52.803
0.3392,53.194
0.33627,53.781
0.33333,55.15
0.3304,57.497
0.32747,61.408
0.32551,66.688
0.32356,72.36
0.32063,78.422
0.31769,84.289
0.31476,89.374
0.31183,94.068
0.3089,98.175
0.30596,101.3
0.30303,103.65
0.3001,104.82
0.29717,105.41
0.29423,105.22
0.2913,104.24
0.28935,102.67
0.28739,100.91
0.28446,98.37
0.28055,95.828
0.27761,92.699
0.2737,89.374
0.26979,86.05
0.26588,82.529
0.26295,79.4
0.25904,76.467
0.25611,73.729
0.25318,71.578
0.25122,69.818
0.25122,68.253
0.25122,67.08
0.25513,66.102
0.26393,65.515
0.27859,64.928
0.30108,64.537
0.33138,64.146
0.3695,63.95
0.41153,63.755
0.4565,63.755
0.50244,63.755
0.54545,63.755
0.57967,63.755
0.60704,63.559
0.63343,63.559
0.65591,63.364
0.67351,63.168
0.68524,62.973
0.69208,62.777
0.69404,62.582
0.6911,62.19
0.68328,61.799
0.67155,61.604
0.65689,61.213
0.64027,60.821
0.62268,60.626
0.60215,60.235
0.57967,60.039
0.55621,59.648
0.53275,59.257
0.50929,58.866
0.48778,58.475
0.46725,58.279
0.44868,57.888
0.43304,57.301
0.41838,56.91
0.40567,56.519
0.39589,56.128
0.38807,55.541
0.38025,55.15
0.37341,54.759
0.36755,54.368
0.36266,53.977
0.35875,53.585
0.35484,53.194
0.35191,52.999
0.34897,52.803
0.34604,52.803
0.34409,52.803
0.34213,53.194
0.34018,54.368
0.33822,56.323
0.33529,59.844
0.33236,64.537
0.32942,70.209
0.32649,76.076
0.32454,81.747
0.3216,87.027
0.31867,91.721
0.31574,95.828
0.31378,99.153
0.31085,101.69
0.3089,103.26
0.30792,104.04
0.30499,104.04
0.30205,103.26
0.29912,102.09
0.29619,100.13
0.29228,97.979
0.28837,95.437
0.28543,92.503
0.28152,89.374
0.27859,85.854
0.27468,82.529
0.27273,79.4
0.27077,76.467
0.26882,73.924
0.26588,71.773
0.26295,70.013
0.261,68.449
0.26002,67.275
0.26295,66.297
0.27077,65.515
0.28446,64.928
0.30499,64.342
0.33431,64.146
0.37048,63.755
0.40567,63.559
0.44086,63.364
0.48192,63.364
0.52395,63.364
0.56403,63.364
0.6002,63.168
0.63148,63.168
0.65689,62.973
0.67546,62.973
0.68915,62.777
0.69599,62.582
0.69892,62.19
0.69697,61.995
0.69013,61.604
0.68133,61.408
0.66764,61.017
0.65103,60.821
0.63245,60.43
0.61095,60.039
0.58847,59.844
0.565,59.452
0.54154,59.257
0.51906,58.866
0.49756,58.475
0.47703,58.083
0.46041,57.692
0.44575,57.301
0.43206,56.91
0.41935,56.519
0.40762,55.932
0.39785,55.541
0.38905,55.15
0.38123,54.759
0.37537,54.368
0.3695,53.977
0.36461,53.585
0.3607,53.194
0.35777,52.803
0.35582,52.608
0.35288,52.608
0.34995,52.608
0.348,53.194
0.34506,54.368
0.34213,56.519
0.34018,60.039
0.33724,65.124
0.33431,70.795
0.33138,76.858
0.32845,82.725
0.32649,88.396
0.32454,93.286
0.32258,97.588
0.32063,101.11
0.31769,103.65
0.31574,105.22
0.31281,106
0.30987,106
0.30694,105.41
0.30401,104.24
0.3001,102.48
0.29717,100.33
0.29326,97.784
0.2913,94.85
0.28935,91.721
0.28641,88.201
0.28348,84.681
0.27957,81.356
0.27664,78.227
0.27273,75.293
0.26979,72.947
0.26686,70.991
0.26393,69.231
0.26393,67.862
0.26686,66.884
0.27566,66.102
0.28837,65.515
0.30596,64.928
0.33236,64.537
0.36657,64.342
0.40762,64.146
0.45259,63.95
0.49853,63.95
0.54448,63.95
0.58651,63.95
0.62366,63.95
0.65591,63.95
0.68035,63.755
0.69795,63.755
0.70772,63.559
0.71554,63.168
0.71848,62.973
0.7175,62.777
0.71261,62.386
0.70381,61.995
0.69013,61.604
0.67351,61.408
0.65396,61.017
0.63148,60.626
0.60802,60.43
0.58358,60.039
0.56109,59.844
0.54154,59.452
0.52004,59.061
0.49853,58.67
0.47801,58.279
0.45943,57.692
0.44282,57.301
0.42913,56.91
0.41642,56.519
0.40567,56.128
0.39589,55.541
0.39003,55.15
0.3871,54.759
0.38416,54.368
0.38025,53.977
0.37634,53.585
0.37243,53.194
0.3695,52.999
0.36559,52.803
0.36266,52.803
0.35973,53.194
0.35679,54.172
0.35386,56.323
0.35093,59.844
0.348,64.733
0.34604,70.6
0.34409,76.858
0.34018,82.921
0.33724,88.592
0.33431,93.677
0.33138,98.175
0.32845,101.89
0.32551,104.63
0.32258,106.39
0.31965,107.37
0.31574,107.37
0.31281,106.78
0.31085,105.61
0.3089,104.04
0.30596,101.89
0.30205,99.544
0.29814,96.806
0.29423,93.872
0.29032,90.548
0.28641,87.027
0.2825,83.507
0.27957,80.183
0.27566,77.249
0.27175,74.707
0.26882,72.36
0.26784,70.6
0.26686,69.035
0.26784,67.862
0.2737,66.884
0.28641,66.102
0.30792,65.711
0.33724,65.319
0.37439,64.928
0.41935,64.733
0.46725,64.537
0.51711,64.537
0.56598,64.537
0.60606,64.537
0.63832,64.537
0.6696,64.537
0.69795,64.537
0.72043,64.537
0.73705,64.537
0.7478,64.342
0.75367,63.95
0.75367,63.755
0.74976,63.364
0.73998,63.168
0.72727,62.777
0.71163,62.582
0.69501,62.19
0.67351,61.995
0.65005,61.604
0.62463,61.408
0.59824,61.017
0.57283,60.626
0.54741,60.235
0.52297,59.844
0.50049,59.648
0.47996,59.257
0.46139,58.866
0.44575,58.475
0.43304,58.083
0.42229,57.497
0.41251,57.106
0.40371,56.715
0.39589,56.323
0.38905,55.737
0.38416,55.346
0.37928,55.15
0.37537,54.759
0.37146,54.563
0.36852,54.368
0.36559,54.368
0.36364,54.954
0.36168,56.128
0.35973,58.279
0.35679,62.19
0.35484,67.471
0.35191,73.533
0.34897,79.987
0.34604,86.245
0.34311,91.917
0.34115,97.001
0.33822,101.5
0.33529,105.22
0.33333,107.76
0.33138,109.52
0.32942,110.3
0.32747,110.3
0.32454,109.71
0.3216,108.34
0.31867,106.78
0.31574,104.63
0.31281,102.28
0.3089,99.739
0.30596,96.61
0.30303,93.481
0.3001,90.157
0.29814,86.636
0.29619,83.312
0.29423,80.183
0.2913,77.64
0.28837,75.293
0.28641,73.533
0.28641,71.969
0.28935,70.795
0.29814,69.818
0.31281,69.035
0.33627,68.644
0.36852,68.253
0.4086,68.057
0.44868,67.862
0.48778,67.862
0.53372,67.862
0.58065,67.666
0.62561,67.666
0.66667,67.666
0.70186,67.471
0.73021,67.471
0.75269,67.275
0.76833,67.08
0.7781,66.688
0.78201,66.493
0.78201,66.102
0.77713,65.906
0.76931,65.515
0.75758,65.124
0.74194,64.733
0.72434,64.342
0.70283,64.146
0.67937,63.755
0.65494,63.364
0.62952,62.973
0.60411,62.582
0.57967,62.19
0.55718,61.799
0.53763,61.408
0.52102,60.821
0.5044,60.43
0.48876,59.844
0.47507,59.257
0.46334,58.67
0.45357,58.279
0.44477,57.692
0.43793,57.106
0.43109,56.715
0.42522,56.128
0.42131,55.737
0.4174,55.346
0.41447,55.15
0.41153,54.954
0.4086,54.954
0.40469,55.541
0.40176,56.91
0.39785,59.452
0.39492,63.559
0.39101,69.035
0.3871,75.489
0.38416,82.138
0.38025,88.396
0.37732,94.263
0.37439,99.348
0.37146,103.85
0.36852,107.17
0.36559,109.71
0.36168,111.08
0.35875,111.67
0.35484,111.28
0.35093,110.5
0.34702,109.13
0.34311,107.17
0.3392,105.02
0.33529,102.67
0.33236,99.935
0.32942,96.806
0.32551,93.481
0.3216,89.961
0.31672,86.441
0.31281,83.116
0.30792,79.987
0.30401,77.249
0.3001,74.902
0.29619,72.947
0.29521,71.382
0.29814,70.209
0.30694,69.231
0.31965,68.449
0.3392,68.057
0.36755,67.471
0.40469,67.275
0.44868,67.08
0.4956,67.08
0.54448,66.884
0.59042,66.884
0.63245,66.884
0.6696,66.688
0.6999,66.688
0.72434,66.493
0.739,66.297
0.74878,66.102
0.75464,65.711
0.7566,65.319
0.75464,64.928
0.74878,64.537
0.73803,64.146
0.72434,63.755
0.70772,63.364
0.68719,62.973
0.66471,62.582
0.64027,62.19
0.61779,61.799
0.59531,61.408
0.57087,61.213
0.54643,60.626
0.52199,60.235
0.49951,59.844
0.47898,59.452
0.46041,58.866
0.44379,58.475
0.43011,58.083
0.4174,57.497
0.40762,57.106
0.39883,56.715
0.39198,56.128
0.3871,55.737
0.38123,55.346
0.37732,54.954
0.37243,54.563
0.36852,54.172
0.36461,53.977
0.3607,53.977
0.35777,54.172
0.35386,54.954
0.34995,56.519
0.34702,59.452
0.34409,63.755
0.34115,69.426
0.33724,75.685
0.33431,81.943
0.3304,88.005
0.32649,93.481
0.31769,98.175
0.30792,102.28
0.30108,105.41
0.29619,107.37
0.29228,108.54
0.28837,108.74
0.28543,108.34
0.2825,107.17
0.28055,105.61
0.27761,103.65
0.27468,101.3
0.27077,98.566
0.26686,95.437
0.26295,92.112
0.26002,88.592
0.25611,85.072
0.2522,81.552
0.24927,78.618
0.24536,75.88
0.2434,73.533
0.24145,71.578
0.24047,70.013
0.24047,68.84
0.2434,67.666
0.2522,67.08
0.26784,66.493
0.29228,66.102
0.32454,65.711
0.36364,65.515
0.40762,65.319
0.45455,65.319
0.50147,65.319
0.53959,65.319
0.57283,65.124
0.60508,65.124
0.63343,64.928
0.65591,64.928
0.67351,64.733
0.68524,64.537
0.69208,64.146
0.69306,63.95
0.69013,63.559
0.68231,63.168
0.67058,62.777
0.65689,62.386
0.64125,61.995
0.62268,61.799
0.60117,61.408
0.57771,61.017
0.55327,60.821
0.52884,60.43
0.5044,60.039
0.48192,59.648
0.46041,59.257
0.44086,58.67
0.42326,58.279
0.40762,57.888
0.39589,57.301
0.38612,56.91
0.37732,56.519
0.36852,55.932
0.36168,55.541
0.35484,55.15
0.34995,54.759
0.34506,54.368
0.34115,53.977
0.33724,53.781
0.33431,53.585
0.33138,53.39
0.32942,53.39
0.32747,53.781
0.32551,54.563
0.32258,56.323
0.31965,59.257
0.31672,63.364
0.31281,68.84
0.30987,74.511
0.30694,80.183
0.30401,85.658
0.30108,90.548
0.29814,94.85
0.29521,98.37
0.29326,101.11
0.2913,102.87
0.28935,103.85
0.28641,104.04
0.28348,103.46
0.28055,102.28
0.27664,100.52
0.2737,98.37
0.26979,95.828
0.26588,93.09
0.26295,89.961
0.25904,86.636
0.25709,83.116
0.25513,79.791
0.2522,76.858
0.24927,74.316
0.24633,72.164
0.2434,70.209
0.24145,68.644
0.23949,67.471
0.24047,66.493
0.24536,65.711
0.25611,65.124
0.2737,64.537
0.29912,64.342
0.32649,64.146
0.35679,63.95
0.39492,63.95
0.43793,63.755
0.48094,63.755
0.52297,63.559
0.56109,63.559
0.59531,63.559
0.62268,63.364
0.64418,63.168
0.65885,62.973
0.66862,62.973
0.67253,62.582
0.67253,62.386
0.66764,61.995
0.65982,61.799
0.64809,61.408
0.63343,61.213
0.61486,60.821
0.59433,60.43
0.57185,60.235
0.54839,59.844
0.52493,59.648
0.50244,59.257
0.47996,58.866
0.46237,58.475
0.44575,58.083
0.43011,57.692
0.41544,57.106
0.40176,56.715
0.39003,56.323
0.37928,55.932
0.37048,55.346
0.36266,55.15
0.35679,54.563
0.35093,54.172
0.34604,53.781
0.34311,53.585
0.34115,53.194
0.33822,52.999
0.33627,52.999
0.33333,52.999
0.3304,53.194
0.32845,53.977
0.32551,55.737
0.32258,58.475
0.32063,62.777
0.31769,68.057
0.31476,73.924
0.31183,79.791
0.30987,85.267
0.3089,90.352
0.30694,94.655
0.30401,98.37
0.30205,101.3
0.29912,103.46
0.29717,104.43
0.29423,104.82
0.2913,104.24
0.28837,103.26
0.28543,101.69
0.28152,99.544
0.27957,97.197
0.27761,94.459
0.27468,91.33
0.27175,88.005
0.26882,84.485
0.26491,81.16
0.26197,78.227
0.25904,75.489
0.25513,73.142
0.2522,71.186
0.24927,69.622
0.24829,68.253
0.24927,67.08
0.25415,66.297
0.26197,65.711
0.27664,65.124
0.29912,64.928
0.32845,64.537
0.36559,64.342
0.40762,64.342
0.45259,64.146
0.49853,64.146
0.54154,64.146
0.58162,64.146
0.61584,64.146
0.64027,63.95
0.65885,63.755
0.67351,63.559
0.68524,63.364
0.69208,63.168
0.69404,62.973
0.6911,62.582
0.68426,62.19
0.67253,61.799
0.65787,61.408
0.6393,61.213
0.61877,60.821
0.59824,60.626
0.57869,60.235
0.55621,59.844
0.53275,59.648
0.51026,59.257
0.48876,58.866
0.46823,58.475
0.44966,58.083
0.43304,57.692
0.41838,57.106
0.40567,56.91
0.39492,56.323
0.38514,55.932
0.3783,55.541
0.37243,55.15
0.36755,54.759
0.36266,54.368
0.35777,53.977
0.35386,53.781
0.35093,53.39
0.34702,53.194
0.34409,53.39
0.34115,53.585
0.3392,54.563
0.33627,56.323
0.33431,59.257
0.33236,63.755
0.32942,69.231
0.32649,75.293
0.32356,81.16
0.3216,86.832
0.31867,91.917
0.31574,96.61
0.31281,100.33
0.30987,103.26
0.30694,105.22
0.30401,106.19
0.30108,106.39
0.29912,105.8
0.29717,104.82
0.29423,103.26
0.2913,101.3
0.28837,99.153
0.28543,96.415
0.28152,93.481
0.27761,90.157
0.27468,86.832
0.27077,83.312
0.26784,79.987
0.26393,77.249
0.26491,74.707
0.26882,72.555
0.26882,70.795
0.26784,69.231
0.26882,68.057
0.2737,67.275
0.28446,66.493
0.30205,65.906
0.32747,65.711
0.36168,65.319
0.40371,65.124
0.45161,64.928
0.50147,64.928
0.54545,64.733
0.58358,64.733
0.62366,64.733
0.6608,64.733
0.69306,64.537
0.71945,64.537
0.739,64.342
0.75269,63.95
0.75953,63.755
0.76149,63.559
0.75855,63.168
0.75073,62.973
0.739,62.582
0.72532,62.19
0.70772,61.799
0.68622,61.408
0.66276,61.213
0.63636,60.821
0.60997,60.43
0.58358,60.039
0.55816,59.844
0.53372,59.452
0.51026,58.866
0.48876,58.475
0.47019,58.083
0.45455,57.692
0.44282,57.301
0.43109,56.91
0.42033,56.323
0.41056,55.932
0.40176,55.346
0.39492,54.954
0.38905,54.563
0.38319,54.172
0.3783,53.977
0.37439,53.781
0.37146,53.585
0.36852,53.585
0.36657,53.977
0.36364,54.954
0.3607,56.91
0.35777,60.235
0.35386,64.928
0.35093,70.795
0.34702,77.054
0.34409,83.312
0.34115,88.983
0.33724,94.459
0.33431,98.957
0.33138,102.87
0.32942,105.61
0.32747,107.76
0.32454,108.74
0.3216,108.93
0.31769,108.54
0.31476,107.37
0.31085,105.8
0.30694,104.04
0.30303,101.69
0.29912,99.153
0.29521,96.024
0.2913,92.894
0.28837,89.374
0.28641,85.854
0.28348,82.529
0.27957,79.4
0.27664,76.662
0.27273,74.511
0.26979,72.555
0.26784,70.991
0.26882,69.818
0.2737,68.84
0.28641,68.057
0.30596,67.471
0.33529,67.275
0.36755,66.884
0.40274,66.884
0.4477,66.688
0.49756,66.688
0.54839,66.688
0.59824,66.688
0.64321,66.688
0.68328,66.688
0.71554,66.688
0.74194,66.493
0.76149,66.493
0.77419,66.297
0.78006,65.906
0.78006,65.711
0.77713,65.515
0.77028,65.124
0.75953,64.733
0.74389,64.342
0.72532,63.95
0.70381,63.559
0.67937,63.168
0.65298,62.973
0.62561,62.582
0.59824,62.19
0.57185,61.799
0.54839,61.408
0.52884,61.017
0.50831,60.626
0.48876,60.235
0.47116,59.844
0.45552,59.257
0.44184,58.866
0.43011,58.475
0.42131,58.083
0.41251,57.692
0.40567,57.106
0.40078,56.91
0.39687,56.519
0.39394,56.128
0.39101,55.932
0.38807,55.737
0.38514,55.737
0.38221,56.323
0.37928,57.301
0.37634,59.648
0.37439,63.364
0.37146,68.644
0.36852,74.707
0.36559,81.16
0.36266,87.614
0.3607,93.481
0.35875,98.957
0.35582,103.46
0.35386,107.17
0.35093,109.91
0.348,111.67
0.34506,112.45
0.34213,112.45
0.3392,111.67
0.33627,110.5
0.33333,108.93
0.32942,106.98
0.32747,104.63
0.32551,102.09
0.32258,99.153
0.31965,96.024
0.31672,92.699
0.31378,89.179
0.31085,85.658
0.30792,82.529
0.30499,79.791
0.30205,77.445
0.3001,75.489
0.29912,73.924
0.30205,72.555
0.30792,71.578
0.31965,70.991
0.3392,70.404
0.36755,70.013
0.40469,69.818
0.44966,69.818
0.49951,69.818
0.55132,69.622
0.60215,69.622
0.65005,69.622
0.69306,69.622
0.72923,69.426
0.75562,69.231
0.77322,69.035
0.78886,68.644
0.80059,68.253
0.80743,67.862
0.80938,67.275
0.80743,66.884
0.79961,66.297
0.78886,65.906
0.77322,65.319
0.75464,64.928
0.73314,64.537
0.71163,64.146
0.68915,63.755
0.66471,63.364
0.6393,62.973
0.6129,62.582
0.58749,62.19
0.56403,61.799
0.54252,61.408
0.52297,61.017
0.50635,60.43
0.49169,59.844
0.47898,59.452
0.46823,58.866
0.45943,58.279
0.45259,57.888
0.44673,57.497
0.44086,56.91
0.43597,56.519
0.43206,56.128
0.42815,55.737
0.42424,55.541
0.42033,55.541
0.41642,55.932
0.41251,56.91
0.40762,59.061
0.40371,62.777
0.40078,68.057
0.39589,74.316
0.39101,81.16
0.38612,87.614
0.38123,93.872
0.37732,99.544
0.37243,104.24
0.36755,108.15
0.36266,111.08
0.35777,112.84
0.35386,113.62
0.34897,113.62
0.34506,112.84
0.34115,111.47
0.33724,109.91
0.33236,107.76
0.32649,105.41
0.3216,102.67
0.31574,99.739
0.31085,96.415
0.30499,92.894
0.3001,89.179
0.29423,85.658
0.28935,82.334
0.28543,79.4
0.28152,76.858
0.27859,74.902
0.27468,73.142
0.27468,71.773
0.27859,70.795
0.28935,70.013
0.30792,69.426
0.33627,69.035
0.37341,68.84
0.41838,68.644
0.46823,68.449
0.52004,68.449
0.565,68.253
0.60411,68.253
0.64418,68.057
0.68035,68.057
0.71065,67.862
0.73509,67.666
0.73705,67.471
0.7263,67.08
0.72043,66.884
0.71554,66.493
0.7087,65.906
0.6999,65.711
0.68915,65.319
0.67546,64.733
0.65885,64.342
0.64027,63.95
0.61779,63.559
0.59433,63.168
0.56989,62.973
0.54448,62.582
0.51906,62.19
0.4956,61.604
0.47312,61.213
0.45259,60.821
0.43402,60.235
0.41935,59.844
0.40762,59.257
0.39589,58.866
0.38612,58.279
0.37732,57.888
0.37048,57.301
0.36364,56.91
0.35875,56.519
0.35386,56.128
0.34995,55.737
0.34604,55.346
0.34311,55.15
0.34018,55.15
0.33822,55.15
0.33529,55.541
0.33236,56.715
0.32942,58.67
0.32649,62.386
0.32258,67.275
0.31867,73.338
0.31476,79.791
0.31183,85.854
0.30792,91.721
0.30499,97.001
0.30108,101.3
0.29912,105.02
0.29619,107.56
0.29423,109.32
0.2913,110.1
0.28739,109.91
0.28348,109.13
0.28055,107.76
0.27664,106
0.27273,103.85
0.26882,101.3
0.26491,98.37
0.261,95.241
0.25806,91.917
0.25611,88.201
0.25318,84.681
0.24927,81.356
0.24633,78.422
0.24242,75.88
0.23949,73.729
0.23656,71.969
0.23558,70.6
0.23656,69.426
0.24145,68.644
0.25318,67.862
0.27273,67.471
0.29521,67.08
0.32258,66.884
0.35875,66.688
0.40176,66.493
0.4477,66.493
0.49365,66.493
0.53763,66.297
0.57771,66.297
0.61095,66.102
0.6393,66.102
0.6608,65.906
0.67546,65.711
0.68426,65.319
0.68719,65.124
0.68719,64.733
0.68328,64.537
0.67546,64.146
0.66373,63.755
0.64907,63.364
0.63148,62.973
0.60997,62.582
0.58749,62.19
0.56305,61.799
0.53861,61.408
0.51417,61.213
0.49267,60.821
0.4741,60.43
0.45455,59.844
0.43597,59.452
0.41838,59.061
0.40371,58.475
0.39003,58.083
0.37928,57.692
0.3695,57.106
0.3607,56.715
0.35386,56.323
0.348,55.737
0.34409,55.346
0.34115,54.954
0.33822,54.759
0.33529,54.368
0.33236,54.172
0.32942,54.172
0.32649,54.368
0.32454,55.15
0.3216,56.323
0.31867,58.67
0.31574,62.582
0.31183,67.666
0.3089,73.533
0.30694,79.791
0.30499,85.658
0.30205,90.939
0.29912,95.828
0.29717,99.935
0.29423,103.26
0.2913,105.61
0.28837,106.98
0.28543,107.37
0.2825,107.17
0.27957,106.19
0.27566,104.82
0.27273,102.87
0.27077,100.52
0.26784,97.784
0.26491,94.85
0.261,91.525
0.25806,88.005
0.25415,84.485
0.25122,81.356
0.24731,78.227
0.24438,75.685
0.24047,73.533
0.23754,71.578
0.23656,70.209
0.23656,68.84
0.23851,67.862
0.24438,67.275
0.25611,66.688
0.2737,66.297
0.3001,65.906
0.33431,65.906
0.37439,65.711
0.41838,65.515
0.46432,65.515
0.50929,65.515
0.55132,65.515
0.58456,65.319
0.60997,65.319
0.63441,65.124
0.65494,64.928
0.6696,64.733
0.67937,64.537
0.68328,64.342
0.68328,63.95
0.67742,63.559
0.66862,63.168
0.65494,62.777
0.63832,62.386
0.62072,62.19
0.60215,61.799
0.58065,61.604
0.55718,61.213
0.53372,60.821
0.51026,60.43
0.4868,60.039
0.4653,59.648
0.44575,59.257
0.42717,58.866
0.41153,58.279
0.39785,57.888
0.38612,57.497
0.37732,57.106
0.3695,56.519
0.36266,56.128
0.35679,55.737
0.35191,55.346
0.34702,54.954
0.34311,54.563
0.3392,54.172
0.33627,53.977
0.33333,53.977
0.3304,54.172
0.32747,54.563
0.32551,55.737
0.32454,57.692
0.3216,61.213
0.31965,66.102
0.31672,72.164
0.31378,78.227
0.31085,84.289
0.30792,89.961
0.30596,95.046
0.30303,99.348
0.3001,102.87
0.29814,105.61
0.29521,107.17
0.29326,108.15
0.2913,108.15
0.28935,107.56
0.28641,106.19
0.28348,104.63
0.27957,102.48
0.27664,99.935
0.27273,97.197
0.26882,93.872
0.26588,90.548
0.26197,87.027
0.25904,83.507
0.25611,80.378
0.25415,77.445
0.2522,75.098
0.24927,72.947
0.24633,71.382
0.24438,70.013
0.24536,69.035
0.24927,68.057
0.26002,67.471
0.27664,67.08
0.30205,66.688
0.33627,66.297
0.37634,66.297
0.41447,66.102
0.45259,65.906
0.49462,65.906
0.53763,65.906
0.57869,65.906
0.61388,65.906
0.64321,65.711
0.66667,65.515
0.68328,65.319
0.69501,65.124
0.70088,64.733
0.70186,64.537
0.69795,64.146
0.69013,63.755
0.67937,63.364
0.66471,63.168
0.64712,62.777
0.62659,62.386
0.60411,62.19
0.58065,61.799
0.55523,61.408
0.53079,61.213
0.50733,60.821
0.48485,60.235
0.46432,59.844
0.45259,59.452
0.4477,59.061
0.43793,58.475
0.4262,58.083
0.41544,57.692
0.40567,57.301
0.39687,56.715
0.39003,56.323
0.38319,55.932
0.3783,55.541
0.37341,55.15
0.3695,54.954
0.36657,54.563
0.36364,54.563
0.36168,54.563
0.35875,54.954
0.35582,55.932
0.35288,57.888
0.34995,61.213
0.34702,66.102
0.34409,72.164
0.34115,78.422
0.33822,84.876
0.33431,90.743
0.33138,96.219
0.32942,100.91
0.32747,104.63
0.32551,107.56
0.32258,109.71
0.31965,110.69
0.31672,110.89
0.31378,110.3
0.30987,109.32
0.30694,107.76
0.30303,105.8
0.3001,103.46
0.29619,100.91
0.29423,97.784
0.2913,94.459
0.28837,90.743
0.28543,87.223
0.28152,83.703
0.27761,80.574
0.27468,77.836
0.27077,75.489
0.26784,73.533
0.26588,71.969
0.26588,70.6
0.27077,69.622
0.28152,68.84
0.29619,68.253
0.31672,67.862
0.34702,67.666
0.38612,67.471
0.43109,67.275
0.47996,67.275
0.52981,67.275
0.57771,67.08
0.62072,67.08
0.65982,67.08
0.6911,66.884
0.71652,66.884
0.73314,66.688
0.74291,66.297
0.74976,66.102
0.75269,65.711
0.75171,65.515
0.74585,65.124
0.73509,64.733
0.72141,64.342
0.70381,63.95
0.68231,63.559
0.65885,63.168
0.63441,62.777
0.60802,62.582
0.58456,62.19
0.56207,61.799
0.53959,61.408
0.51613,60.821
0.49462,60.43
0.47507,60.039
0.4565,59.648
0.44086,59.061
0.42717,58.67
0.41642,58.279
0.40665,57.692
0.39785,57.301
0.39198,56.91
0.3871,56.519
0.38221,55.932
0.3783,55.541
0.37439,55.346
0.37048,55.15
0.36755,55.346
0.36364,55.541
0.3607,56.323
0.35777,58.279
0.35386,61.408
0.35093,66.297
0.348,72.164
0.34506,78.814
0.34311,85.463
0.34018,91.721
0.33724,97.393
0.33431,102.28
0.3304,106.39
0.32747,109.71
0.32356,111.86
0.32063,113.04
0.31769,113.43
0.31476,113.23
0.31085,112.26
0.30792,110.69
0.30596,108.93
0.30303,106.78
0.3001,104.43
0.29619,101.5
0.29228,98.37
0.28837,95.046
0.28543,91.33
0.28152,87.81
0.27761,84.289
0.2737,81.356
0.26979,78.618
0.26784,76.467
0.26588,74.707
0.26588,73.338
0.26882,72.164
0.27664,71.186
0.2913,70.6
0.31476,70.209
0.34702,70.013
0.3871,69.818
0.43304,69.622
0.48289,69.622
0.53372,69.622
0.58358,69.622
0.62268,69.622
0.65494,69.622
0.68524,69.426
0.71261,69.426
0.73412,69.231
0.74976,69.035
0.75953,68.84
0.76442,68.449
0.76442,68.057
0.75953,67.666
0.75073,67.471
0.73803,67.08
0.72336,66.688
0.70674,66.297
0.68622,65.906
0.66276,65.515
0.63832,65.124
0.61193,64.733
0.58651,64.342
0.56109,63.95
0.53666,63.559
0.51417,62.973
0.49462,62.582
0.47605,62.19
0.46041,61.604
0.44868,61.213
0.43891,60.821
0.42913,60.43
0.42131,60.039
0.41447,59.648
0.4086,59.061
0.40371,58.67
0.3998,58.279
0.39589,58.083
0.39296,57.888
0.39003,57.692
0.38807,58.083
0.38612,58.67
0.38416,60.43
0.38221,63.364
0.37928,68.253
0.37732,74.316
0.37439,81.16
0.37146,88.005
0.36852,94.655
0.36559,100.72
0.36266,106.19
0.35973,110.5
0.35679,113.82
0.35386,116.17
0.35191,117.54
0.34995,117.93
0.348,117.54
0.34506,116.56
0.34213,115.19
0.3392,113.62
0.33627,111.67
0.33236,109.32
0.32942,106.58
0.32649,103.65
0.32258,100.33
0.31965,96.61
0.31769,93.09
0.31574,89.374
0.31378,85.854
0.31085,82.725
0.30792,80.183
0.30499,78.227
0.30401,76.467
0.30694,75.098
0.31476,73.924
0.3304,73.142
0.35386,72.555
0.38612,72.164
0.4262,72.164
0.4653,71.969
0.5044,71.773
0.55034,71.773
0.59726,71.773
0.64223,71.578
0.68231,71.382
0.71554,71.382
0.74389,70.991
0.76442,70.795
0.78006,70.404
0.78983,70.013
0.79374,69.426
0.79374,69.035
0.78886,68.644
0.78104,68.057
0.77028,67.666
0.75562,67.08
0.739,66.688
0.71848,66.297
0.69501,65.906
0.67058,65.319
0.64516,64.928
0.61877,64.537
0.59238,64.146
0.56794,63.755
0.54643,63.168
0.52884,62.777
0.51026,62.386
0.49267,61.799
0.47801,61.408
0.46432,60.821
0.45259,60.43
0.44282,59.844
0.435,59.452
0.42717,59.061
0.42131,58.475
0.41544,58.279
0.41056,57.692
0.40665,57.497
0.40176,57.106
0.39785,57.106
0.39296,57.301
0.38807,58.083
0.38319,59.844
0.37243,63.168
0.35875,68.253
0.34995,74.511
0.34311,81.552
0.33724,88.592
0.33236,95.241
0.32747,101.3
0.32454,106.58
0.32063,110.89
0.31574,114.02
0.31183,115.97
0.30694,117.14
0.30303,117.34
0.29912,116.75
0.29521,115.58
0.29032,114.02
0.28641,112.26
0.2825,110.1
0.27957,107.56
0.27664,104.63
0.27273,101.3
0.26979,97.979
0.26588,94.263
0.26197,90.548
0.25806,86.832
0.25415,83.703
0.25024,80.769
0.24731,78.227
0.24438,76.467
0.2434,74.707
0.24633,73.533
0.25318,72.555
0.26393,71.773
0.28348,71.186
0.31183,70.795
0.34702,70.6
0.38905,70.404
0.435,70.404
0.48289,70.209
0.52786,70.209
0.56989,70.013
0.60606,69.818
0.63636,69.818
0.65787,69.622
0.67155,69.426
0.68328,69.035
0.6911,68.84
0.69404,68.449
0.69404,68.057
0.69013,67.471
0.68231,67.08
0.67058,66.688
0.65591,66.102
0.63832,65.711
0.61779,65.319
0.59531,64.928
0.5738,64.537
0.55327,64.146
0.53079,63.755
0.50733,63.364
0.48485,62.973
0.46334,62.582
0.44379,62.19
0.4262,61.604
0.41056,61.213
0.39687,60.626
0.38514,60.235
0.37537,59.648
0.36755,59.257
0.36168,58.67
0.35679,58.279
0.35191,57.888
0.34702,57.497
0.34311,57.106
0.3392,56.715
0.33627,56.519
0.33236,56.323
0.32942,56.519
0.32649,56.91
0.32258,58.083
0.32063,60.235
0.31867,64.146
0.31574,69.426
0.31183,75.685
0.3089,82.529
0.30499,88.983
0.30205,95.241
0.29814,100.72
0.29521,105.61
0.2913,109.32
0.28837,112.06
0.28446,113.82
0.28152,114.8
0.27957,114.6
0.27761,113.82
0.27468,112.65
0.27175,110.89
0.26784,108.74
0.26491,106.39
0.261,103.46
0.25709,100.33
0.25415,96.806
0.25024,93.09
0.24731,89.374
0.2434,85.658
0.24145,82.529
0.24047,79.596
0.23754,77.054
0.23558,75.098
0.23363,73.533
0.23363,72.164
0.23754,71.186
0.24633,70.404
0.26295,70.013
0.28739,69.622
0.31867,69.231
0.35777,69.035
0.40176,68.84
0.44184,68.84
0.47996,68.84
0.52004,68.644
0.55914,68.644
0.59433,68.449
0.62463,68.449
0.64809,68.253
0.66569,68.057
0.67742,67.666
0.68426,67.471
0.68524,67.08
0.68328,66.688
0.67644,66.297
0.66764,65.906
0.65494,65.515
0.63832,65.124
0.61975,64.733
0.59824,64.342
0.57478,63.95
0.55034,63.559
0.5259,63.168
0.50147,62.777
0.47898,62.386
0.4565,61.995
0.43695,61.408
0.42131,61.017
0.40762,60.626
0.39492,60.039
0.38319,59.648
0.37341,59.061
0.36461,58.67
0.35679,58.279
0.34995,57.888
0.34506,57.301
0.34018,56.91
0.33627,56.519
0.33236,56.128
0.32942,55.932
0.32747,55.932
0.32551,55.932
0.32258,56.128
0.32063,56.91
0.31769,58.475
0.31476,61.213
0.31183,65.711
0.3089,71.186
0.30499,77.64
0.30205,84.094
0.29912,90.157
0.29521,95.828
0.29326,100.72
0.2913,105.02
0.28935,108.34
0.28641,110.5
0.28348,111.86
0.28055,112.06
0.27761,111.86
0.27468,110.69
0.27175,109.32
0.26882,107.17
0.26588,104.82
0.26197,102.28
0.26002,99.153
0.25806,95.632
0.25513,92.112
0.2522,88.396
0.24927,84.681
0.24536,81.356
0.24242,78.422
0.23949,76.076
0.23656,73.924
0.2346,72.36
0.23363,70.991
0.23656,70.209
0.2434,69.426
0.25415,68.84
0.26979,68.449
0.29423,68.057
0.32649,67.862
0.36559,67.862
0.40958,67.666
0.45455,67.666
0.49951,67.666
0.54154,67.471
0.57869,67.471
0.61095,67.471
0.63636,67.275
0.65298,67.08
0.66471,66.688
0.67253,66.493
0.67644,66.102
0.67644,65.906
0.67253,65.515
0.66471,64.928
0.65298,64.537
0.63734,64.342
0.61877,63.95
0.59726,63.364
0.57478,62.973
0.55034,62.777
0.52884,62.386
0.50831,61.995
0.4868,61.604
0.4653,61.213
0.44575,60.821
0.42717,60.43
0.41056,59.844
0.39589,59.648
0.38319,59.061
0.37243,58.67
0.36364,58.083
0.35679,57.692
0.35093,57.301
0.34702,56.91
0.34213,56.519
0.3392,56.128
0.33529,55.737
0.33236,55.346
0.32942,55.15
0.32649,55.15
0.32356,55.346
0.32063,55.737
0.31769,57.106
0.31476,59.844
0.31183,63.95
0.30987,69.426
0.30792,75.685
0.30499,82.334
0.30303,88.592
0.3001,94.459
0.29717,99.739
0.29423,104.24
0.2913,107.95
0.28837,110.5
0.28543,112.26
0.2825,113.04
0.27957,112.84
0.27761,112.06
0.28152,110.89
0.28641,109.13
0.28739,106.98
0.28641,104.43
0.28348,101.5
0.28055,98.175
0.27761,94.655
0.2737,90.939
0.27077,87.223
0.26784,83.703
0.26393,80.574
0.261,77.836
0.25904,75.489
0.25709,73.533
0.25611,71.969
0.25611,70.795
0.261,69.818
0.27077,69.231
0.28935,68.644
0.31574,68.253
0.34995,68.057
0.39198,67.862
0.43988,67.862
0.48974,67.666
0.53275,67.666
0.57087,67.666
0.60997,67.666
0.64614,67.471
0.67742,67.471
0.70186,67.275
0.72141,67.08
0.73412,66.688
0.74096,66.493
0.74291,66.102
0.73998,65.711
0.73314,65.124
0.72141,64.733
0.70772,64.342
0.69208,63.95
0.67155,63.559
0.64907,63.168
0.62366,62.973
0.59726,62.582
0.57087,62.19
0.54448,61.799
0.51906,61.408
0.4956,61.017
0.47507,60.626
0.45552,60.039
0.44086,59.648
0.42815,59.257
0.41642,58.866
0.40567,58.279
0.39589,57.888
0.3871,57.497
0.38025,57.106
0.37439,56.715
0.3695,56.128
0.36559,55.737
0.36168,55.346
0.35777,55.15
0.35582,54.954
0.35386,54.954
0.35191,55.346
0.34897,56.128
0.34604,57.888
0.34311,61.017
0.3392,65.711
0.33627,71.773
0.33236,78.227
0.32942,84.876
0.32551,91.134
0.3216,97.001
0.31867,102.09
0.31574,106.39
0.31378,109.91
0.31183,112.06
0.3089,113.43
0.30596,114.02
0.30205,113.62
0.29912,112.65
0.29619,111.08
0.29228,109.32
0.28935,106.98
0.28543,104.43
0.2825,101.5
0.27957,98.175
0.27761,94.459
0.27468,90.743
0.27175,87.027
0.26882,83.507
0.26588,80.378
0.26197,77.64
0.25904,75.489
0.25611,73.533
0.25513,72.164
0.25709,70.991
0.26491,70.013
0.27957,69.426
0.29717,68.84
0.3216,68.644
0.35582,68.253
0.39785,68.057
0.44575,68.057
0.49658,67.862
0.54643,67.862
0.59335,67.862
0.63539,67.666
0.67155,67.666
0.70088,67.471
0.72336,67.275
0.73705,67.08
0.74487,66.884
0.74976,66.493
0.75073,66.102
0.7478,65.711
0.73998,65.319
0.72825,64.928
0.71359,64.537
0.69404,64.146
0.67253,63.755
0.64809,63.364
0.62268,62.973
0.59531,62.777
0.57185,62.386
0.54936,62.19
0.5259,61.799
0.50342,61.408
0.48192,61.017
0.46237,60.43
0.44575,60.039
0.43011,59.648
0.4174,59.257
0.40665,58.866
0.39687,58.279
0.38905,57.888
0.38221,57.497
0.3783,57.106
0.37341,56.91
0.3695,56.519
0.36559,56.128
0.36168,55.932
0.35875,55.737
0.35484,55.932
0.35191,56.323
0.34897,57.497
0.34604,59.844
0.34311,63.755
0.3392,69.035
0.33724,75.489
0.33431,82.334
0.33236,88.983
0.32845,95.046
0.32551,100.72
0.32258,105.61
0.31965,109.52
0.31574,112.45
0.31281,114.41
0.30987,115.38
0.30694,115.58
0.30401,114.99
0.30205,113.82
0.3001,112.45
0.29814,110.5
0.29521,108.15
0.29228,105.61
0.28935,102.67
0.28543,99.544
0.2825,96.024
0.27957,92.308
0.27664,88.592
0.2737,85.072
0.27077,81.943
0.26882,79.205
0.26686,76.858
0.26588,75.098
0.26686,73.533
0.27077,72.555
0.27859,71.773
0.29423,70.991
0.31867,70.6
0.35191,70.404
0.39296,70.209
0.43891,70.209
0.48974,70.209
0.53959,70.209
0.5826,70.209
0.61877,70.209
0.65494,70.013
0.68817,70.013
0.71554,69.818
0.73803,69.622
0.75367,69.231
0.76344,69.035
0.76833,68.644
0.76833,68.057
0.76442,67.666
0.75562,67.275
0.74291,66.884
0.72923,66.493
0.71261,65.906
0.69306,65.711
0.67058,65.319
0.64614,64.928
0.61975,64.537
0.59433,64.146
0.56891,63.755
0.54448,63.364
0.52199,62.973
0.50147,62.386
0.48289,61.995
0.46823,61.604
0.4565,61.213
0.44575,60.626
0.43695,60.235
0.42815,59.844
0.42131,59.452
0.41544,59.061
0.41056,58.67
0.40665,58.279
0.40274,57.888
0.3998,57.497
0.39687,57.301
0.39394,57.106
0.39101,57.106
0.38905,57.497
0.38612,58.866
0.38319,61.408
0.38025,65.906
0.37634,71.773
0.37341,78.422
0.3695,85.463
0.36559,92.112
0.36266,98.175
0.35875,103.85
0.35484,108.54
0.35191,112.26
0.34995,114.8
0.34702,116.36
0.34409,117.14
0.34115,116.95
0.33822,116.17
0.33431,114.8
0.33138,113.04
0.32845,111.08
0.32454,108.74
0.3216,105.8
0.31769,102.87
0.31476,99.348
0.31281,95.828
0.31085,91.917
0.30792,88.201
0.30499,84.681
0.30205,81.552
0.29912,78.814
0.29619,76.662
0.29326,74.707
0.29228,73.338
0.29521,72.164
0.30499,71.382
0.32258,70.795
0.34409,70.404
0.37048,70.209
0.40567,70.013
0.4477,70.013
0.49365,69.818
0.53959,69.818
0.58456,69.622
0.62463,69.622
0.65885,69.426
0.68719,69.231
0.70968,69.035
0.72532,68.644
0.73607,68.253
0.74096,67.862
0.74096,67.471
0.73803,66.884
0.73118,66.493
0.72141,65.906
0.7087,65.515
0.69208,64.928
0.67253,64.537
0.65103,64.146
0.62757,63.559
0.60215,63.168
0.57674,62.777
0.55327,62.386
0.53275,61.995
0.51026,61.604
0.48876,61.408
0.46823,60.821
0.45064,60.43
0.43402,59.844
0.42033,59.452
0.4086,59.061
0.39883,58.475
0.39003,58.083
0.38319,57.692
0.37732,57.106
0.37341,56.715
0.3695,56.323
0.36461,55.932
0.3607,55.541
0.35679,55.346
0.35386,55.15
0.34995,55.15
0.34604,55.346
0.34213,56.323
0.33822,58.475
0.33431,61.995
0.32942,67.275
0.32649,73.729
0.32356,80.574
0.31965,87.419
0.31574,93.677
0.31085,99.544
0.30694,104.63
0.30303,108.74
0.29912,111.67
0.29619,113.43
0.29228,114.41
0.28935,114.6
0.28543,113.82
0.2825,112.65
0.28055,110.89
0.27761,108.93
0.27468,106.58
0.27077,103.85
0.26784,100.72
0.26393,97.197
0.261,93.677
0.25709,89.765
0.25415,86.05
0.25122,82.725
0.24731,79.596
0.24438,76.858
0.24242,74.707
0.24145,72.947
0.24047,71.578
0.24242,70.404
0.24829,69.426
0.261,68.84
0.28152,68.449
0.31085,68.057
0.348,67.862
0.39101,67.862
0.43793,67.666
0.4868,67.666
0.52786,67.471
0.56305,67.471
0.59824,67.471
0.62952,67.275
0.65689,67.08
0.67742,66.884
0.69208,66.688
0.70186,66.297
0.70577,65.906
0.70577,65.515
0.70088,64.928
0.69208,64.537
0.67937,64.146
0.66569,63.755
0.64907,63.364
0.62952,62.973
0.60704,62.582
0.58358,62.19
0.55914,61.799
0.53372,61.408
0.50929,61.017
0.48583,60.626
0.46432,60.235
0.44379,59.844
0.4262,59.257
0.41251,58.866
0.40078,58.279
0.39003,57.888
0.38025,57.301
0.37146,56.91
0.36461,56.519
0.35875,56.128
0.35386,55.541
0.34897,55.346
0.34506,54.954
0.34213,54.563
0.3392,54.172
0.33529,53.977
0.33333,53.977
0.33138,53.977
0.32942,54.563
0.32649,55.737
0.32258,58.083
0.31965,61.604
0.31574,66.884
0.31183,72.751
0.30792,79.205
0.30499,85.463
0.30108,91.33
0.29717,96.415
0.29521,100.91
0.29326,104.24
0.29032,106.98
0.28739,108.54
0.28446,109.13
0.28152,108.93
0.27859,108.15
0.27468,106.78
0.27175,104.82
0.26882,102.67
0.26491,99.935
0.26197,97.001
0.25806,93.677
0.25611,90.157
0.25415,86.441
0.25122,82.725
0.24927,79.596
0.24633,76.662
0.24242,74.12
0.23949,72.164
0.23754,70.404
0.23558,69.035
0.23558,68.057
0.23851,67.275
0.24731,66.688
0.25904,66.297
0.27664,65.906
0.30303,65.711
0.33724,65.515
0.37732,65.515
0.42229,65.515
0.46823,65.319
0.5132,65.319
0.55425,65.319
0.5914,65.124
0.6217,65.124
0.64614,64.928
0.66373,64.733
0.67449,64.537
0.67937,64.146
0.68231,63.755
0.68035,63.364
0.67449,62.973
0.66471,62.582
0.65103,62.19
0.63441,61.799
0.61486,61.408
0.59335,61.213
0.56989,60.821
0.54545,60.43
0.52395,60.039
0.5044,59.844
0.48387,59.452
0.46334,59.061
0.44379,58.67
0.4262,58.279
0.41153,57.692
0.39785,57.301
0.38612,56.91
0.37634,56.323
0.36755,55.932
0.3607,55.346
0.35484,54.954
0.34995,54.563
0.34702,54.172
0.34409,53.781
0.34115,53.585
0.33822,53.194
0.33529,52.999
0.33333,52.999
0.3304,53.194
0.32845,53.585
0.32551,54.563
0.32258,56.715
0.31965,60.235
0.31769,65.319
0.31574,71.186
0.31281,77.445
0.30987,83.703
0.30694,89.374
0.30401,94.655
0.30108,98.957
0.29912,102.67
0.29619,105.41
0.29326,106.98
0.29032,107.76
0.28837,107.76
0.28543,107.17
0.28348,105.8
0.28152,104.04
0.27957,101.69
0.27664,99.153
0.27273,96.219
0.26979,92.894
0.26588,89.374
0.26295,85.658
0.26002,82.138
0.25709,78.814
0.25415,76.076
0.25024,73.533
0.24829,71.578
0.24731,70.013
0.24536,68.644
0.24536,67.666
0.24731,66.884
0.25318,66.297
0.26491,65.906
0.28543,65.515
0.31281,65.319
0.348,65.124
0.38905,64.928
0.43402,64.928
0.4741,64.928
0.51124,64.928
0.55132,64.928
0.58944,64.733
0.62268,64.537
0.65005,64.537
0.67058,64.342
0.68524,63.95
0.69404,63.755
0.69795,63.364
0.69697,62.973
0.6911,62.582
0.68231,62.19
0.67058,61.799
0.65591,61.408
0.63832,61.213
0.61779,60.821
0.59531,60.43
0.57283,60.039
0.54936,59.844
0.5259,59.452
0.50342,59.061
0.48289,58.67
0.46432,58.279
0.4477,57.888
0.435,57.497
0.42326,56.91
0.41349,56.519
0.40371,56.128
0.39492,55.737
0.3871,55.346
0.38123,54.954
0.37537,54.563
0.37146,54.172
0.36755,53.781
0.36364,53.39
0.3607,53.194
0.35777,52.999
0.35582,52.803
0.35386,53.194
0.35191,53.781
0.34897,55.15
0.34702,57.692
0.34409,61.799
0.34018,67.275
0.33724,73.533
0.33431,79.791
0.33138,85.854
0.32942,91.525
0.32649,96.61
0.32356,100.91
0.32258,104.24
0.31965,106.58
0.31769,108.15
0.31476,108.74
0.31183,108.54
0.3089,107.56
0.30596,106.19
0.30303,104.24
0.3001,102.09
0.29717,99.544
0.29326,96.61
0.29032,93.286
0.28837,89.57
0.28641,86.05
0.28446,82.529
0.28152,79.4
0.27859,76.467
0.27566,74.12
0.27273,72.164
0.26979,70.404
0.26784,69.035
0.26882,67.862
0.27175,67.08
0.28055,66.493
0.29326,66.102
0.31085,65.906
0.33724,65.515
0.37146,65.319
0.41153,65.319
0.45552,65.319
0.50147,65.319
0.54545,65.124
0.58651,65.124
0.62268,65.124
0.652,64.928
0.67644,64.733
0.69404,64.537
0.70479,64.342
0.70968,63.95
0.71163,63.559
0.70968,63.168
0.70381,62.973
0.69501,62.582
0.68133,62.19
0.66569,61.799
0.64614,61.408
0.62463,61.017
0.60215,60.626
0.57869,60.235
0.55718,59.844
0.53763,59.648
0.51711,59.257
0.49658,58.866
0.47801,58.279
0.46041,58.083
0.44477,57.497
0.43109,57.106
0.41935,56.715
0.4086,56.128
0.3998,55.737
0.39296,55.346
0.38612,54.954
0.38123,54.563
0.3783,54.172
0.37439,53.781
0.37048,53.39
0.36755,53.194
0.36461,52.999
0.36168,52.999
0.35875,53.194
0.35582,53.781
0.35288,55.541
0.34995,58.279
0.34702,62.777
0.34409,68.644
0.34213,75.098
0.3392,81.552
0.33724,87.81
0.33431,93.481
0.33138,98.566
0.32845,102.87
0.32551,106.19
0.32258,108.54
0.31965,109.91
0.31672,110.5
0.31378,110.3
0.31085,109.32
0.30792,107.76
0.30694,105.8
0.30401,103.65
0.30108,101.11
0.29814,98.175
0.29521,95.046
0.2913,91.525
0.28837,87.81
0.28543,84.094
0.2825,80.769
0.27957,77.836
0.27664,75.098
0.27468,73.142
0.2737,71.382
0.27273,70.013
0.27273,69.035
0.27566,68.057
0.28446,67.471
0.29912,67.08
0.3216,66.884
0.35288,66.688
0.39003,66.688
0.43402,66.688
0.47996,66.688
0.5259,66.688
0.565,66.688
0.59824,66.688
0.6305,66.688
0.65982,66.688
0.68426,66.493
0.70283,66.297
0.71652,66.102
0.72434,65.711
0.7263,65.515
0.72532,65.124
0.71457,64.733
0.70283,64.342
0.69404,63.95
0.68133,63.559
0.66373,63.168
0.64418,62.777
0.6217,62.386
0.59726,61.995
0.5738,61.604
0.54936,61.408
0.5259,61.017
0.5044,60.626
0.48485,60.039
0.46628,59.648
0.45064,59.257
0.43891,58.866
0.42913,58.475
0.41935,58.083
0.41153,57.692
0.40371,57.301
0.39785,56.91
0.39296,56.519
0.38807,56.128
0.38514,55.737
0.38221,55.346
0.37928,55.15
0.37634,55.15
0.37439,55.15
0.37341,55.737
0.37146,56.91
0.3695,59.257
0.36657,63.168
0.36461,68.644
0.36168,75.098
0.35875,81.747
0.35582,88.201
0.35288,94.068
0.34995,99.544
0.34702,104.04
0.34506,107.76
0.34311,110.3
0.34115,111.86
0.3392,112.84
0.33724,112.65
0.33431,112.06
0.33236,110.69
0.32942,109.13
0.32649,107.17
0.32454,104.82
0.3216,102.09
0.31965,99.153
0.31672,95.828
0.31476,92.308
0.31378,88.788
0.31183,85.267
0.30987,82.138
0.30792,79.4
0.30596,76.858
0.30401,75.098
0.30205,73.533
0.30205,72.164
0.30499,71.382
0.31281,70.6
0.32747,70.209
0.34506,69.818
0.36755,69.622
0.39883,69.426
0.43793,69.231
0.48192,69.231
0.52688,69.426
0.57185,69.231
0.61388,69.231
0.65103,69.035
0.68231,69.035
0.70772,68.644
0.72727,68.449
0.74096,68.057
0.74878,67.666
0.75073,67.275
0.74976,66.688
0.74682,66.102
0.739,65.711
0.72825,65.124
0.71457,64.733
0.69795,64.146
0.67546,63.755
0.65005,63.364
0.62561,62.973
0.60117,62.582
0.57967,62.19
0.56012,61.799
0.53959,61.408
0.52004,61.017
0.50147,60.43
0.48485,60.039
0.47019,59.648
0.45748,59.061
0.44575,58.67
0.43695,58.083
0.42913,57.692
0.42229,57.106
0.41642,56.715
0.41251,56.323
0.4086,55.737
0.40567,55.346
0.40176,55.15
0.39785,54.954
0.39492,54.954
0.39101,55.15
0.38807,55.932
0.38416,57.692
0.38025,61.213
0.37634,66.102
0.37243,72.555
0.3695,79.4
0.36657,86.245
0.36266,92.699
0.35875,98.566
0.35484,103.65
0.35093,107.95
0.34702,110.89
0.34311,113.04
0.3392,114.02
0.33529,114.21
0.33138,113.62
0.32747,112.45
0.32356,110.89
0.31965,108.74
0.31574,106.58
0.31183,103.85
0.3089,100.72
0.30499,97.393
0.3001,93.872
0.29619,90.157
0.29228,86.441
0.28837,82.921
0.28348,79.791
0.27957,77.249
0.27566,75.098
0.27273,73.142
0.27077,71.773
0.27077,70.6
0.2737,69.818
0.28152,69.231
0.29717,68.84
0.32063,68.644
0.35288,68.449
0.39198,68.253
0.43597,68.057
0.48192,68.057
0.52786,68.057
0.57087,68.057
0.60508,67.862
0.63245,67.666
0.65689,67.471
0.6784,67.275
0.69501,67.08
0.70577,66.688
0.71163,66.297
0.71261,65.906
0.70968,65.515
0.70283,65.124
0.6911,64.537
0.67742,64.146
0.66178,63.559
0.64418,63.168
0.62366,62.777
0.6002,62.386
0.57674,61.995
0.55132,61.604
0.52688,61.213
0.50342,60.821
0.48192,60.43
0.46139,59.844
0.44282,59.452
0.42717,59.061
0.41349,58.475
0.40274,58.083
0.39394,57.692
0.38612,57.106
0.37928,56.715
0.37243,56.323
0.36755,55.737
0.36266,55.346
0.35875,55.15
0.35484,54.759
0.35191,54.368
0.348,54.172
0.34506,54.172
0.34311,54.172
0.34115,54.759
0.33822,56.128
0.33529,58.475
0.33236,62.386
0.32845,67.666
0.32454,73.924
0.32063,80.769
0.31769,87.027
0.31378,92.894
0.30987,98.175
0.30694,102.67
0.30303,106.19
0.30108,108.74
0.29912,110.1
0.29619,110.69
0.29326,110.3
0.29032,109.52
0.28739,107.95
0.28446,106
0.28055,103.65
0.27761,100.91
0.2737,97.784
0.26979,94.263
0.26686,90.743
0.26393,87.027
0.26295,83.507
0.26002,80.183
0.25806,77.445
0.25513,74.902
0.2522,72.751
0.24927,71.186
0.24731,69.818
0.24633,68.84
0.24927,68.057
0.25611,67.471
0.26882,66.884
0.29032,66.688
0.31378,66.493
0.34213,66.297
0.37928,66.102
0.42229,66.102
0.46823,65.906
0.5132,65.906
0.55523,65.906
0.59238,65.906
0.62366,65.711
0.652,65.515
0.67253,65.319
0.68328,65.124
0.68915,64.733
0.69013,64.537
0.68817,64.146
0.68328,63.559
0.67351,63.168
0.6608,62.777
0.64418,62.386
0.62561,61.995
0.60411,61.604
0.58065,61.408
0.55718,61.017
0.53372,60.626
0.50929,60.235
0.48485,59.844
0.46432,59.452
0.45064,59.061
0.435,58.475
0.4174,58.083
0.40274,57.692
0.39296,57.106
0.38416,56.715
0.37537,56.323
0.36852,55.932
0.36168,55.346
0.35679,54.954
0.35288,54.563
0.34995,54.172
0.34702,53.781
0.34409,53.585
0.34018,53.585
0.33724,53.39
0.33529,53.585
0.33333,53.781
0.3304,54.759
0.32747,56.519
0.32551,59.844
0.32258,64.342
0.31965,69.818
0.31769,76.076
0.31574,82.138
0.31281,87.81
0.30987,93.09
0.30694,97.588
0.30401,101.3
0.3001,104.04
0.29619,106
0.29423,106.98
0.2913,107.17
0.28739,106.58
0.28446,105.22
0.28348,103.65
0.28152,101.3
0.27859,98.761
0.27566,95.632
0.27273,92.308
0.26979,88.788
0.26588,85.072
0.26197,81.552
0.25806,78.422
0.25513,75.489
0.2522,73.142
0.25024,70.991
0.25024,69.426
0.24927,68.253
0.24927,67.275
0.25318,66.493
0.26197,65.906
0.27077,65.515
0.29032,65.319
0.32551,65.124
0.36461,64.928
0.40762,64.733
0.45259,64.733
0.49658,64.733
0.53372,64.733
0.56403,64.537
0.59531,64.537
0.62268,64.537
0.64516,64.342
0.66178,64.146
0.67351,63.95
0.67937,63.559
0.68035,63.168
0.67644,62.777
0.66862,62.582
0.65689,62.19
0.64223,61.799
0.62659,61.408
0.60704,61.017
0.58553,60.821
0.56305,60.43
0.53959,60.039
0.51613,59.844
0.49365,59.452
0.47214,59.061
0.45259,58.67
0.435,58.279
0.41935,57.888
0.40665,57.497
0.39589,57.106
0.38807,56.519
0.38319,56.128
0.38025,55.737
0.37634,55.346
0.37146,54.954
0.36755,54.368
0.36364,53.977
0.35973,53.781
0.35679,53.39
0.35386,52.999
0.35191,52.803
0.34995,52.803
0.348,52.999
0.34604,53.39
0.34311,54.368
0.34018,56.323
0.33724,59.648
0.33431,64.537
0.33138,70.209
0.32845,76.467
0.32551,82.529
0.32258,88.201
0.31965,93.286
0.31672,97.784
0.31476,101.3
0.31281,104.04
0.31085,105.8
0.3089,106.58
0.30596,106.58
0.30303,106
0.3001,104.63
0.29717,102.87
0.29423,100.72
0.29032,97.979
0.28739,95.046
0.28446,91.917
0.28152,88.396
0.28055,84.876
0.27761,81.356
0.27468,78.227
0.27175,75.489
0.26882,73.142
0.26588,71.186
0.26295,69.426
0.26197,68.253
0.26295,67.275
0.26882,66.493
0.28055,65.906
0.29912,65.515
0.32063,65.124
0.348,64.928
0.38416,64.733
0.4262,64.733
0.47312,64.537
0.52004,64.537
0.565,64.537
0.60606,64.537
0.64125,64.342
0.6696,64.342
0.69306,64.146
0.7087,63.95
0.71848,63.755
0.72141,63.364
0.72239,62.973
0.71848,62.777
0.70968,62.386
0.69795,61.995
0.68133,61.604
0.66276,61.213
0.64125,60.821
0.61681,60.626
0.59238,60.235
0.56794,59.844
0.5435,59.648
0.52199,59.257
0.50342,58.866
0.48485,58.475
0.46725,58.083
0.45064,57.692
0.435,57.301
0.42229,56.91
0.41153,56.323
0.40176,55.932
0.39296,55.541
0.38612,55.15
0.38025,54.759
0.37634,54.368
0.37243,53.977
0.3695,53.585
0.36657,53.194
0.36364,52.999
0.3607,52.803
0.35777,52.803
0.35386,52.999
0.35093,53.39
0.348,54.759
0.34506,57.106
0.34115,61.017
0.33822,66.297
0.33529,72.36
0.33333,78.618
0.3304,84.876
0.32747,90.548
0.32454,95.632
0.3216,99.935
0.31965,103.46
0.31672,106
0.31378,107.76
0.31085,108.54
0.30792,108.34
0.30499,107.56
0.30205,106.19
0.3001,104.43
0.29814,102.28
0.29521,99.739
0.2913,96.806
0.28837,93.481
0.28543,89.961
0.2825,86.441
0.27957,82.725
0.27664,79.596
0.2737,76.662
0.27077,74.12
0.26784,71.969
0.26588,70.209
0.26588,68.84
0.26784,67.666
0.2737,66.884
0.28446,66.297
0.30303,65.906
0.3304,65.515
0.36559,65.319
0.40762,65.124
0.45455,65.124
0.50244,64.928
0.55132,65.124
0.59042,65.124
0.62268,64.928
0.65494,64.928
0.68328,64.733
0.70577,64.537
0.72336,64.537
0.73412,64.146
0.73998,63.95
0.73998,63.559
0.73607,63.168
0.72727,62.777
0.71457,62.386
0.69795,61.995
0.68035,61.604
0.6608,61.408
0.63832,61.017
0.61388,60.626
0.58847,60.235
0.56305,59.844
0.53861,59.648
0.51515,59.257
0.49267,58.866
0.47312,58.475
0.4565,58.083
0.44086,57.497
0.42913,57.106
0.41935,56.715
0.40958,56.323
0.40078,55.737
0.39394,55.346
0.3871,54.954
0.38123,54.563
0.37634,54.172
0.37243,53.781
0.36852,53.585
0.36559,53.194
0.36266,53.194
0.3607,53.194
0.35875,53.39
0.35582,53.977
0.35288,55.541
0.34995,58.279
0.34702,62.582
0.34311,68.057
0.34018,74.511
0.33627,80.965
0.33333,87.223
0.3304,92.894
0.32649,97.979
0.32356,102.28
0.32063,105.61
0.31965,108.15
0.31672,109.52
0.31378,110.1
0.31085,109.91
0.30792,108.93
0.30499,107.56
0.30205,105.8
0.29814,103.65
0.29521,101.11
0.2913,98.37
0.28837,95.241
0.28641,91.721
0.28446,88.201
0.28152,84.681
0.27957,81.16
0.27664,78.227
0.27273,75.685
0.27077,73.533
0.26784,71.969
0.26784,70.6
0.27077,69.426
0.27859,68.644
0.29326,68.057
0.31574,67.666
0.34115,67.471
0.37146,67.275
0.41153,67.08
0.45748,67.08
0.50538,67.08
0.55425,67.08
0.6002,67.08
0.64125,67.08
0.67644,67.08
0.70479,67.08
0.72727,66.884
0.74291,66.688
0.75073,66.493
0.75464,66.102
0.75367,65.711
0.74976,65.515
0.74291,64.928
0.73118,64.537
0.71652,64.146
0.69795,63.755
0.67644,63.364
0.65298,63.168
0.62854,62.777
0.60313,62.386
0.57869,61.995
0.55621,61.604
0.53666,61.213
0.51711,60.821
0.49853,60.43
0.48094,60.039
0.4653,59.648
0.45259,59.257
0.44086,58.67
0.43206,58.279
0.42424,57.888
0.4174,57.497
0.41251,57.106
0.4086,56.715
0.40567,56.323
0.40274,55.932
0.3998,55.541
0.39687,55.346
0.39492,55.15
0.39296,55.15
0.39003,55.346
0.38807,55.932
0.38319,57.692
0.37634,60.626
0.37146,65.319
0.36755,71.382
0.36461,78.031
0.36266,84.876
0.35973,91.33
0.35679,97.197
0.35386,102.48
0.35093,106.78
0.348,110.3
0.34604,112.45
0.34311,113.62
0.34018,114.02
0.33822,113.43
0.33529,112.45
0.33236,110.69
0.3304,108.74
0.32845,106.58
0.32454,104.04
0.3216,101.3
0.31867,98.175
0.31574,94.655
0.31378,91.134
0.31085,87.419
0.30792,84.094
0.30499,80.965
0.30205,78.227
0.3001,76.076
0.29814,74.12
0.29814,72.555
0.30108,71.382
0.30792,70.6
0.3216,69.818
0.34311,69.231
0.37243,69.035
0.40958,68.84
0.45357,68.644
0.50147,68.449
0.55034,68.449
0.59726,68.253
0.63441,68.057
0.66569,68.057
0.69501,67.862
0.72043,67.471
0.74096,67.275
0.75562,67.08
0.7654,66.688
0.76931,66.102
0.76931,65.711
0.76442,65.319
0.75464,64.733
0.74194,64.342
0.72532,63.95
0.7087,63.559
0.69013,63.168
0.66764,62.777
0.64418,62.386
0.61877,61.995
0.59433,61.604
0.56891,61.213
0.54545,60.821
0.52297,60.43
0.50244,59.844
0.48387,59.452
0.46823,59.061
0.45455,58.67
0.44379,58.083
0.43402,57.692
0.42424,57.106
0.41642,56.715
0.4086,56.323
0.40176,55.932
0.39589,55.346
0.39101,54.954
0.38612,54.563
0.38025,54.172
0.37537,53.977
0.37048,53.781
0.36657,53.781
0.36364,54.172
0.35973,55.15
0.35484,57.106
0.34995,60.626
0.34506,65.711
0.34115,71.969
0.33627,78.618
0.33138,85.072
0.32747,91.134
0.32258,96.806
0.31867,101.5
0.31574,105.41
0.31281,108.34
0.30987,110.3
0.30694,111.08
0.30303,111.08
0.29912,110.3
0.29619,109.13
0.29228,107.37
0.28837,105.22
0.28446,102.87
0.28055,100.13
0.27566,97.001
0.27175,93.677
0.26882,90.157
0.26686,86.441
0.26393,82.921
0.261,79.791
0.25709,76.858
0.25318,74.511
0.25024,72.36
0.24731,70.795
0.24731,69.622
0.25122,68.644
0.261,67.862
0.27859,67.275
0.29912,66.884
0.32551,66.493
0.36168,66.297
0.40469,66.297
0.45161,66.102
0.49951,66.102
0.54643,66.102
0.58944,66.102
0.62659,65.906
0.65787,65.906
0.68133,65.711
0.6999,65.515
0.70968,65.319
0.71457,64.928
0.71652,64.537
0.71457,64.146
0.70772,63.755
0.69795,63.168
0.68426,62.777
0.66667,62.386
0.64712,61.995
0.62463,61.604
0.60117,61.213
0.57576,60.821
0.55034,60.43
0.52884,60.039
0.50831,59.648
0.48778,59.257
0.46725,58.866
0.44868,58.475
0.43206,58.083
0.41642,57.692
0.40371,57.106
0.39296,56.715
0.38319,56.323
0.37537,55.737
0.36852,55.346
0.36364,54.954
0.35973,54.563
0.35582,54.172
0.35288,53.781
0.34897,53.39
0.34604,52.999
0.34311,52.803
0.34018,52.608
0.33724,52.803
0.33333,52.999
0.3304,53.781
0.32747,55.15
0.32356,57.888
0.32063,61.995
0.31867,67.471
0.31574,73.729
0.31281,79.987
0.30987,85.854
0.30596,91.33
0.30303,96.219
0.3001,100.13
0.29717,103.26
0.29326,105.61
0.29032,106.78
0.28739,107.17
0.28543,106.58
0.28348,105.61
0.28055,104.04
0.27761,101.89
0.27468,99.348
0.27175,96.61
0.26784,93.481
0.26491,89.961
0.26197,86.441
0.25806,82.725
0.25513,79.4
0.2522,76.467
0.24927,73.924
0.24731,71.773
0.24633,69.818
0.24438,68.253
0.24438,67.275
0.24633,66.297
0.2522,65.711
0.26393,65.124
0.28348,64.733
0.31085,64.537
0.34702,64.537
0.38807,64.342
0.43402,64.342
0.47507,64.342
0.5132,64.342
0.55327,64.146
0.5914,64.146
0.62463,63.95
0.65298,63.95
0.67449,63.755
0.69013,63.559
0.6999,63.168
0.70381,62.973
0.70186,62.582
0.69599,62.19
0.68524,61.799
0.67253,61.408
0.65787,61.017
0.6393,60.626
0.61779,60.235
0.59433,59.844
0.56989,59.648
0.54545,59.257
0.52102,58.866
0.49756,58.475
0.47605,58.279
0.45552,57.692
0.43793,57.301
0.42424,56.91
0.41251,56.519
0.40176,56.128
0.39101,55.737
0.38221,55.346
0.37439,54.759
0.36852,54.368
0.36266,53.977
0.35777,53.585
0.35386,53.194
0.34995,52.803
0.34702,52.412
0.34409,52.216
0.34213,52.021
0.34018,52.021
0.33822,52.021
0.33627,52.216
0.33333,52.803
0.3304,54.368
0.32747,56.91
0.32356,61.213
0.32063,66.493
0.31769,72.555
0.31476,78.618
0.31183,84.289
0.30987,89.57
0.30792,94.068
0.30596,97.979
0.30401,100.91
0.30303,102.87
0.30108,104.04
0.29814,104.43
0.29619,104.04
0.29326,102.87
0.29032,101.3
0.28739,99.153
0.28446,96.806
0.28152,94.068
0.27957,90.939
0.27761,87.419
0.27566,84.094
0.2737,80.574
0.27077,77.445
0.26784,74.707
0.26588,72.36
0.26295,70.404
0.26002,68.644
0.25806,67.275
0.25709,66.297
0.26002,65.319
0.26491,64.733
0.27468,64.342
0.2913,63.95
0.31476,63.755
0.34604,63.559
0.38319,63.364
0.42522,63.364
0.46823,63.364
0.51222,63.168
0.55327,63.168
0.58944,63.168
0.61975,62.973
0.64516,62.973
0.66178,62.777
0.67253,62.386
0.67937,62.19
0.68328,61.799
0.68328,61.604
0.6784,61.213
0.6696,60.821
0.65689,60.43
0.64125,60.039
0.62268,59.844
0.60215,59.452
0.57967,59.061
0.55914,58.866
0.54057,58.475
0.51906,58.083
0.49853,57.888
0.47898,57.497
0.46041,57.106
0.44379,56.715
0.42913,56.323
0.41642,55.932
0.40469,55.346
0.39492,55.15
0.3871,54.563
0.37928,54.172
0.37439,53.781
0.37048,53.39
0.36559,52.999
0.36266,52.608
0.35875,52.216
0.35582,52.021
0.35288,51.825
0.34995,51.434
0.34702,51.434
0.34409,51.434
0.34213,52.021
0.3392,52.999
0.33627,55.346
0.33529,58.866
0.33236,63.755
0.32942,69.622
0.32649,75.88
0.32356,81.943
0.32063,87.614
0.31867,92.699
0.31574,97.001
0.31281,100.52
0.30987,103.06
0.30792,104.63
0.30499,105.61
0.30303,105.61
0.30108,104.82
0.29912,103.65
0.29619,101.89
0.29423,99.739
0.2913,97.197
0.28837,94.459
0.28543,91.134
0.2825,87.81
0.27957,84.289
0.27664,80.965
0.2737,77.836
0.27175,75.098
0.27077,72.555
0.26784,70.6
0.26588,69.035
0.26393,67.666
0.26393,66.493
0.26784,65.711
0.27566,65.124
0.2913,64.733
0.31378,64.342
0.34409,64.146
0.38123,63.95
0.4174,63.755
0.45259,63.755
0.49462,63.755
0.53666,63.755
0.57674,63.559
0.61193,63.559
0.64321,63.364
0.66764,63.364
0.68622,63.168
0.69892,62.973
0.70577,62.582
0.70772,62.19
0.70577,61.995
0.69892,61.604
0.69013,61.213
0.67644,60.821
0.6608,60.43
0.64125,60.039
0.62072,59.648
0.59824,59.452
0.57478,59.061
0.55132,58.67
0.52786,58.279
0.50635,58.083
0.48583,57.692
0.46921,57.301
0.45552,56.91
0.44086,56.519
0.42815,56.128
0.41642,55.541
0.40665,55.346
0.39785,54.759
0.39003,54.368
0.38416,53.977
0.3783,53.585
0.37341,53.194
0.3695,52.803
0.36559,52.412
0.36266,52.216
0.35973,52.021
0.35777,51.825
0.35484,52.021
0.35191,52.216
0.34897,53.39
0.34604,55.346
0.34311,58.475
0.3392,63.364
0.33627,69.231
0.33333,75.489
0.32942,81.747
0.32747,87.614
0.32551,92.894
0.32258,97.393
0.32063,101.11
0.31769,104.04
0.31476,105.8
0.31281,106.78
0.30987,106.98
0.30694,106.39
0.30401,105.41
0.30108,103.65
0.29814,101.69
0.29521,99.348
0.29326,96.61
0.2913,93.677
0.28837,90.352
0.28543,86.832
0.2825,83.312
0.27957,79.987
0.27664,76.858
0.2737,74.316
0.27077,71.969
0.26882,70.013
0.26686,68.449
0.26686,67.275
0.26979,66.297
0.27566,65.711
0.28837,65.124
0.30694,64.733
0.33431,64.537
0.36852,64.342
0.4086,64.146
0.45357,64.146
0.49951,64.146
0.54448,64.146
0.58553,64.146
0.6217,64.146
0.65298,64.146
0.67449,63.95
0.69013,63.95
0.70283,63.755
0.71065,63.559
0.71457,63.364
0.71457,62.973
0.70968,62.582
0.70186,62.386
0.68915,61.995
0.67351,61.604
0.65494,61.408
0.63343,61.017
0.6129,60.626
0.59238,60.235
0.56989,60.039
0.54741,59.844
0.52395,59.452
0.50244,59.061
0.48192,58.67
0.46334,58.279
0.44673,57.888
0.43206,57.497
0.42033,57.106
0.40958,56.91
0.3998,56.323
0.39296,55.932
0.3871,55.541
0.38221,55.15
0.37732,54.759
0.37341,54.368
0.3695,54.172
0.36559,53.781
0.36266,53.585
0.3607,53.39
0.35777,53.39
0.35484,53.781
0.35191,54.563
0.34995,56.715
0.34897,60.039
0.34604,64.928
0.34409,70.991
0.34115,77.64
0.33822,84.289
0.33627,90.352
0.33333,95.828
0.33138,100.52
0.32845,104.24
0.32551,107.17
0.32356,109.13
0.32063,110.3
0.31965,110.3
0.31769,109.91
0.31574,108.74
0.31378,107.17
0.31085,105.41
0.3089,103.06
0.30596,100.52
0.30303,97.784
0.30108,94.655
0.29814,91.134
0.29423,87.614
0.2913,84.289
0.29032,81.16
0.28837,78.227
0.28641,75.88
0.28446,73.729
0.2825,72.164
0.2825,70.795
0.28641,69.818
0.29423,69.035
0.3089,68.449
0.33236,68.057
0.36461,67.862
0.40469,67.666
0.44966,67.666
0.49267,67.471
0.53275,67.471
0.57771,67.471
0.6217,67.471
0.66276,67.471
0.69795,67.275
0.7263,67.08
0.74878,66.884
0.7654,66.688
0.77615,66.297
0.78104,65.906
0.78104,65.711
0.77713,65.319
0.76833,64.928
0.7566,64.537
0.74194,64.146
0.72434,63.755
0.70283,63.364
0.68035,62.973
0.65591,62.777
0.63148,62.386
0.60606,61.799
0.58162,61.408
0.55816,61.213
0.53666,60.626
0.51906,60.235
0.5044,59.844
0.48876,59.257
0.47605,58.67
0.46334,58.279
0.45357,57.692
0.44477,57.106
0.43695,56.715
0.43109,56.323
0.42522,55.737
0.42131,55.346
0.41642,54.954
0.41349,54.563
0.41056,54.368
0.40665,54.172
0.40371,53.977
0.3998,54.172
0.39687,54.954
0.39296,56.715
0.38905,59.648
0.38612,64.537
0.38221,70.6
0.3783,77.445
0.37439,84.094
0.37048,90.548
0.36755,96.219
0.36461,101.3
0.36168,105.41
0.35875,108.54
0.35582,110.69
0.35288,111.86
0.34897,112.26
0.34604,111.86
0.34311,110.69
0.3392,109.32
0.33627,107.37
0.33236,105.22
0.32942,102.87
0.32649,99.935
0.32356,96.806
0.31965,93.481
0.31672,89.765
0.31281,86.245
0.30987,82.725
0.30596,79.791
0.30205,77.054
0.29814,74.707
0.29521,72.751
0.29326,71.186
0.29423,70.013
0.29814,69.035
0.30792,68.449
0.32649,67.862
0.35288,67.471
0.3871,67.275
0.42913,67.08
0.47605,66.884
0.52395,66.884
0.57185,66.884
0.61681,66.688
0.65591,66.688
0.68915,66.493
0.71261,66.297
0.72923,66.102
0.74291,65.906
0.75171,65.515
0.7566,65.319
0.7566,64.928
0.75269,64.537
0.74487,63.95
0.73314,63.559
0.7175,62.973
0.69892,62.582
0.67742,62.19
0.65591,61.799
0.63441,61.408
0.60997,61.017
0.58456,60.626
0.55914,60.235
0.5347,59.844
0.51124,59.452
0.48974,59.061
0.47019,58.67
0.45259,58.279
0.43793,57.888
0.42424,57.497
0.41349,56.91
0.40469,56.519
0.39785,56.128
0.39101,55.541
0.38416,55.15
0.37928,54.759
0.37439,54.368
0.3695,53.977
0.36559,53.585
0.36168,53.39
0.35777,52.999
0.35386,52.803
0.35093,52.803
0.34702,53.194
0.34506,53.977
0.34115,55.932
0.33724,59.648
0.33333,64.733
0.32942,70.991
0.32551,77.64
0.3216,84.289
0.31769,90.352
0.31476,95.828
0.31085,100.72
0.30694,104.43
0.30401,107.37
0.30205,109.32
0.3001,110.3
0.29717,110.3
0.29423,109.52
0.2913,108.34
0.28837,106.58
0.28446,104.43
0.28152,102.09
0.27859,99.348
0.27468,96.219
0.27175,92.894
0.26784,89.179
0.26588,85.658
0.26491,81.943
0.26197,78.814
0.25904,76.076
0.25611,73.533
0.25318,71.578
0.25024,70.013
0.24927,68.644
0.25122,67.666
0.25904,66.884
0.2737,66.297
0.29717,65.906
0.32942,65.711
0.36266,65.515
0.3998,65.319
0.44379,65.319
0.49267,65.124
0.54154,65.124
0.58749,65.124
0.62854,65.124
0.66276,64.928
0.6911,64.733
0.71261,64.537
0.72727,64.537
0.73607,64.146
0.739,63.755
0.73705,63.364
0.73216,62.973
0.72239,62.582
0.70968,62.19
0.69404,61.604
0.67449,61.408
0.652,61.017
0.62757,60.626
0.60215,60.235
0.57576,59.844
0.55034,59.452
0.52493,59.061
0.50342,58.67
0.48485,58.279
0.46628,57.888
0.44868,57.497
0.43304,57.106
0.41838,56.715
0.40567,56.323
0.39589,55.932
0.38612,55.346
0.37928,54.954
0.37243,54.563
0.36755,54.172
0.36266,53.781
0.35973,53.39
0.35679,52.999
0.35288,52.608
0.34995,52.412
0.34702,52.216
0.34409,52.216
0.34018,52.412
0.33724,52.999
0.33333,54.172
0.3304,56.715
0.32649,60.43
0.32258,65.515
0.32063,71.382
0.31769,77.445
0.31476,83.312
0.31183,88.592
0.3089,93.481
0.30596,97.393
0.30205,100.52
0.29912,102.87
0.29619,104.24
0.29326,104.82
0.29032,104.63
0.28739,103.85
0.28446,102.48
0.28348,100.52
0.28055,98.175
0.27859,95.632
0.27566,92.699
0.27175,89.374
0.26882,86.05
0.26588,82.529
0.26295,79.205
0.26002,76.271
0.25709,73.533
0.25415,71.382
0.25122,69.426
0.24927,67.862
0.24829,66.688
0.24927,65.906
0.25318,65.124
0.26197,64.537
0.27664,64.146
0.29814,63.755
0.32649,63.559
0.36168,63.364
0.40274,63.168
0.44575,63.168
0.48974,63.168
0.5259,62.973
0.55718,62.973
0.58847,62.973
0.61681,62.777
0.64027,62.582
0.65787,62.386
0.67058,62.19
0.67742,61.799
0.67937,61.604
0.67742,61.213
0.67058,60.821
0.65982,60.43
0.64516,60.039
0.6305,59.844
0.61388,59.452
0.59335,59.061
0.57185,58.67
0.54936,58.475
0.52688,58.083
0.5044,57.888
0.48289,57.497
0.46334,57.106
0.44575,56.91
0.42913,56.323
0.41544,55.932
0.40469,55.541
0.39492,55.15
0.38612,54.759
0.3783,54.368
0.37146,53.781
0.36559,53.585
0.35973,53.194
0.35582,52.803
0.35191,52.216
0.348,52.021
0.34506,51.63
0.34213,51.434
0.34018,51.239
0.33822,51.239
0.33627,51.63
0.33431,52.216
0.33138,53.781
0.32845,56.715
0.32551,61.017
0.32258,66.493
0.31965,72.555
0.31672,78.618
0.31476,84.289
0.31183,89.57
0.3089,94.263
0.30694,97.979
0.30596,101.11
0.30401,103.06
0.30205,104.24
0.29912,104.63
0.29619,104.43
0.29423,103.26
0.2913,101.69
0.28837,99.739
0.28543,97.393
0.28348,94.655
0.28055,91.721
0.27859,88.396
0.27664,84.876
0.27468,81.356
0.27175,78.031
0.26979,75.098
0.26686,72.36
0.26393,70.209
0.261,68.449
0.25806,67.08
0.25709,65.906
0.25806,64.928
0.26295,64.342
0.27468,63.755
0.28837,63.364
0.30792,62.973
0.33724,62.973
0.37341,62.777
0.41447,62.777
0.45943,62.582
0.50342,62.582
0.54643,62.582
0.58553,62.582
0.61877,62.386
0.64712,62.386
0.66862,62.19
0.68328,61.995
0.6911,61.799
0.69599,61.408
0.69697,61.213
0.69501,60.821
0.68817,60.43
0.67742,60.039
0.66276,59.648
0.64516,59.257
0.62463,59.061
0.60215,58.67
0.57869,58.279
0.55523,58.083
0.53372,57.692
0.51417,57.301
0.49365,56.91
0.4741,56.715
0.4565,56.323
0.43988,55.932
0.42522,55.346
0.41251,55.15
0.40078,54.563
0.39198,54.172
0.38319,53.781
0.37634,53.39
0.37048,52.999
0.36657,52.608
0.36266,52.216
0.35875,51.825
0.35484,51.434
0.35191,51.239
0.34995,51.043
0.34702,50.847
0.34409,51.043
0.34115,51.434
0.3392,52.412
0.33627,54.563
0.33333,58.083
0.3304,62.973
0.32845,68.84
0.32649,75.098
0.32356,81.16
0.32063,86.636
0.31769,91.721
0.31476,96.024
0.31183,99.544
0.3089,102.09
0.30694,103.85
0.30401,104.63
0.30108,104.63
0.29912,104.24
0.29814,102.87
0.29521,101.3
0.29326,99.348
0.29032,96.806
0.28739,94.068
0.28348,90.939
0.28055,87.614
0.27761,84.289
0.27468,80.769
0.27175,77.445
0.26882,74.511
0.26686,72.164
0.26491,70.013
0.26295,68.253
0.261,66.884
0.26002,65.906
0.26197,64.928
0.26784,64.342
0.27957,63.755
0.29912,63.364
0.32649,63.168
0.36168,62.973
0.40274,62.777
0.44673,62.777
0.4868,62.777
0.52297,62.777
0.56109,62.582
0.59824,62.582
0.6305,62.582
0.65787,62.386
0.67937,62.19
0.69404,61.995
0.70381,61.799
0.7087,61.408
0.70772,61.213
0.70283,60.821
0.69404,60.43
0.68231,60.039
0.66862,59.648
0.65103,59.452
0.63148,59.061
0.60899,58.67
0.58553,58.279
0.56207,58.083
0.53861,57.692
0.51515,57.301
0.49365,56.91
0.4741,56.715
0.45552,56.128
0.44086,55.737
0.42913,55.346
0.4174,54.954
0.40665,54.563
0.39687,53.977
0.38905,53.585
0.38221,53.194
0.37634,52.803
0.37048,52.608
0.36559,52.216
0.36168,51.825
0.35777,51.434
0.35484,51.239
0.35288,51.043
0.34995,51.043
0.348,51.239
0.34506,52.021
0.34213,53.585
0.3392,56.715
0.33627,61.213
0.33333,66.884
0.3304,73.338
0.32747,79.791
0.32454,85.854
0.3216,91.134
0.31965,96.024
0.31769,100.13
0.31574,103.26
0.31281,105.41
0.30987,106.58
0.30694,107.17
0.30401,106.98
0.30108,106
0.29814,104.63
0.29521,102.67
0.29228,100.52
0.28837,97.979
0.28543,95.241
0.28348,92.112
0.28152,88.788
0.27957,85.267
0.27664,81.943
0.2737,78.814
0.27077,76.076
0.26784,73.533
0.26491,71.578
0.26295,69.818
0.261,68.644
0.26197,67.471
0.26686,66.688
0.27566,66.102
0.28935,65.711
0.31183,65.319
0.34213,65.124
0.38025,65.124
0.42424,64.928
0.47116,64.928
0.51808,64.928
0.56305,64.928
0.60411,64.928
0.64907,64.928
0.6911,64.733
0.72239,64.537
0.74096,64.537
0.75269,64.146
0.76051,63.95
0.76344,63.559
0.76246,63.168
0.7566,62.973
0.74682,62.582
0.73216,62.19
0.71457,61.799
0.69404,61.408
0.67155,61.017
0.64614,60.821
0.62366,60.43
0.60117,60.039
0.57674,59.844
0.55327,59.452
0.52981,59.061
0.50929,58.67
0.48974,58.279
0.47214,57.888
0.4565,57.497
0.44379,57.106
0.43304,56.715
0.42326,56.323
0.41642,55.932
0.41056,55.541
0.40567,55.15
0.40078,54.759
0.39687,54.368
0.39296,54.172
0.39003,53.781
0.3871,53.585
0.38416,53.39
0.38123,53.585
0.37928,54.172
0.37634,55.346
0.37341,58.083
0.37146,62.386
0.3695,68.253
0.36755,74.707
0.36461,81.356
0.36168,87.614
0.35875,93.481
0.35582,98.37
0.35288,102.67
0.35093,106
0.348,108.34
0.34506,109.91
0.34311,110.3
0.34115,110.1
0.3392,109.13
0.33724,107.76
0.33431,106
0.33236,104.04
0.32942,101.89
0.32649,99.153
0.32356,96.219
0.32063,93.09
0.31769,89.765
0.31574,86.245
0.31281,82.921
0.30987,79.791
0.30792,77.054
0.30694,74.707
0.30401,72.751
0.30303,71.186
0.30205,70.013
0.30596,69.035
0.31476,68.253
0.3304,67.666
0.35484,67.471
0.38905,67.08
0.43011,66.884
0.47703,66.884
0.52004,66.688
0.55914,66.688
0.60313,66.688
0.64614,66.493
0.68524,66.297
0.71848,66.102
0.74487,65.906
0.7654,65.711
0.78006,65.319
0.78886,64.928
0.79179,64.342
0.79081,63.95
0.78397,63.559
0.77517,62.973
0.76246,62.582
0.7478,61.995
0.72923,61.604
0.70772,61.213
0.68426,60.821
0.65885,60.43
0.63343,60.039
0.60802,59.648
0.58358,59.257
0.55914,58.866
0.53763,58.475
0.51906,58.083
0.50342,57.692
0.48876,57.301
0.4741,56.91
0.46237,56.519
0.45161,55.932
0.44184,55.541
0.43402,54.954
0.42717,54.563
0.42131,54.172
0.41544,53.781
0.40958,53.194
0.40469,52.803
0.40078,52.412
0.39687,52.216
0.39198,52.021
0.3871,52.021
0.38221,52.412
0.37732,53.585
0.37146,55.932
0.36657,59.844
0.3607,65.319
0.35582,71.578
0.34995,78.227
0.34506,84.681
0.34115,90.548
0.33724,95.828
0.33333,100.33
0.32845,104.04
0.32454,106.58
0.31965,108.15
0.31574,108.74
0.31183,108.54
0.30792,107.56
0.30401,106.19
0.3001,104.24
0.29619,102.09
0.2913,99.544
0.28837,96.61
0.28543,93.481
0.2825,90.157
0.27859,86.441
0.27468,82.725
0.27077,79.4
0.26686,76.271
0.26295,73.533
0.25806,71.186
0.25415,69.231
0.25024,67.471
0.24829,66.297
0.25024,65.319
0.25513,64.537
0.26686,64.146
0.28641,63.755
0.31476,63.559
0.35191,63.364
0.39687,63.168
0.44575,63.168
0.49658,63.168
0.54545,63.168
0.5914,63.168
0.63148,63.168
0.66471,62.973
0.68915,62.973
0.70479,62.777
0.7175,62.386
0.7263,62.19
0.73021,61.799
0.72923,61.408
0.72336,61.017
0.71359,60.626
0.6999,60.235
0.68231,59.844
0.6608,59.452
0.63734,59.257
0.61486,58.866
0.59238,58.67
0.56794,58.279
0.54154,58.083
0.51515,57.888
0.48974,57.497
0.46628,57.106
0.44477,56.91
0.4262,56.519
0.4086,56.128
0.39394,55.737
0.38123,55.346
0.37048,54.954
0.36266,54.563
0.35582,54.172
0.34995,53.781
0.34409,53.39
0.3392,52.999
0.33529,52.412
0.33138,52.216
0.32747,51.825
0.32454,51.434
0.32063,51.239
0.31769,51.434
0.31476,51.63
0.31183,52.608
0.30987,54.368
0.30694,57.692
0.30401,62.386
0.3001,68.057
0.29717,74.316
0.29326,80.574
0.29032,86.245
0.28739,91.721
0.28446,96.219
0.28152,99.935
0.27957,102.67
0.27664,104.24
0.27468,105.22
0.2737,105.02
0.27273,104.24
0.27077,102.67
0.26784,100.72
0.26588,98.37
0.26393,95.632
0.261,92.503
0.25806,89.374
0.25513,85.854
0.25122,82.334
0.24829,78.814
0.24633,75.685
0.24438,72.947
0.24242,70.6
0.23949,68.84
0.23656,67.275
0.23363,65.906
0.23265,65.124
0.23363,64.342
0.23949,63.95
0.25122,63.559
0.27077,63.364
0.29814,63.168
0.33529,63.168
0.37243,62.973
0.41056,62.973
0.4565,62.973
0.50538,62.777
0.5523,62.582
0.59629,62.386
0.63441,61.995
0.66569,61.799
0.69013,61.604
0.70772,61.408
0.71848,61.017
0.72434,60.821
0.72336,60.43
0.71848,60.235
0.7087,59.844
0.69599,59.648
0.67155,59.452
0.64125,59.061
0.61486,58.866
0.58944,58.475
0.56598,58.279
0.54252,58.083
0.52004,57.888
0.49853,57.692
0.48094,57.497
0.46628,57.106
0.45064,56.91
0.43695,56.91
0.42424,56.715
0.41349,56.519
0.40371,56.323
0.39589,55.932
0.38905,55.737
0.38319,55.346
0.3783,55.15
0.37341,54.759
0.3695,54.563
0.36657,54.172
0.36364,53.977
0.36168,53.781
0.35875,53.585
0.35582,53.781
0.35191,53.977
0.34897,55.15
0.34604,57.106
0.34409,60.626
0.34115,65.515
0.33822,71.186
0.33627,77.249
0.33529,83.312
0.33333,88.788
0.33236,93.872
0.3304,98.175
0.32942,101.5
0.32747,104.04
0.32551,105.61
0.32454,106.19
0.32258,106
0.3216,105.22
0.31965,103.85
0.31867,102.09
0.31672,99.739
0.31672,97.197
0.31574,94.263
0.31476,91.134
0.31378,87.81
0.31183,84.485
0.31085,81.16
0.3089,78.227
0.30694,75.489
0.30401,73.338
0.30205,71.382
0.3001,69.818
0.29814,68.644
0.29717,67.666
0.29912,67.08
0.30401,66.493
0.31378,66.102
0.32942,65.711
0.35191,65.711
0.38221,65.515
0.4174,65.515
0.45748,65.319
0.49951,65.319
0.54154,65.124
0.58065,65.124
0.61486,64.928
0.64125,64.733
0.6608,64.537
0.6784,64.146
0.69306,63.755
0.70186,63.559
0.70674,63.168
0.70674,62.777
0.70283,62.386
0.69404,61.995
0.68328,61.604
0.66862,61.213
0.65103,60.821
0.63343,60.43
0.61584,60.235
0.59629,59.844
0.57576,59.452
0.55425,59.061
0.5347,58.67
0.51515,58.279
0.49658,57.888
0.48094,57.497
0.46628,57.106
0.45357,56.715
0.44282,56.323
0.43304,55.932
0.42522,55.541
0.42033,55.15
0.41447,54.563
0.40958,54.172
0.40469,53.781
0.40078,53.585
0.39687,53.194
0.39296,52.803
0.38905,52.608
0.38612,52.412
0.38221,52.412
0.37928,52.608
0.37634,53.39
0.37341,55.15
0.37048,58.083
0.36755,62.777
0.36364,68.449
0.3607,74.902
0.35679,81.16
0.35386,87.027
0.35093,92.503
0.34702,97.197
0.34409,101.11
0.34115,104.24
0.33822,106.19
0.33627,107.17
0.33431,107.56
0.33138,106.98
0.32845,105.8
0.32551,104.24
0.32258,102.09
0.31867,99.739
0.31574,97.001
0.31183,93.872
0.3089,90.548
0.30596,87.223
0.30205,83.703
0.3001,80.378
0.29814,77.249
0.29521,74.707
0.29228,72.36
0.28935,70.6
0.28641,69.035
0.28348,67.862
0.28348,67.08
0.28641,66.297
0.29423,65.906
0.3089,65.515
0.3304,65.124
0.35875,64.928
0.38905,64.928
0.42033,64.733
0.45846,64.733
0.49951,64.733
0.53861,64.537
0.57576,64.537
0.60802,64.537
0.63441,64.342
0.65494,64.146
0.67058,63.95
0.68035,63.559
0.68622,63.168
0.68622,62.973
0.68328,62.582
0.67644,62.19
0.66667,61.799
0.65396,61.408
0.63832,61.213
0.61975,60.821
0.59922,60.43
0.57771,60.039
0.55621,59.844
0.53372,59.452
0.51222,59.061
0.49071,58.67
0.4741,58.279
0.45846,57.888
0.44379,57.497
0.43011,56.91
0.4174,56.519
0.40567,55.932
0.39589,55.541
0.3871,55.15
0.37928,54.759
0.37341,54.172
0.36755,53.781
0.36266,53.585
0.35875,53.194
0.35582,52.803
0.35288,52.608
0.34897,52.412
0.34604,52.412
0.34213,52.608
0.3392,53.39
0.33529,54.759
0.33138,57.301
0.32845,61.408
0.32454,66.688
0.32063,72.555
0.31672,78.814
0.31378,84.681
0.31183,90.157
0.3089,95.046
0.30596,99.153
0.30303,102.67
0.29912,105.02
0.29619,106.39
0.29326,106.98
0.28935,106.78
0.28543,106
0.28152,104.43
0.27859,102.48
0.27566,100.13
0.2737,97.393
0.27077,94.263
0.26686,90.939
0.26393,87.223
0.26002,83.703
0.25611,80.183
0.2522,77.249
0.24829,74.511
0.24536,72.164
0.24145,70.209
0.23754,68.644
0.23558,67.275
0.23558,66.297
0.23656,65.515
0.24145,64.928
0.25024,64.537
0.26588,64.146
0.28739,63.95
0.31574,63.755
0.348,63.755
0.38416,63.755
0.42131,63.755
0.4565,63.755
0.48974,63.755
0.51613,63.755
0.53763,63.559
0.55718,63.559
0.57283,63.364
0.58553,63.168
0.59433,62.973
0.59824,62.777
0.59824,62.386
0.59531,62.19
0.58749,61.799
0.57771,61.408
0.565,61.213
0.55132,60.821
0.53666,60.43
0.52004,60.235
0.50147,59.844
0.48289,59.452
0.46334,59.061
0.44477,58.67
0.42717,58.279
0.41153,57.888
0.39687,57.301
0.38319,56.91
0.37732,56.519
0.37439,55.932
0.37146,55.541
0.36657,55.15
0.36168,54.563
0.35582,54.172
0.35093,53.781
0.34604,53.39
0.34213,53.194
0.33822,52.803
0.33431,52.608
0.33138,52.412
0.32845,52.608
0.32454,52.999
0.32258,53.781
0.32063,55.737
0.31867,58.67
0.31574,63.168
0.31183,68.644
0.3089,74.707
0.30596,80.769
0.30303,86.441
0.3001,91.917
0.29717,96.61
0.29326,100.72
0.29032,103.85
0.28739,106
0.28543,107.17
0.28348,107.56
0.28055,107.17
0.27761,105.8
0.27468,104.24
0.27077,101.89
0.26686,99.153
0.26295,96.024
0.25904,92.699
0.25513,88.983
0.25122,85.463
0.24731,81.747
0.24438,78.422
0.24242,75.489
0.24047,73.142
0.23656,70.795
0.23363,69.035
0.22972,67.471
0.22776,66.297
0.22678,65.515
0.22972,64.733
0.23558,64.342
0.24731,63.95
0.26491,63.559
0.28837,63.364
0.31281,63.364
0.33822,63.168
0.36755,63.168
0.39883,63.364
0.43011,63.364
0.45943,63.559
0.48485,63.559
0.50635,63.364
0.52493,63.364
0.53861,63.168
0.54839,62.973
0.55523,62.973
0.55816,62.777
0.55718,62.386
0.55425,62.19
0.54839,61.799
0.53959,61.408
0.52884,61.213
0.51613,60.821
0.50147,60.626
0.48485,60.235
0.46921,59.844
0.45259,59.452
0.43695,59.061
0.42131,58.67
0.4086,58.279
0.39883,57.888
0.38807,57.301
0.37732,56.91
0.36755,56.519
0.35875,55.932
0.35191,55.541
0.34506,55.15
0.3392,54.759
0.33431,54.172
0.32942,53.781
0.32551,53.39
0.32258,52.999
0.32063,52.803
0.31867,52.803
0.31574,52.803
0.31378,52.999
0.31085,53.781
0.3089,55.15
0.30596,57.888
0.30303,61.995
0.30108,67.275
0.29814,73.338
0.29521,79.4
0.29326,85.463
0.2913,91.134
0.28935,96.219
0.28739,100.72
0.28543,104.43
0.2825,107.17
0.27957,108.93
0.27664,109.71
0.2737,109.71
0.27077,108.74
0.26784,106.98
0.26393,104.82
0.261,102.28
0.25904,99.153
0.25709,95.632
0.25513,91.917
0.2522,88.005
0.24829,84.094
0.24536,80.574
0.24145,77.249
0.23851,74.316
0.23558,71.969
0.23167,69.818
0.22972,68.057
0.22678,66.688
0.22678,65.711
0.22776,64.928
0.23265,64.342
0.24145,63.95
0.25415,63.559
0.27175,63.559
0.29423,63.364
0.31965,63.364
0.34702,63.364
0.37537,63.559
0.40176,63.559
0.42717,63.755
0.44868,63.95
0.4653,63.95
0.47801,63.95
0.48974,63.95
0.49951,63.755
0.50733,63.559
0.51124,63.364
0.5132,63.168
0.51222,62.973
0.50831,62.582
0.50147,62.386
0.49267,61.995
0.48289,61.799
0.47019,61.408
0.45943,61.213
0.44868,60.821
0.43597,60.43
0.42326,60.039
0.41056,59.648
0.39883,59.257
0.38807,58.866
0.37732,58.279
0.36852,57.888
0.3607,57.301
0.35288,56.91
0.34702,56.323
0.34213,55.932
0.3392,55.346
0.33529,54.954
0.33236,54.563
0.32942,54.172
0.32649,53.781
0.32454,53.585
0.32258,53.39
0.32063,53.39
0.31867,53.585
0.31672,54.172
0.31476,55.346
0.31281,57.888
0.31183,61.799
0.31085,67.08
0.3089,73.142
0.30694,79.596
0.30499,85.658
0.30303,91.721
0.30108,97.197
0.29814,102.28
0.29619,106.58
0.29423,109.91
0.2913,112.06
0.28837,113.04
0.28739,113.23
0.28543,112.26
0.28348,110.89
0.28152,108.74
0.27957,106
0.27664,102.87
0.2737,99.544
0.27077,95.632
0.26784,91.721
0.26491,87.614
0.26197,83.898
0.25904,80.378
0.25709,77.445
0.25611,74.707
0.25415,72.36
0.2522,70.6
0.25024,69.035
0.24829,67.862
0.24927,66.884
0.25318,66.102
0.261,65.711
0.2737,65.319
0.29032,65.124
0.31085,65.319
0.33529,65.319
0.35679,65.515
0.3783,65.515
0.40078,65.711
0.42229,65.906
0.44086,66.102
0.45748,66.297
0.47214,66.493
0.48289,66.493
0.49169,66.493
0.49756,66.297
0.50147,66.297
0.50244,66.102
0.50244,65.906
0.49951,65.515
0.49462,65.319
0.48778,64.928
0.47996,64.733
0.47019,64.342
0.46041,63.95
0.44868,63.559
0.43793,63.168
0.42717,62.777
0.41642,62.386
0.40665,61.799
0.39785,61.408
0.39101,61.017
0.38514,60.43
0.37928,60.039
0.37439,59.648
0.3695,59.061
0.36559,58.67
0.36266,58.279
0.35973,57.692
0.35777,57.301
0.35679,56.91
0.35484,56.715
0.35484,56.323
0.35386,56.128
0.35386,56.128
0.35386,56.323
0.35386,56.91
0.35288,58.279
0.37341,61.017
0.40469,65.319
0.41935,70.795
0.4262,77.249
0.42913,83.898
0.43011,90.548
0.42913,96.806
0.42815,102.67
0.42717,107.95
0.42717,112.26
0.4262,115.58
0.42424,117.73
0.42229,118.51
0.42033,118.32
0.41838,117.14
0.41642,115.38
0.41349,113.04
0.41153,110.1
0.4086,106.98
0.40665,103.46
0.40469,99.544
0.40371,95.437
0.40176,91.33
0.3998,87.223
0.39687,83.507
0.39492,80.183
0.39198,77.249
0.39003,74.902
0.3871,72.751
0.38612,70.991
0.38612,69.622
0.39003,68.644
0.39785,68.057
0.40958,67.471
0.42522,67.275
0.4477,67.08
0.47605,67.08
0.50929,67.08
0.54448,67.275
0.57869,67.471
0.61095,67.666
0.64027,67.862
0.66471,67.862
0.68622,68.057
0.70283,67.862
0.71359,67.862
0.72141,67.666
0.7263,67.471
0.72923,67.275
0.73021,67.08
0.72727,66.688
0.72141,66.297
0.71359,65.906
0.70283,65.711
0.68915,65.319
0.67546,64.928
0.65982,64.537
0.64321,63.95
0.62854,63.559
0.61584,63.168
0.60215,62.777
0.58847,62.19
0.57576,61.799
0.56403,61.213
0.55327,60.626
0.54448,60.039
0.53666,59.648
0.52981,59.061
0.52493,58.475
0.52004,58.083
0.51711,57.497
0.51515,57.106
0.51222,56.715
0.51026,56.323
0.50733,55.932
0.50538,55.737
0.50244,55.737
0.49951,55.932
0.49658,56.323
0.49462,57.692
0.49169,60.235
0.48876,64.342
0.48583,69.818
0.48289,76.076
0.48094,82.725
0.47801,89.374
0.47507,95.632
0.47116,101.69
0.46823,107.17
0.46432,111.67
0.46041,115.19
0.4565,117.34
0.45259,118.32
0.44868,117.93
0.44477,116.95
0.44184,114.99
0.43988,112.45
0.43597,109.52
0.43206,106
0.42815,102.28
0.42326,98.175
0.41838,94.068
0.41447,89.765
0.40958,85.658
0.40567,81.943
0.40176,78.618
0.39785,75.685
0.39394,73.142
0.39101,71.186
0.38905,69.426
0.38807,68.057
0.38807,67.08
0.39198,66.493
0.40176,65.906
0.41642,65.711
0.43793,65.515
0.4653,65.515
0.4956,65.515
0.52688,65.711
0.55914,65.906
0.58456,66.102
0.60704,66.297
0.62757,66.493
0.64614,66.688
0.65982,66.688
0.67155,66.884
0.6784,66.688
0.68231,66.688
0.68328,66.493
0.68133,66.297
0.67644,65.906
0.66862,65.711
0.65885,65.319
0.64809,64.928
0.63734,64.537
0.62366,64.342
0.60802,63.95
0.59238,63.559
0.57576,63.168
0.56012,62.582
0.54545,62.19
0.53177,61.604
0.52004,61.213
0.50831,60.626
0.49951,60.039
0.49169,59.452
0.4868,59.061
0.48094,58.475
0.47605,57.888
0.47214,57.301
0.46921,56.91
0.46628,56.519
0.46334,56.128
0.46139,55.541
0.45943,55.346
0.45748,55.15
0.45552,55.15
0.45357,55.15
0.45259,55.346
0.45259,56.323
0.45064,58.083
0.44868,61.213
0.44673,65.711
0.44477,71.186
0.44184,77.445
0.43891,83.703
0.43597,89.961
0.43304,96.024
0.43011,101.5
0.42717,106.39
0.42522,110.3
0.42326,113.23
0.42033,114.8
0.4174,115.38
0.41447,114.8
0.41056,113.23
0.40762,111.08
0.40371,108.15
0.3998,105.02
0.39589,101.3
0.39198,97.197
0.38807,93.09
0.38514,88.788
0.38416,84.485
0.38123,80.769
0.3783,77.445
0.37537,74.707
0.37243,72.164
0.3695,70.013
0.36657,68.253
0.36461,67.08
0.36461,65.906
0.36755,65.319
0.37537,64.733
0.38807,64.537
0.40469,64.342
0.42424,64.146
0.45064,64.342
0.47996,64.537
0.51124,64.733
0.54154,64.928
0.56989,65.124
0.59531,65.319
0.61681,65.515
0.63441,65.711
0.64809,65.906
0.65689,65.906
0.66276,65.711
0.66569,65.711
0.66569,65.515
0.66373,65.319
0.65885,64.928
0.65103,64.733
0.64125,64.537
0.62952,64.146
0.61584,63.755
0.60117,63.364
0.58553,62.973
0.57087,62.582
0.55621,62.19
0.5435,61.799
0.53372,61.213
0.52297,60.626
0.51222,60.235
0.50342,59.648
0.4956,59.257
0.48876,58.67
0.48387,58.083
0.47898,57.692
0.47507,57.106
0.47214,56.715
0.46921,56.128
0.46823,55.737
0.46725,55.346
0.46628,55.15
0.4653,54.759
0.46432,54.759
0.46334,54.759
0.46237,55.15
0.46041,55.932
0.45943,57.497
0.45846,60.43
0.4565,64.537
0.45455,70.013
0.45259,75.88
0.45161,82.138
0.45064,88.201
0.44868,94.068
0.44673,99.544
0.44477,104.43
0.44184,108.34
0.43988,111.28
0.43695,112.84
0.43402,113.43
0.43109,113.04
0.42815,111.67
0.40176,109.52
0.36461,106.78
0.34604,103.46
0.33333,99.935
0.32551,96.024
0.31867,91.917
0.31281,87.614
0.30792,83.703
0.30303,79.987
0.29912,76.662
0.29521,73.924
0.29032,71.382
0.28739,69.426
0.28446,67.862
0.28348,66.493
0.28446,65.515
0.28837,64.928
0.29717,64.342
0.31183,64.146
0.33431,63.95
0.36461,63.95
0.40078,63.95
0.44184,63.95
0.48583,64.342
0.52786,64.537
0.56794,64.733
0.6002,64.928
0.62659,65.124
0.65103,65.319
0.67253,65.319
0.68915,65.515
0.70186,65.319
0.70968,65.319
0.71359,65.124
0.71261,64.928
0.70772,64.537
0.69892,64.342
0.68622,64.146
0.67155,63.755
0.65591,63.364
0.6393,62.973
0.62072,62.777
0.60117,62.19
0.58162,61.799
0.56305,61.408
0.54448,61.017
0.52884,60.43
0.5132,59.844
0.50049,59.452
0.48974,58.866
0.47996,58.475
0.47214,57.888
0.46725,57.497
0.46237,56.91
0.45748,56.519
0.45357,55.932
0.45064,55.541
0.4477,55.15
0.44575,54.954
0.44379,54.759
0.44184,54.759
0.43988,54.759
0.43793,55.15
0.43695,56.128
0.435,58.083
0.43402,61.408
0.43206,66.102
0.43011,71.969
0.42717,78.227
0.42424,84.485
0.42131,90.743
0.4174,96.806
0.41447,102.28
0.41153,106.98
0.40762,110.69
0.40469,113.23
0.40176,114.6
0.39883,114.8
0.39589,114.21
0.39198,112.65
0.38807,110.3
0.38319,107.56
0.37928,104.24
0.37439,100.72
0.3695,96.61
0.36461,92.503
0.35973,88.396
0.35484,84.289
0.34995,80.378
0.34702,77.054
0.34409,74.12
0.34018,71.773
0.33627,69.818
0.33236,68.253
0.3304,66.884
0.3304,65.906
0.33529,65.319
0.34604,64.733
0.36461,64.537
0.39198,64.537
0.42717,64.537
0.46237,64.537
0.49951,64.733
0.54252,64.928
0.58749,65.319
0.63245,65.515
0.67449,65.711
0.71163,65.906
0.74389,66.102
0.77126,66.102
0.79277,66.102
0.80938,66.102
0.82014,65.906
0.826,65.711
0.82698,65.515
0.82405,65.319
0.81623,64.928
0.80547,64.537
0.79081,64.342
0.77224,63.95
0.75171,63.559
0.72923,63.168
0.70577,62.777
0.68231,62.386
0.6608,61.799
0.6393,61.408
0.62268,60.821
0.60704,60.235
0.59238,59.844
0.57869,59.257
0.56696,58.67
0.55621,58.279
0.54741,57.692
0.53959,57.106
0.53275,56.715
0.52688,56.323
0.52199,55.932
0.51808,55.541
0.51515,55.346
0.51222,55.15
0.51026,54.954
0.50733,55.346
0.5044,55.932
0.50147,57.301
0.49853,59.844
0.49462,63.755
0.49071,69.231
0.4868,75.293
0.48289,81.943
0.47898,88.396
0.47507,94.85
0.47214,100.72
0.46921,105.8
0.4653,110.3
0.46139,113.43
0.4565,115.58
0.45259,116.36
0.4477,116.17
0.44282,114.99
0.43695,113.04
0.43206,110.69
0.4262,107.76
0.42131,104.43
0.41642,100.72
0.41251,96.806
0.40762,92.699
0.40176,88.592
0.39687,84.485
0.39101,80.965
0.38612,77.64
0.38025,74.902
0.37537,72.555
0.37048,70.6
0.36657,69.035
0.36461,67.862
0.36657,66.884
0.37243,66.297
0.38416,65.906
0.40371,65.711
0.43206,65.515
0.47019,65.515
0.51515,65.515
0.56598,65.711
0.61877,65.906
0.67155,66.102
0.72141,66.493
0.76833,66.688
0.80938,66.688
0.84066,66.884
0.86413,66.884
0.88661,66.884
0.90616,66.688
0.91984,66.493
0.92864,66.297
0.93255,66.102
0.9306,65.906
0.92375,65.515
0.91105,65.124
0.89345,64.733
0.87195,64.537
0.84751,64.146
0.82405,63.755
0.80059,63.364
0.77517,62.973
0.74976,62.582
0.72532,61.995
0.70186,61.604
0.68035,61.017
0.6608,60.626
0.64321,60.039
0.62854,59.648
0.61486,59.061
0.60215,58.67
0.59335,58.279
0.58456,57.692
0.57674,57.301
0.56989,56.91
0.56403,56.715
0.55816,56.519
0.55327,56.323
0.54839,56.519
0.54448,56.91
0.53959,58.083
0.53568,60.235
0.53177,63.755
0.52786,68.84
0.52395,74.902
0.52004,81.552
0.51515,88.201
0.51124,94.85
0.50538,101.11
0.50049,106.58
0.49462,111.47
0.48974,114.99
0.48485,117.34
0.47996,118.51
0.4741,118.51
0.46823,117.73
0.46334,116.17
0.45846,114.02
0.45357,111.47
0.4477,108.54
0.44184,105.22
0.43597,101.5
0.43011,97.588
0.42326,93.481
0.4174,89.57
0.41153,85.658
0.40665,82.138
0.82111,68.449
0.81818,68.057
0.81036,67.666
0.79961,67.275
0.78592,66.884
0.76931,66.493
0.74976,66.102
0.72923,65.711
0.70772,65.124
0.68622,64.733
0.66569,64.146
0.64614,63.755
0.62757,63.168
0.61095,62.777
0.59726,62.19
0.58553,61.604
0.5738,61.213
0.56403,60.626
0.55523,60.235
0.54741,59.844
0.53959,59.452
0.53372,59.061
0.52884,58.67
0.52395,58.279
0.52004,58.083
0.51613,58.083
0.51222,58.279
0.50929,59.257
0.50538,61.017
0.50244,64.146
0.49853,69.035
0.49462,74.902
0.49071,81.552
0.4868,88.592
0.48192,95.241
0.47801,101.69
0.4741,107.56
0.46921,112.65
0.4653,116.56
0.46139,119.1
0.45748,120.47
0.45357,120.86
0.44868,120.08
0.44379,118.51
0.43891,116.56
0.43402,114.02
0.42913,111.28
0.42326,107.95
0.41838,104.43
0.41349,100.72
0.4086,96.61
0.40371,92.503
0.40078,88.592
0.39687,84.876
0.39296,81.552
0.38807,78.618
0.38416,76.271
0.37928,74.12
0.37537,72.555
0.37439,71.382
0.37634,70.6
0.38319,69.818
0.39687,69.426
0.41838,69.231
0.44282,69.035
0.47116,69.035
0.50831,69.231
0.55132,69.231
0.59726,69.426
0.64321,69.622
0.68817,69.818
0.72825,69.818
0.7654,69.818
0.7957,69.818
0.82209,69.622
0.84164,69.426
0.8563,69.035
0.86315,68.84
0.8651,68.449
0.86413,68.057
0.85924,67.471
0.85044,67.08
0.83773,66.688
0.82111,66.102
0.80059,65.711
0.7781,65.319
0.75367,64.733
0.72825,64.342
0.70186,63.95
0.67937,63.559
0.65787,62.973
0.63636,62.582
0.61584,61.995
0.59629,61.408
0.57771,60.821
0.56207,60.43
0.54839,59.844
0.53568,59.257
0.52395,58.866
0.51417,58.279
0.50538,57.888
0.49756,57.497
0.49169,57.106
0.48485,56.91
0.47898,56.715
0.47312,56.519
0.46725,56.715
0.46237,57.301
0.4565,58.67
0.45064,61.408
0.44575,65.515
0.43988,71.186
0.43402,77.836
0.42815,84.876
0.42229,91.721
0.4174,98.37
0.41153,104.63
0.40567,109.91
0.3998,114.21
0.39394,117.34
0.38807,119.1
0.38221,119.49
0.37537,119.1
0.3695,117.73
0.36266,115.78
0.35679,113.43
0.35191,110.5
0.34702,107.37
0.34115,103.85
0.33529,100.13
0.32942,96.024
0.32356,91.917
0.31769,87.81
0.31183,84.094
0.30694,80.574
0.30108,77.64
0.29521,75.098
0.28935,73.142
0.28543,71.578
0.28348,70.404
0.28348,69.426
0.28641,68.84
0.29619,68.253
0.31183,68.057
0.33627,68.057
0.3695,68.057
0.40958,68.057
0.45455,68.253
0.50342,68.449
0.55132,68.644
0.59824,68.84
0.63636,68.84
0.66667,68.84
0.69697,68.84
0.72336,68.84
0.74585,68.644
0.76149,68.253
0.77322,68.057
0.7781,67.666
0.7781,67.275
0.77322,66.884
0.76442,66.493
0.74976,66.102
0.73216,65.711
0.71261,65.124
0.69306,64.733
0.6696,64.342
0.64418,63.95
0.61779,63.364
0.59238,62.973
0.56794,62.386
0.54448,61.995
0.52297,61.408
0.50342,60.821
0.48583,60.43
0.47019,59.844
0.45846,59.257
0.44868,58.67
0.43891,58.279
0.43109,57.888
0.42326,57.301
0.41642,56.91
0.41056,56.715
0.40567,56.323
0.40078,56.128
0.39589,56.128
0.39198,56.128
0.3871,56.519
0.38319,57.497
0.38025,59.257
0.37732,62.386
0.37341,66.884
0.36852,72.555
0.36461,78.814
0.35973,85.267
0.35582,91.33
0.35093,97.197
0.34604,102.48
0.34213,106.98
0.33724,110.3
0.33138,112.45
0.32747,113.62
0.32454,113.62
0.32063,112.84
0.31574,111.28
0.31085,108.93
0.30596,106.39
0.3001,103.26
0.29521,99.935
0.29032,96.219
0.28446,92.112
0.27957,88.005
0.27468,84.094
0.26979,80.574
0.26686,77.445
0.26393,74.707
0.26002,72.36
0.25611,70.6
0.2522,69.035
0.24927,67.862
0.24731,67.08
0.24927,66.493
0.25709,66.102
0.26979,65.906
0.2913,65.906
0.31965,65.906
0.35093,65.906
0.38416,65.906
0.42424,66.102
0.46921,66.493
0.51515,66.688
0.55816,66.688
0.59824,66.884
0.63441,66.688
0.66373,66.688
0.68817,66.493
0.70577,66.297
0.71848,66.102
0.70088,65.906
0.66667,65.515
0.64614,65.319
0.63148,64.928
0.61779,64.537
0.60215,64.146
0.58553,63.755
0.56794,63.168
0.54839,62.973
0.52786,62.386
0.50831,61.995
0.48876,61.604
0.47019,61.017
0.45455,60.626
0.44086,60.039
0.42815,59.648
0.41544,59.061
0.40371,58.67
0.39394,58.083
0.38514,57.692
0.37732,57.106
0.37146,56.715
0.36559,56.323
0.36168,55.932
0.35777,55.541
0.35386,55.346
0.35191,55.15
0.34995,55.15
0.348,55.346
0.34604,55.932
0.34311,57.301
0.34115,59.648
0.33822,63.559
0.33529,68.644
0.33236,74.707
0.32942,81.16
0.32649,87.419
0.32356,93.677
0.3216,99.348
0.31965,104.24
0.31769,108.15
0.31476,111.08
0.31183,112.84
0.3089,113.23
0.30499,113.04
0.30205,111.86
0.29912,110.1
0.29521,107.76
0.29228,105.02
0.28837,101.89
0.28543,98.37
0.2825,94.655
0.28055,90.548
0.27761,86.636
0.2737,82.921
0.27077,79.596
0.26784,76.662
0.26393,73.924
0.261,71.969
0.25709,70.209
0.25513,68.84
0.25318,67.666
0.25415,66.884
0.25709,66.297
0.26393,66.102
0.27566,65.906
0.29326,65.906
0.31769,65.906
0.348,65.906
0.38221,65.906
0.42033,66.102
0.45846,66.297
0.49658,66.493
0.53177,66.493
0.56305,66.493
0.59042,66.493
0.60997,66.493
0.62463,66.297
0.63636,66.102
0.64614,65.906
0.65103,65.515
0.652,65.124
0.64809,64.733
0.64125,64.537
0.62952,64.146
0.61584,63.755
0.59824,63.364
0.57967,62.973
0.56207,62.582
0.54545,62.19
0.5259,61.604
0.50733,61.213
0.48876,60.821
0.47019,60.235
0.45455,59.844
0.43988,59.257
0.4262,58.866
0.41447,58.279
0.40469,57.888
0.39589,57.301
0.38905,56.91
0.38416,56.519
0.3783,55.932
0.37439,55.541
0.3695,55.346
0.36657,55.15
0.36266,54.954
0.3607,55.15
0.35777,55.346
0.35484,56.519
0.35191,58.279
0.34897,61.604
0.34604,66.493
0.34409,72.36
0.34213,78.814
0.34018,85.463
0.33724,91.721
0.33431,97.588
0.33138,102.87
0.32845,107.17
0.32551,110.5
0.3216,112.84
0.31867,113.82
0.31574,113.82
0.31183,113.04
0.30987,111.67
0.30694,109.52
0.30401,106.98
0.30108,104.24
0.29717,100.91
0.29326,97.393
0.28935,93.481
0.28543,89.57
0.28152,85.658
0.27859,81.943
0.27468,78.618
0.27077,75.685
0.26784,73.338
0.26588,71.382
0.26393,69.622
0.26197,68.449
0.261,67.471
0.26197,66.688
0.26686,66.297
0.27761,65.906
0.29423,65.906
0.31672,65.711
0.34604,65.906
0.38123,65.906
0.41935,65.906
0.45455,66.102
0.4868,66.297
0.52102,66.493
0.55523,66.493
0.58651,66.493
0.6129,66.493
0.63539,66.493
0.65298,66.297
0.66471,65.906
0.67253,65.711
0.67546,65.319
0.67351,64.928
0.66764,64.537
0.65885,64.146
0.64809,63.755
0.63343,63.364
0.61584,62.973
0.59629,62.582
0.57576,62.19
0.55425,61.799
0.53275,61.408
0.51222,60.821
0.49267,60.43
0.47507,60.039
0.45846,59.452
0.44477,58.866
0.43402,58.475
0.42326,57.888
0.41349,57.497
0.40469,56.91
0.39589,56.715
0.38905,56.128
0.38319,55.737
0.3783,55.346
0.37439,54.954
0.37048,54.759
0.36657,54.759
0.36364,54.954
0.36168,55.541
0.35973,56.91
0.35777,59.452
0.35484,63.559
0.35191,69.231
0.34897,75.88
0.34506,82.529
0.34213,89.179
0.3392,95.632
0.33627,101.5
0.33236,106.58
0.32942,110.5
0.32649,113.43
0.32454,115.19
0.3216,115.78
0.31867,115.38
0.31476,114.21
0.31085,112.65
0.30792,110.3
0.30401,107.76
0.3001,104.82
0.29619,101.69
0.29228,98.175
0.28935,94.263
0.28543,90.352
0.2825,86.245
0.28055,82.529
0.27761,79.205
0.27468,76.271
0.27077,73.729
0.26686,71.773
0.26393,70.209
0.26197,68.84
0.261,68.057
0.26491,67.471
0.27273,67.08
0.28837,66.884
0.30596,66.688
0.32845,66.688
0.35875,66.884
0.39589,67.08
0.43597,67.08
0.47898,67.275
0.52102,67.471
0.56012,67.471
0.59629,67.666
0.62757,67.666
0.65298,67.471
0.67351,67.471
0.68915,67.275
0.69795,67.08
0.70186,66.688
0.70381,66.297
0.70186,65.906
0.69599,65.711
0.68622,65.319
0.67253,64.928
0.65591,64.537
0.63734,64.146
0.61584,63.755
0.59335,63.364
0.57087,62.973
0.55034,62.582
0.53177,62.19
0.51222,61.604
0.49365,61.213
0.47605,60.821
0.46041,60.235
0.44966,59.844
0.44282,59.257
0.435,58.866
0.4262,58.279
0.41838,58.083
0.41153,57.497
0.40567,57.106
0.40078,56.91
0.39687,56.519
0.39296,56.323
0.38905,56.128
0.38612,56.519
0.38221,57.106
0.37928,58.866
0.37634,61.995
0.37341,66.493
0.37048,72.555
0.36755,79.4
0.36364,86.245
0.36168,93.09
0.35875,99.544
0.35679,105.22
0.35386,110.1
0.35093,113.82
0.34702,116.36
0.34409,117.73
0.34018,117.93
0.33724,117.54
0.33333,116.17
0.3304,114.41
0.32649,112.26
0.32356,109.71
0.32063,106.98
0.31867,103.85
0.31672,100.33
0.31378,96.806
0.30987,92.894
0.30694,88.983
0.30401,85.267
0.30108,81.943
0.29814,79.009
0.29521,76.662
0.29228,74.707
0.29032,72.947
0.28935,71.773
0.2913,70.795
0.29619,70.209
0.30694,69.818
0.32356,69.622
0.34897,69.426
0.38123,69.426
0.42131,69.622
0.46628,69.818
0.51417,69.818
0.56305,70.013
0.60997,70.013
0.64809,70.013
0.67937,70.013
0.71065,70.013
0.739,69.818
0.76246,69.426
0.78104,69.035
0.79374,68.84
0.80156,68.449
0.8045,68.057
0.80254,67.666
0.7957,67.275
0.78495,66.884
0.77028,66.493
0.75367,65.906
0.73607,65.515
0.71457,64.928
0.69208,64.537
0.66764,63.95
0.64418,63.559
0.62072,62.973
0.59824,62.386
0.57674,61.799
0.55816,61.213
0.54057,60.626
0.5259,60.039
0.5132,59.648
0.50342,59.061
0.49365,58.67
0.48485,58.279
0.47801,57.888
0.47116,57.497
0.4653,57.106
0.46041,56.715
0.4565,56.323
0.45259,56.128
0.44868,56.323
0.44477,56.715
0.44086,58.279
0.43695,61.017
0.43402,65.515
0.43011,71.578
0.4262,78.618
0.42131,85.854
0.4174,92.894
0.41349,99.544
0.4086,105.8
0.40469,110.89
0.3998,114.99
0.39589,117.73
0.39101,119.3
0.3871,119.49
0.38416,119.1
0.38025,117.73
0.37634,115.97
0.37146,113.82
0.36657,111.28
0.36168,108.54
0.35679,105.41
0.35288,102.09
0.348,98.37
0.34311,94.459
0.3392,90.548
0.33529,86.636
0.33138,82.921
0.32845,79.791
0.32454,76.858
0.32063,74.707
0.31574,72.751
0.31183,71.382
0.30987,70.209
0.31183,69.426
0.31867,68.84
0.33431,68.449
0.35679,68.253
0.38905,68.253
0.42131,68.253
0.45552,68.253
0.49756,68.449
0.5435,68.449
0.58944,68.644
0.63245,68.644
0.67058,68.644
0.70381,68.449
0.73118,68.253
0.75269,68.057
0.76735,67.666
0.77713,67.471
0.78201,66.884
0.78104,66.493
0.77615,65.906
0.76833,65.515
0.7566,65.124
0.74096,64.537
0.72239,64.146
0.70088,63.755
0.67644,63.168
0.65103,62.777
0.62366,62.386
0.59726,61.995
0.57087,61.408
0.54839,61.017
0.52884,60.626
0.50929,60.039
0.48974,59.648
0.47214,59.061
0.4565,58.475
0.44282,58.083
0.43109,57.497
0.42033,57.106
0.41056,56.715
0.40274,56.128
0.39589,55.737
0.39003,55.346
0.38612,54.954
0.38221,54.759
0.3783,54.563
0.37439,54.563
0.3695,54.954
0.36559,55.932
0.3607,57.888
0.35582,61.604
0.35191,66.688
0.34702,73.142
0.34213,80.183
0.33724,87.223
0.33333,93.872
0.3304,99.935
0.32649,105.41
0.32258,109.71
0.31867,112.84
0.31378,114.6
0.30987,115.38
0.30499,115.38
0.30108,114.41
0.29619,112.84
0.29228,110.69
0.28739,108.34
0.28348,105.61
0.28055,102.48
0.27761,98.957
0.27468,95.241
0.27077,91.33
0.26588,87.419
0.26197,83.703
0.25806,80.183
0.25415,77.054
0.25024,74.511
0.24536,72.36
0.24242,70.6
0.23949,69.035
0.23851,68.057
0.23949,67.275
0.24438,66.688
0.25415,66.297
0.27175,66.102
0.29814,66.102
0.33236,65.906
0.37341,66.102
0.41935,66.102
0.46823,66.102
0.51613,66.297
0.56207,66.297
0.60313,66.297
0.63441,66.297
0.65885,66.297
0.68133,66.102
0.6999,65.906
0.71359,65.515
0.72239,65.124
0.7263,64.733
0.72434,64.342
0.7175,63.95
0.70772,63.559
0.69306,62.973
0.67449,62.582
0.65591,62.19
0.63636,61.799
0.6129,61.408
0.58847,61.017
0.56305,60.43
0.53763,60.039
0.5132,59.648
0.49071,59.061
0.47019,58.67
0.45064,58.279
0.43402,57.692
0.41935,57.301
0.40665,56.715
0.39687,56.323
0.38807,55.737
0.38025,55.346
0.37341,54.954
0.36755,54.563
0.36168,54.172
0.35679,53.781
0.35191,53.585
0.348,53.39
0.34506,53.194
0.34115,53.39
0.33822,53.977
0.33529,55.541
0.33431,58.279
0.33138,62.386
0.32942,67.666
0.32551,73.924
0.32258,80.574
0.31965,86.832
0.31574,92.894
0.31183,98.175
0.3089,102.67
0.30499,106.19
0.30205,108.54
0.29814,109.91
0.29619,110.3
0.29423,109.91
0.2913,108.74
0.28837,106.98
0.28543,104.63
0.28152,101.89
0.27859,98.957
0.27468,95.632
0.27175,91.917
0.26784,88.201
0.26491,84.289
0.261,80.769
0.25904,77.445
0.25709,74.511
0.25513,71.969
0.2522,69.818
0.24927,68.253
0.24633,66.884
0.24438,65.906
0.24438,65.124
0.24633,64.537
0.25318,64.342
0.26588,64.146
0.28543,63.95
0.30792,63.95
0.33333,64.146
0.36657,64.146
0.40371,64.146
0.44379,64.342
0.48387,64.342
0.52199,64.342
0.55621,64.342
0.58553,64.342
0.60997,64.146
0.62952,63.95
0.64418,63.559
0.65298,63.168
0.65689,62.973
0.65689,62.582
0.65298,62.19
0.64614,61.604
0.63539,61.408
0.6217,61.017
0.60508,60.626
0.58553,60.235
0.565,59.844
0.54448,59.452
0.52297,59.061
0.50244,58.67
0.48387,58.279
0.46823,57.888
0.45259,57.497
0.43695,56.91
0.42229,56.519
0.40958,56.128
0.39785,55.541
0.38807,55.15
0.38025,54.759
0.37243,54.368
0.36657,53.977
0.36168,53.585
0.35679,53.194
0.35386,52.803
0.35191,52.608
0.34897,52.412
0.34604,52.412
0.34311,52.803
0.34115,53.585
0.33822,55.346
0.33529,58.475
0.33236,62.973
0.32942,68.84
0.32551,75.098
0.32258,81.552
0.32063,87.614
0.31867,93.286
0.31672,98.37
0.31378,102.48
0.31085,105.61
0.3089,107.56
0.30596,108.54
0.30303,108.74
0.3001,107.95
0.29619,106.78
0.29326,104.82
0.29032,102.67
0.28739,99.935
0.28446,96.806
0.2825,93.481
0.28055,89.961
0.27761,86.245
0.27468,82.529
0.27175,79.009
0.26882,75.685
0.26588,73.142
0.26197,70.6
0.25904,68.84
0.25611,67.275
0.25415,66.102
0.25318,65.124
0.25415,64.537
0.25709,64.146
0.26491,63.755
0.27761,63.559
0.29717,63.559
0.32454,63.364
0.35679,63.559
0.39394,63.559
0.43402,63.755
0.47507,63.755
0.51417,63.755
0.55034,63.755
0.57869,63.755
0.60117,63.559
0.62268,63.559
0.64027,63.168
0.65396,62.973
0.66276,62.777
0.66667,62.386
0.66667,61.995
0.66276,61.604
0.65396,61.213
0.64223,60.821
0.62757,60.43
0.61193,60.039
0.59531,59.648
0.57576,59.257
0.55621,58.866
0.5347,58.475
0.51417,58.083
0.49462,57.692
0.47507,57.301
0.45846,56.91
0.44282,56.323
0.42815,55.932
0.41642,55.541
0.40567,55.15
0.39687,54.563
0.39003,54.172
0.38416,53.781
0.3783,53.39
0.37243,52.999
0.36852,52.608
0.36461,52.216
0.3607,52.021
0.35777,52.021
0.35484,52.021
0.35288,52.412
0.34995,53.585
0.34702,55.737
0.34506,59.452
0.34311,64.537
0.34018,70.6
0.33724,77.249
0.33333,83.703
0.3304,89.961
0.32747,95.632
0.32454,100.52
0.3216,104.43
0.31867,107.37
0.31574,109.13
0.31281,109.91
0.31085,109.91
0.3089,108.93
0.30596,107.56
0.30303,105.61
0.3001,103.46
0.29619,100.72
0.29326,97.784
0.29032,94.263
0.28641,90.743
0.28348,87.027
0.27957,83.312
0.27664,79.596
0.27468,76.467
0.27273,73.533
0.27077,71.186
0.26784,69.035
0.26491,67.471
0.26197,66.297
0.26002,65.319
0.261,64.733
0.26588,64.342
0.27566,63.95
