0.38905,85.854
0.38612,82.529
0.38319,79.4
0.37928,76.467
0.37634,73.533
0.37341,71.186
0.37146,69.035
0.37243,67.08
0.37634,65.515
0.38612,64.146
0.39883,63.168
0.41642,62.386
0.43988,61.604
0.47019,61.213
0.50342,61.017
0.53763,60.821
0.57087,60.626
0.60117,60.821
0.62854,60.821
0.65103,61.017
0.66862,61.213
0.68328,61.408
0.69306,61.408
0.69892,61.604
0.70186,61.799
0.70283,61.799
0.70186,61.799
0.69892,61.799
0.69306,61.799
0.68524,61.799
0.67644,61.604
0.66471,61.408
0.652,61.408
0.63832,61.213
0.62268,60.821
0.60899,60.626
0.59531,60.43
0.58162,60.039
0.56794,59.648
0.55425,59.257
0.54252,58.866
0.53177,58.475
0.52297,58.083
0.51515,57.497
0.50831,57.106
0.50244,56.519
0.49853,56.128
0.49462,55.737
0.49267,55.15
0.48974,54.759
0.4868,54.368
0.48485,53.977
0.48192,53.585
0.47996,53.194
0.47898,52.803
0.47703,52.608
0.47605,52.216
0.4741,52.216
0.47312,52.216
0.47116,52.412
0.47116,53.194
0.47019,54.759
0.46921,57.301
0.46725,61.017
0.4653,65.515
0.46237,70.6
0.46041,76.076
0.45748,81.16
0.45552,86.245
0.45259,90.939
0.44966,95.241
0.44673,98.761
0.44379,101.69
0.44184,103.65
0.43891,104.63
0.43597,104.82
0.42522,104.43
0.41056,103.65
0.40078,102.09
0.39296,100.33
0.38612,98.37
0.38025,95.828
0.37537,93.286
0.37048,90.352
0.36657,87.223
0.36461,83.898
0.36168,80.769
0.35679,77.445
0.35288,74.511
0.34995,71.773
0.34702,69.426
0.34702,67.275
0.34897,65.515
0.35484,63.95
0.36657,62.777
0.38612,61.604
0.41251,60.821
0.44086,60.43
0.47116,60.039
0.50929,59.844
0.54936,59.648
0.59042,59.648
0.62854,59.648
0.66276,59.844
0.69208,59.844
0.71652,60.039
0.73412,60.43
0.74682,60.626
0.75562,60.626
0.75855,60.821
0.75855,61.017
0.7566,61.213
0.75171,61.213
0.74487,61.213
0.73509,61.017
0.72336,61.017
0.70968,60.821
0.69404,60.821
0.67546,60.626
0.65689,60.43
0.63636,60.039
0.61486,59.844
0.59726,59.452
0.58162,59.257
0.56598,58.67
0.54936,58.279
0.53568,57.888
0.52297,57.497
0.51222,56.91
0.50244,56.519
0.49462,56.128
0.48778,55.541
0.48192,55.15
0.47605,54.563
0.47312,54.172
0.47116,53.781
0.46921,53.194
0.46725,52.803
0.4653,52.412
0.46432,52.216
0.46237,52.021
0.46041,51.825
0.45846,51.825
0.4565,51.825
0.45357,52.412
0.45064,53.585
0.4477,55.541
0.44575,58.67
0.44379,62.973
0.44184,67.666
0.43891,72.751
0.43695,78.031
0.43402,83.116
0.43109,87.81
0.42913,92.308
0.4262,96.024
0.42229,99.153
0.41838,101.3
0.41447,102.67
0.41153,103.46
0.4086,103.26
0.40567,102.48
0.40176,101.3
0.39687,99.544
0.39198,97.588
0.38612,95.437
0.38123,92.894
0.37634,89.961
0.37146,87.027
0.36657,83.703
0.36168,80.574
0.35679,77.445
0.35386,74.316
0.35191,71.578
0.34897,69.231
0.34604,67.08
0.34506,65.319
0.348,63.755
0.35582,62.582
0.3695,61.604
0.39198,60.821
0.42131,60.235
0.45748,59.844
0.49756,59.452
0.53568,59.257
0.57087,59.257
0.60899,59.257
0.64516,59.452
0.67742,59.648
0.70577,59.844
0.72825,59.844
0.74585,60.039
0.75855,60.235
0.76637,60.43
0.77126,60.626
0.77224,60.626
0.77028,60.626
0.7654,60.626
0.75855,60.626
0.74878,60.626
0.73705,60.43
0.72239,60.43
0.70577,60.039
0.68719,59.844
0.66862,59.648
0.64907,59.257
0.6305,59.061
0.61193,58.67
0.59531,58.279
0.58162,57.888
0.56989,57.497
0.55718,56.91
0.54643,56.519
0.53666,56.128
0.52688,55.737
0.52004,55.346
0.5132,54.954
0.50831,54.368
0.50342,53.977
0.49951,53.585
0.49658,52.999
0.49462,52.608
0.49267,52.216
0.49169,52.021
0.49071,51.63
0.48974,51.63
0.48876,51.434
0.48778,51.63
0.48583,52.216
0.48485,53.194
0.48192,55.346
0.47996,58.279
0.47703,62.582
0.4741,67.471
0.47312,72.751
0.47116,78.031
0.46921,83.312
0.46725,88.201
0.46432,92.699
0.46139,96.61
0.45846,99.544
0.45455,101.89
0.45064,103.26
0.44575,103.85
0.44086,103.65
0.43597,102.87
0.43109,101.69
0.42717,99.935
0.42522,97.979
0.42131,95.632
0.41642,93.09
0.41153,90.352
0.40762,87.419
0.40274,84.094
0.39883,80.769
0.39492,77.64
0.39101,74.707
0.38612,71.773
0.38319,69.426
0.38123,67.275
0.38123,65.319
0.38319,63.755
0.39003,62.386
0.40371,61.408
0.42424,60.626
0.45259,60.039
0.48778,59.648
0.52884,59.452
0.57185,59.257
0.61584,59.061
0.65885,59.061
0.69795,59.257
0.72923,59.452
0.75367,59.648
0.7781,59.844
0.79863,59.844
0.81427,60.039
0.826,60.235
0.83382,60.235
0.83675,60.235
0.83675,60.235
0.83382,60.235
0.82796,60.235
0.82014,60.039
0.81036,60.039
0.79863,59.844
0.78397,59.648
0.76735,59.257
0.74878,59.061
0.72923,58.67
0.71065,58.279
0.6911,57.888
0.67351,57.497
0.65689,56.91
0.64125,56.519
0.62659,56.128
0.61486,55.541
0.60508,55.15
0.59629,54.759
0.58749,54.172
0.57967,53.781
0.5738,53.39
0.56891,52.803
0.565,52.412
0.56109,52.021
0.55816,51.63
0.55621,51.239
0.55327,50.847
0.55034,50.652
0.54839,50.456
0.54741,50.456
0.54448,50.456
0.54252,51.043
0.53959,52.216
0.53666,54.172
0.53372,57.301
0.52981,61.604
0.5259,66.688
0.52199,72.164
0.51808,77.445
0.51417,82.725
0.51124,87.81
0.50831,92.503
0.5044,96.61
0.49951,99.739
0.49462,102.09
0.48974,103.46
0.48387,104.04
0.47801,104.04
0.47214,103.26
0.4653,102.09
0.45943,100.33
0.43011,98.37
0.39003,96.219
0.36852,93.677
0.35582,90.939
0.348,88.005
0.34115,84.876
0.33627,81.747
0.33138,78.618
0.32551,75.685
0.32063,72.947
0.31476,70.404
0.31085,68.253
0.3089,66.297
0.30987,64.733
0.31574,63.364
0.32747,62.386
0.34604,61.604
0.37341,61.213
0.4086,60.821
0.44966,60.626
0.49462,60.43
0.54057,60.626
0.58553,60.626
0.62757,60.821
0.66471,61.213
0.69697,61.408
0.72434,61.604
0.74389,61.799
0.7566,61.995
0.76735,62.19
0.77419,62.386
0.7781,62.386
0.77908,62.386
0.77615,62.386
0.77126,62.386
0.76246,62.386
0.75171,62.386
0.73803,62.19
0.72141,61.995
0.70479,61.799
0.68817,61.408
0.66862,61.213
0.64907,60.821
0.62952,60.43
0.60997,60.039
0.59238,59.648
0.57576,59.061
0.56012,58.67
0.54643,58.279
0.5347,57.888
0.52297,57.301
0.51417,56.91
0.50733,56.519
0.50244,55.932
0.49756,55.541
0.49365,55.15
0.49071,54.759
0.48778,54.368
0.48583,53.977
0.48387,53.781
0.48192,53.585
0.47996,53.39
0.47801,53.39
0.47605,53.781
0.47507,54.759
0.47312,56.519
0.47019,59.452
0.46725,63.559
0.46334,68.644
0.46041,74.12
0.4565,79.791
0.45259,85.463
0.44868,90.548
0.44379,95.437
0.43988,99.544
0.435,102.67
0.43011,105.22
0.42717,106.78
0.42522,107.37
0.42131,107.37
0.41642,106.78
0.41056,105.61
0.40567,104.04
0.40078,102.09
0.39589,99.935
0.39101,97.588
0.38612,95.046
0.38123,92.112
0.37634,88.983
0.37243,85.854
0.3695,82.725
0.36559,79.4
0.36168,76.467
0.35679,73.533
0.35288,71.186
0.35093,69.035
0.35288,67.275
0.35875,65.711
0.37243,64.342
0.39394,63.364
0.42326,62.777
0.46041,62.19
0.49658,61.799
0.53372,61.604
0.57576,61.604
0.61975,61.604
0.6608,61.799
0.69892,61.995
0.73216,62.19
0.75953,62.386
0.78006,62.582
0.79472,62.777
0.8045,62.777
0.81036,62.973
0.81232,62.973
0.81036,62.973
0.80645,62.973
0.80059,62.777
0.79179,62.777
0.78104,62.582
0.76833,62.386
0.75269,62.19
0.73412,61.995
0.71457,61.604
0.69404,61.213
0.67351,60.821
0.65298,60.43
0.63539,60.039
0.61975,59.648
0.60411,59.061
0.58944,58.67
0.57576,58.083
0.56305,57.692
0.5523,57.106
0.5435,56.715
0.53568,56.128
0.52786,55.737
0.52199,55.346
0.51613,54.759
0.51222,54.368
0.50929,53.977
0.50635,53.585
0.50342,53.194
0.50049,52.803
0.49756,52.608
0.49462,52.412
0.49169,52.412
0.48876,52.608
0.48485,53.585
0.48094,55.15
0.47801,58.083
0.4741,62.19
0.47019,67.275
0.46725,72.947
0.46334,78.814
0.45846,84.681
0.45455,90.352
0.44966,95.437
0.44477,99.935
0.43988,103.65
0.435,106.39
0.42913,108.34
0.42326,109.32
0.4174,109.52
0.41349,108.93
0.40958,107.76
0.40469,106.19
0.3998,104.43
0.39394,102.28
0.38807,99.739
0.38123,97.001
0.37537,94.068
0.3695,90.939
0.36364,87.419
0.35777,84.094
0.35191,80.574
0.34604,77.249
0.34213,74.12
0.34018,71.578
0.33822,69.035
0.33822,67.08
0.34213,65.515
0.35288,64.146
0.37146,63.168
0.39785,62.386
0.43304,61.799
0.4741,61.408
0.51906,61.408
0.56598,61.213
0.60508,61.408
0.6393,61.408
0.67351,61.604
0.70479,61.799
0.73216,61.995
0.75464,62.19
0.77126,62.386
0.78299,62.582
0.78983,62.777
0.79277,62.973
0.79179,62.973
0.78788,62.973
0.78104,62.973
0.77224,62.777
0.76051,62.777
0.74585,62.582
0.72923,62.386
0.71065,62.19
0.6911,61.799
0.6696,61.408
0.64809,61.213
0.62561,60.821
0.60508,60.43
0.58456,59.844
0.56598,59.452
0.55132,58.866
0.53861,58.475
0.5259,57.888
0.51417,57.497
0.5044,56.91
0.4956,56.519
0.48778,55.932
0.48094,55.541
0.47507,54.954
0.47019,54.563
0.4653,53.977
0.46139,53.781
0.45846,53.39
0.45552,52.999
0.45357,52.803
0.45064,52.608
0.4477,52.803
0.44477,52.999
0.44184,53.781
0.43891,55.541
0.43402,58.279
0.43011,62.386
0.4262,67.471
0.42229,73.142
0.41838,78.814
0.41544,84.681
0.41251,90.157
0.4086,95.437
0.40469,99.935
0.3998,103.46
0.39394,106.39
0.38807,108.15
0.38221,109.13
0.37634,109.32
0.37048,108.74
0.36461,107.56
0.35777,106
0.35386,104.04
0.34995,101.69
0.34506,99.153
0.3392,96.415
0.33333,93.286
0.31378,89.961
0.28641,86.441
0.26979,82.921
0.25904,79.596
0.25122,76.467
0.24536,73.533
0.24145,70.795
0.23949,68.644
0.24047,66.688
0.24536,65.124
0.25513,63.755
0.27077,62.777
0.29423,61.995
0.32551,61.604
0.36364,61.213
0.40567,61.213
0.44868,61.017
0.49169,61.213
0.53177,61.408
0.56794,61.604
0.59433,61.799
0.61486,62.19
0.63343,62.386
0.64809,62.777
0.65787,62.973
0.66373,62.973
0.66569,63.168
0.66471,63.168
0.65982,63.168
0.65298,63.168
0.64321,63.168
0.6305,62.973
0.61584,62.777
0.60117,62.582
0.58553,62.386
0.56696,61.995
0.54545,61.604
0.52395,61.408
0.50244,60.821
0.48094,60.43
0.46237,60.039
0.44477,59.452
0.42815,59.061
0.41447,58.475
0.40176,58.083
0.39198,57.497
0.38514,56.91
0.37732,56.519
0.37146,55.932
0.36559,55.541
0.3607,54.954
0.35679,54.563
0.35386,54.172
0.35191,53.781
0.34995,53.585
0.348,53.194
0.34702,52.999
0.34506,52.803
0.34409,52.999
0.34311,53.585
0.34115,54.759
0.3392,56.91
0.33724,60.43
0.33431,64.928
0.3304,70.404
0.32649,76.076
0.32258,81.943
0.31769,87.614
0.31378,93.09
0.31085,97.784
0.30792,101.89
0.30596,105.22
0.30303,107.56
0.29912,109.13
0.29423,109.71
0.28935,109.52
0.28446,108.74
0.27859,107.37
0.27273,105.61
0.26686,103.46
0.26002,101.11
0.25513,98.37
0.24927,95.437
0.24536,92.112
0.24242,88.788
0.23851,85.267
0.2346,81.552
0.23069,78.227
0.22678,75.098
0.22385,72.36
0.22092,70.013
0.22092,67.862
0.22385,66.102
0.23167,64.733
0.24536,63.559
0.26393,62.777
0.28641,62.19
0.31867,61.799
0.35679,61.604
0.39883,61.408
0.44282,61.604
0.48583,61.604
0.5259,61.995
0.56012,62.19
0.58944,62.582
0.6129,62.777
0.6305,63.168
0.64223,63.364
0.64907,63.559
0.65103,63.755
0.65103,63.755
0.64809,63.755
0.64223,63.755
0.63441,63.755
0.62366,63.559
0.60997,63.364
0.59433,63.168
0.57674,62.973
0.55816,62.777
0.53861,62.386
0.52004,61.995
0.50342,61.604
0.48485,61.213
0.46628,60.626
0.4477,60.235
0.43109,59.844
0.41642,59.257
0.40274,58.67
0.39198,58.279
0.38319,57.692
0.37537,57.301
0.37048,56.715
0.36559,56.323
0.36266,55.737
0.3607,55.346
0.35875,54.759
0.35679,54.368
0.35484,53.977
0.35386,53.781
0.35191,53.585
0.35093,53.39
0.34897,53.39
0.34702,53.781
0.34506,54.563
0.34311,56.323
0.34213,59.452
0.34018,63.559
0.33822,68.84
0.33529,74.707
0.33333,80.574
0.32942,86.636
0.32551,92.308
0.3216,97.588
0.31672,102.09
0.31281,105.8
0.30792,108.54
0.30401,110.3
0.29912,111.28
0.29521,111.28
0.29228,110.69
0.28739,109.52
0.28348,107.76
0.27859,105.8
0.27468,103.46
0.26979,100.91
0.26393,97.979
0.25904,94.85
0.25318,91.33
0.24829,87.81
0.24438,84.289
0.24047,80.769
0.23851,77.445
0.2346,74.511
0.23167,71.969
0.22972,69.622
0.23069,67.666
0.23558,65.906
0.24633,64.733
0.26491,63.755
0.29032,62.973
0.32454,62.582
0.36461,62.386
0.40176,62.19
0.43891,62.19
0.47898,62.386
0.51906,62.582
0.55621,62.777
0.58749,63.168
0.61388,63.364
0.63539,63.755
0.65103,63.95
0.6608,64.342
0.66667,64.342
0.6696,64.537
0.6696,64.537
0.66569,64.537
0.65982,64.537
0.652,64.342
0.64125,64.146
0.62757,63.95
0.6129,63.755
0.59433,63.364
0.57478,63.168
0.55425,62.777
0.53372,62.386
0.5132,61.995
0.49267,61.408
0.47507,61.017
0.46041,60.43
0.44575,59.844
0.43206,59.452
0.41935,58.866
0.4086,58.279
0.39883,57.888
0.39101,57.301
0.38514,56.91
0.38025,56.519
0.37732,55.932
0.37439,55.346
0.37341,54.954
0.37243,54.563
0.37146,54.172
0.37048,53.977
0.3695,53.781
0.36755,53.781
0.36657,53.977
0.36559,54.563
0.36364,56.128
0.36266,58.67
0.3607,62.582
0.35777,67.471
0.35484,73.338
0.35191,79.4
0.34897,85.463
0.34506,91.33
0.34115,96.806
0.33724,101.69
0.33236,105.61
0.32845,108.74
0.32356,110.89
0.31867,112.06
0.31378,112.45
0.3089,112.06
0.30401,111.08
0.29912,109.71
0.29521,107.76
0.29228,105.61
0.28739,103.06
0.28348,100.33
0.27761,97.197
0.27273,93.872
0.26784,90.548
0.26295,86.832
0.25806,83.312
0.25318,79.791
0.24829,76.662
0.25318,73.924
0.26393,71.382
0.27077,69.231
0.27761,67.471
0.28837,66.102
0.30596,64.928
0.33138,64.146
0.36461,63.559
0.40665,63.168
0.45259,63.168
0.50244,63.168
0.5523,63.168
0.59922,63.364
0.64125,63.755
0.67351,64.146
0.69892,64.537
0.72141,64.733
0.73998,65.124
0.75464,65.319
0.76442,65.515
0.77028,65.711
0.77322,65.906
0.77224,65.906
0.76833,65.906
0.76149,65.711
0.75269,65.711
0.74096,65.515
0.72825,65.319
0.71261,64.928
0.69404,64.537
0.67351,64.146
0.652,63.755
0.62952,63.364
0.60802,62.973
0.58749,62.386
0.56794,61.799
0.55034,61.408
0.5347,60.821
0.52004,60.43
0.50929,59.844
0.50049,59.452
0.49169,58.866
0.48485,58.475
0.47801,57.888
0.47312,57.301
0.46921,56.91
0.46628,56.519
0.46432,56.128
0.46237,55.541
0.46237,55.346
0.46139,55.15
0.46139,54.954
0.46139,55.15
0.46041,55.737
0.45943,57.106
0.45748,59.648
0.4565,63.364
0.45357,68.449
0.45064,74.12
0.44673,80.378
0.44184,86.636
0.43793,92.894
0.43304,98.37
0.42815,103.46
0.42424,107.56
0.42033,110.69
0.41642,112.84
0.41251,114.02
0.40665,114.21
0.40176,113.82
0.39589,112.84
0.39101,111.28
0.38514,109.32
0.38025,107.17
0.37537,104.63
0.3695,102.09
0.36559,99.153
0.36168,96.024
0.35679,92.503
0.35191,89.179
0.34702,85.658
0.34213,82.334
0.33724,79.009
0.33236,76.076
0.32942,73.533
0.32845,71.382
0.33236,69.426
0.34409,68.057
0.36266,66.884
0.38612,65.906
0.41544,65.515
0.45357,65.124
0.49951,64.928
0.55034,64.928
0.60117,65.124
0.65103,65.319
0.69599,65.515
0.73607,65.711
0.77028,65.906
0.79863,66.102
0.82111,66.102
0.83578,66.102
0.84457,66.102
0.85239,66.102
0.85728,66.102
0.86022,65.906
0.85924,65.906
0.85533,65.711
0.84848,65.515
0.83871,65.124
0.826,64.928
0.80938,64.537
0.79081,64.342
0.77126,63.95
0.75073,63.559
0.73216,63.168
0.71163,62.777
0.69208,62.386
0.67253,61.799
0.65494,61.213
0.6393,60.626
0.62561,60.039
0.6129,59.648
0.60215,59.061
0.59238,58.475
0.58456,58.083
0.57869,57.497
0.5738,56.91
0.57087,56.519
0.56794,55.932
0.56598,55.541
0.56403,55.15
0.56207,54.759
0.56012,54.368
0.55718,54.172
0.55425,54.172
0.55034,54.368
0.54545,55.15
0.54154,56.91
0.53763,59.844
0.5347,64.342
0.52981,69.818
0.52493,76.076
0.52004,82.334
0.51515,88.788
0.50929,94.85
0.5044,100.33
0.49951,105.02
0.49365,108.93
0.48778,111.86
0.48192,113.62
0.47703,114.6
0.47312,114.6
0.46725,114.02
0.46139,112.65
0.45552,111.08
0.44966,108.93
0.44379,106.78
0.43695,104.24
0.43011,101.3
0.42424,98.175
0.4174,94.85
0.41153,91.33
0.40665,87.81
0.40176,84.289
0.39492,80.769
0.38807,77.64
0.38221,74.707
0.3783,72.164
0.37634,70.013
0.38025,68.057
0.39198,66.688
0.41153,65.711
0.44086,64.733
0.47898,64.342
0.52493,63.95
0.56891,63.755
0.61193,63.755
0.65982,63.755
0.7087,63.95
0.75464,64.146
0.79472,64.537
0.82893,64.733
0.85728,64.928
0.87977,65.124
0.89736,65.319
0.91007,65.515
0.91887,65.515
0.9218,65.515
0.9218,65.515
0.92082,65.319
0.91691,65.124
0.91007,64.928
0.90029,64.733
0.88759,64.537
0.87292,64.146
0.85435,63.755
0.83382,63.364
0.81134,62.973
0.78886,62.582
0.7654,61.995
0.74487,61.408
0.7263,61.017
0.70772,60.43
0.69013,59.844
0.67351,59.452
0.65787,58.866
0.64321,58.279
0.63148,57.888
0.62072,57.301
0.61095,56.91
0.60313,56.323
0.59726,55.737
0.59238,55.346
0.58847,54.759
0.58456,54.368
0.58065,53.977
0.57674,53.781
0.57283,53.781
0.56891,53.781
0.565,53.977
0.56109,54.759
0.55621,56.519
0.55132,59.452
0.54545,63.95
0.53959,69.231
0.5347,75.293
0.52981,81.747
0.52395,87.81
0.51808,93.872
0.51222,99.153
0.50635,103.85
0.49853,107.76
0.49169,110.5
0.48289,112.26
0.47507,113.04
0.46823,113.04
0.46041,112.26
0.45357,110.89
0.4477,109.32
0.44086,107.17
0.43304,104.82
0.42424,102.09
0.41642,99.153
0.4086,96.024
0.40078,92.699
0.39296,88.983
0.38612,85.463
0.3783,81.747
0.37146,78.422
0.36461,75.293
0.35973,72.555
0.35679,70.209
0.35582,68.057
0.35777,66.493
0.36559,65.124
0.36852,64.342
0.37048,63.559
0.38905,63.168
0.4174,62.973
0.45161,62.973
0.48974,62.973
0.52981,62.973
0.56207,63.168
0.59042,63.559
0.61975,63.755
0.64712,64.146
0.67155,64.342
0.6911,64.537
0.70772,64.733
0.71945,64.928
0.72923,64.928
0.73509,64.928
0.73803,64.928
0.73803,64.733
0.73412,64.537
0.72923,64.342
0.72141,64.146
0.71163,63.755
0.69892,63.364
0.68524,62.973
0.6696,62.777
0.652,62.19
0.63539,61.799
0.61779,61.408
0.60117,60.821
0.58456,60.235
0.56891,59.844
0.55523,59.257
0.5435,58.67
0.53275,58.279
0.52199,57.692
0.51222,57.106
0.5044,56.715
0.49853,56.128
0.49267,55.737
0.48778,55.15
0.48387,54.759
0.47996,54.368
0.47605,53.977
0.47214,53.585
0.46921,53.39
0.46628,53.39
0.46237,53.39
0.45846,53.781
0.45552,55.15
0.45161,57.301
0.44868,61.017
0.44477,65.711
0.44086,71.382
0.43597,77.445
0.43206,83.703
0.42815,89.765
0.42424,95.241
0.42033,100.33
0.41544,104.43
0.40958,107.76
0.40371,110.1
0.39785,111.28
0.39198,111.67
0.38612,111.28
0.38025,110.3
0.37439,108.74
0.36852,106.78
0.36168,104.43
0.35582,101.89
0.35093,99.153
0.34604,96.024
0.34115,92.503
0.33529,88.983
0.3304,85.463
0.32454,81.943
0.31867,78.422
0.31281,75.293
0.30694,72.36
0.30303,70.013
0.3001,67.862
0.3001,66.102
0.30401,64.733
0.31183,63.755
0.32649,62.973
0.348,62.582
0.37634,62.19
0.41153,62.19
0.44966,62.19
0.48974,62.386
0.52981,62.582
0.56891,62.777
0.60508,63.168
0.63636,63.364
0.66471,63.755
0.68524,63.95
0.6999,63.95
0.71457,64.146
0.72532,64.342
0.73412,64.342
0.74096,64.342
0.74389,64.146
0.74487,63.95
0.74194,63.755
0.73705,63.364
0.72825,63.168
0.7175,62.973
0.70577,62.582
0.69208,62.19
0.67742,61.799
0.65982,61.408
0.64223,60.821
0.62463,60.235
0.60802,59.844
0.59238,59.257
0.57771,58.866
0.56403,58.279
0.55132,57.888
0.53959,57.301
0.53079,56.715
0.52297,56.323
0.51613,55.737
0.50929,55.346
0.50342,54.954
0.49853,54.368
0.49462,53.977
0.49071,53.585
0.4868,53.194
0.48289,52.999
0.47996,52.999
0.47703,52.999
0.47312,53.39
0.47019,54.368
0.46725,56.323
0.46334,59.648
0.45943,64.342
0.45552,69.818
0.45064,76.076
0.44673,82.334
0.44184,88.592
0.43597,94.263
0.43109,99.348
0.4262,103.85
0.42033,107.17
0.41447,109.71
0.40958,111.08
0.40469,111.86
0.39883,111.47
0.39198,110.69
0.38514,109.32
0.3783,107.37
0.37146,105.22
0.36461,102.87
0.35875,100.13
0.35191,97.001
0.34604,93.872
0.3392,90.352
0.33431,86.832
0.3304,83.312
0.32454,79.987
0.31867,76.662
0.31378,73.729
0.3089,71.186
0.30499,69.035
0.30303,67.08
0.30499,65.515
0.31281,64.342
0.32649,63.559
0.348,62.973
0.37146,62.582
0.39883,62.386
0.43402,62.386
0.47312,62.386
0.51515,62.582
0.55718,62.777
0.59629,62.973
0.63245,63.168
0.66569,63.559
0.69404,63.755
0.71848,63.95
0.73803,64.146
0.75464,64.146
0.7654,64.342
0.77224,64.342
0.77713,64.146
0.78006,63.95
0.78006,63.755
0.77713,63.559
0.77224,63.168
0.76344,62.973
0.75269,62.582
0.739,62.19
0.72434,61.604
0.70772,61.213
0.6911,60.821
0.67546,60.235
0.65982,59.648
0.64321,59.061
0.62659,58.67
0.61095,58.083
0.59629,57.692
0.5826,57.106
0.57087,56.519
0.56012,56.128
0.55132,55.541
0.5435,55.15
0.53666,54.563
0.53079,54.172
0.52493,53.781
0.52004,53.39
0.51613,52.999
0.51222,52.608
0.50733,52.412
0.50342,52.412
0.49853,52.608
0.49365,53.39
0.48974,55.15
0.48387,58.083
0.47898,62.386
0.4741,67.666
0.46921,73.729
0.46334,79.987
0.45748,86.245
0.45161,92.112
0.44575,97.393
0.43988,102.09
0.43304,105.61
0.42717,108.54
0.42033,110.1
0.41349,110.89
0.40665,110.89
0.39883,110.3
0.39296,108.93
0.3871,107.37
0.38123,105.41
0.37439,103.06
0.36755,100.52
0.35973,97.784
0.35288,94.85
0.34506,91.721
0.33822,88.201
0.33138,84.681
0.32454,81.16
0.31769,78.031
0.31281,74.902
0.3089,72.164
0.30401,69.818
0.30108,67.666
0.30108,66.102
0.30499,64.733
0.31574,63.755
0.33333,62.973
0.35777,62.582
0.39101,62.19
0.42815,62.19
0.47019,62.19
0.50342,62.19
0.5259,62.386
0.5523,62.582
0.58456,62.777
0.61779,62.973
0.65005,63.168
0.67937,63.364
0.70381,63.559
0.72532,63.559
0.74291,63.755
0.75758,63.755
0.76735,63.559
0.77419,63.559
0.77615,63.364
0.77517,63.168
0.77126,62.973
0.76442,62.582
0.75464,62.386
0.74291,61.995
0.72825,61.604
0.71163,61.213
0.69306,60.821
0.67351,60.235
0.65396,59.844
0.63441,59.452
0.61584,58.866
0.6002,58.475
0.58553,57.888
0.57087,57.497
0.55816,56.91
0.54643,56.519
0.53568,56.128
0.52493,55.541
0.51613,55.15
0.50831,54.759
0.50147,54.368
0.49462,53.977
0.48974,53.585
0.48485,53.194
0.47996,52.999
0.47507,52.999
0.47019,53.194
0.4653,53.781
0.46041,55.346
0.45455,58.083
0.44868,61.995
0.44282,67.275
0.43695,73.338
0.43109,79.596
0.42522,85.854
0.41838,91.917
0.41349,97.197
0.40762,101.89
0.40176,105.61
0.39589,108.54
0.38905,110.3
0.38123,111.08
0.37439,111.28
0.36657,110.69
0.35973,109.52
0.35191,107.95
0.34506,106.19
0.33724,104.04
0.33138,101.69
0.32649,99.153
0.31965,96.219
0.31281,93.286
0.30596,89.961
0.29814,86.636
0.2913,83.312
0.28348,79.791
0.27664,76.858
0.26979,74.12
0.26491,71.578
0.261,69.622
0.261,67.862
0.26491,66.493
0.2737,65.515
0.28935,64.537
0.31281,64.146
0.34311,63.755
0.38123,63.755
0.42326,63.755
0.47019,63.95
0.51711,64.146
0.56305,64.342
0.60606,64.537
0.64614,64.733
0.67644,64.928
0.70186,64.928
0.7263,65.124
0.74878,65.124
0.76833,65.124
0.78495,65.124
0.79765,64.928
0.80743,64.733
0.81329,64.537
0.81623,64.342
0.81525,64.146
0.81134,63.755
0.80352,63.364
0.79277,62.973
0.78006,62.582
0.7654,62.19
0.74878,61.604
0.73118,61.213
0.71163,60.821
0.69306,60.235
0.67449,59.844
0.65689,59.257
0.6393,58.866
0.62463,58.279
0.60997,57.888
0.59726,57.301
0.58651,56.91
0.57674,56.519
0.56794,55.932
0.56012,55.541
0.5523,55.15
0.54545,54.563
0.53959,54.172
0.53275,53.781
0.52688,53.39
0.52199,53.194
0.51613,52.999
0.51026,53.194
0.5044,54.172
0.49853,56.128
0.49267,59.452
0.4868,64.146
0.47996,70.013
0.4741,76.467
0.46725,82.725
0.46041,88.983
0.45455,94.85
0.4477,99.935
0.43988,104.24
0.43304,107.37
0.4262,109.71
0.41935,110.89
0.41251,111.28
0.40274,110.89
0.39394,109.91
0.38807,108.34
0.38025,106.58
0.37243,104.43
0.36461,102.28
0.35679,99.739
0.34897,97.001
0.34115,94.068
0.33333,90.939
0.32747,87.614
0.31965,84.289
0.31281,80.965
0.30499,77.836
0.29717,74.902
0.29032,72.164
0.28446,70.013
0.28055,68.057
0.28152,66.493
0.28739,65.319
0.3001,64.342
0.3216,63.755
0.34604,63.168
0.37439,62.973
0.41153,62.973
0.45455,62.973
0.50049,62.973
0.54741,63.168
0.59238,63.364
0.63343,63.559
0.67155,63.755
0.70577,63.755
0.73509,63.95
0.75953,63.95
0.77713,63.95
0.78983,63.755
0.80156,63.559
0.81036,63.364
0.8172,63.168
0.82111,62.777
0.82111,62.582
0.81818,62.19
0.81232,61.799
0.80254,61.408
0.78983,61.213
0.77419,60.626
0.7566,60.235
0.739,59.844
0.72141,59.452
0.70186,58.866
0.68133,58.475
0.6608,58.083
0.64223,57.497
0.62366,57.106
0.60704,56.519
0.5914,56.128
0.57771,55.541
0.565,55.15
0.55425,54.759
0.54448,54.172
0.53568,53.781
0.52688,53.39
0.51808,52.803
0.51026,52.412
0.50244,52.216
0.49365,51.825
0.4868,51.63
0.47898,51.63
0.47214,51.825
0.4653,52.608
0.45748,54.368
0.44966,57.497
0.44282,61.995
0.43597,67.471
0.42815,73.729
0.42033,80.183
0.41153,86.441
0.40274,92.112
0.39394,97.393
0.38612,101.69
0.37732,105.02
0.36852,107.37
0.3607,108.74
0.35191,109.32
0.34409,109.13
0.33822,108.34
0.3304,106.98
0.3216,105.41
0.31281,103.26
0.30303,101.11
0.29423,98.566
0.28543,96.024
0.27664,93.09
0.26882,90.157
0.26002,86.832
0.25122,83.507
0.2434,80.183
0.23656,76.858
0.23069,73.729
0.22385,71.186
0.21701,68.84
0.21212,66.884
0.21114,65.319
0.21408,64.146
0.22385,62.973
0.24047,62.386
0.26686,61.995
0.3001,61.604
0.3392,61.408
0.37634,61.408
0.41349,61.408
0.45552,61.604
0.49853,61.799
0.54057,61.995
0.57869,62.19
0.60215,62.386
0.61584,62.582
0.6305,62.582
0.64614,62.582
0.65885,62.582
0.6696,62.582
0.67742,62.386
0.68133,62.19
0.68231,61.995
0.68133,61.604
0.6784,61.408
0.67351,61.017
0.66569,60.821
0.65591,60.43
0.64321,60.039
0.62952,59.648
0.61388,59.061
0.59629,58.67
0.57967,58.083
0.56305,57.692
0.54936,57.106
0.53372,56.715
0.51906,56.128
0.50538,55.541
0.49267,55.15
0.48192,54.563
0.47116,54.172
0.46139,53.585
0.45357,53.194
0.44575,52.803
0.43793,52.216
0.43206,51.825
0.4262,51.434
0.42131,51.043
0.41642,50.847
0.41153,50.652
0.40665,50.652
0.40078,51.043
0.39589,52.021
0.39003,53.977
0.38514,57.106
0.37928,61.604
0.37341,67.08
0.36657,73.142
0.36168,79.205
0.35679,85.072
0.35191,90.352
0.34604,95.046
0.3392,99.153
0.33333,102.28
0.32649,104.43
0.31965,105.8
0.31281,106.19
0.30596,106
0.29912,105.22
0.29228,103.85
0.28641,102.09
0.28152,100.13
0.27566,97.784
0.26979,95.241
0.26295,92.699
0.25709,89.765
0.25024,86.636
0.24438,83.312
0.23851,79.987
0.23167,76.662
0.22581,73.729
0.21994,70.991
0.21408,68.644
0.21017,66.688
0.20821,64.928
0.20723,63.559
0.21017,62.582
0.21799,61.604
0.23167,61.213
0.25122,60.821
0.27761,60.626
0.30792,60.43
0.34311,60.626
0.37928,60.626
0.41544,60.821
0.44673,61.017
0.47312,61.213
0.50049,61.408
0.52688,61.408
0.55132,61.604
0.57185,61.604
0.58944,61.604
0.60411,61.604
0.61584,61.408
0.62366,61.408
0.62854,61.213
0.63148,60.821
0.6305,60.626
0.62757,60.43
0.6217,60.039
0.6129,59.844
0.60313,59.452
0.5914,58.866
0.57771,58.475
0.56305,58.083
0.54741,57.692
0.53177,57.106
0.51613,56.715
0.50049,56.128
0.4868,55.737
0.4741,55.346
0.46432,54.759
0.45357,54.368
0.44379,53.781
0.435,53.39
0.42717,52.803
0.41935,52.412
0.41251,52.021
0.40665,51.434
0.40176,51.043
0.39687,50.847
0.39198,50.456
0.3871,50.261
0.38319,50.261
0.38025,50.456
0.37439,51.043
0.3695,52.608
0.36559,55.15
0.3607,59.061
0.35582,64.146
0.35093,70.013
0.34604,76.076
0.34018,81.943
0.33431,87.614
0.32845,92.699
0.32356,97.001
0.31965,100.52
0.31476,103.06
0.3089,104.63
0.30401,105.61
0.29814,105.61
0.2913,105.02
0.28446,103.85
0.27957,102.48
0.27468,100.52
0.26686,98.37
0.26002,96.024
0.25513,93.481
0.25024,90.548
0.24731,87.419
0.24242,84.289
0.23754,80.965
0.23167,77.836
0.22678,74.707
0.22092,71.773
0.21603,69.231
0.21114,67.275
0.20723,65.319
0.20528,63.95
0.20723,62.777
0.2131,61.799
0.22287,61.213
0.23851,60.626
0.261,60.43
0.28935,60.43
0.3216,60.43
0.35777,60.43
0.39492,60.626
0.43206,60.821
0.46823,60.821
0.50147,61.017
0.53079,61.213
0.55816,61.408
0.5826,61.408
0.59824,61.604
0.60899,61.408
0.6217,61.408
0.63343,61.213
0.64027,61.017
0.64418,60.821
0.64418,60.626
0.64027,60.43
0.63636,60.235
0.62757,59.844
0.61486,59.452
0.60215,59.061
0.58847,58.67
0.57283,58.279
0.55718,57.692
0.54252,57.301
0.52688,56.91
0.51222,56.323
0.50244,55.737
0.49071,55.346
0.47703,54.759
0.4653,54.368
0.45455,53.977
0.44673,53.39
0.43988,52.999
0.43304,52.608
0.42717,52.216
0.42131,51.63
0.41642,51.239
0.41153,50.847
0.40762,50.652
0.40274,50.456
0.39883,50.261
0.39492,50.261
0.39003,50.652
0.38612,51.63
0.38221,53.781
0.37732,57.106
0.37243,61.799
0.36657,67.275
0.3607,73.338
0.35582,79.4
0.34995,85.267
0.34604,90.548
0.34115,95.241
0.33431,99.153
0.32747,102.09
0.3216,104.04
0.31672,105.22
0.31183,105.61
0.30694,105.41
0.30205,104.43
0.29619,103.26
0.29032,101.69
0.28348,99.739
0.27664,97.588
0.27077,95.046
0.26491,92.503
0.25904,89.57
0.25318,86.636
0.24829,83.312
0.24438,79.791
0.23949,76.662
0.2346,73.533
0.22874,70.795
0.22385,68.449
0.22092,66.493
0.21994,64.733
0.22385,63.364
0.23363,62.386
0.24927,61.604
0.27175,61.017
0.29912,60.626
0.32747,60.43
0.35679,60.43
0.39101,60.43
0.42717,60.626
0.46334,60.821
0.49853,60.821
0.53079,61.017
0.56012,61.213
0.58651,61.408
0.60997,61.408
0.62952,61.604
0.64614,61.408
0.67253,61.408
0.70381,61.408
0.72141,61.213
0.73118,61.017
0.73509,60.821
0.73509,60.626
0.73118,60.235
0.72434,59.844
0.71359,59.648
0.70186,59.257
0.68719,58.866
0.67253,58.279
0.65591,57.888
0.64027,57.497
0.62561,56.91
0.61095,56.519
0.59531,55.932
0.58065,55.541
0.56794,55.15
0.55523,54.563
0.54448,54.172
0.5347,53.585
0.52493,53.194
0.51711,52.803
0.50929,52.216
0.50342,51.825
0.49756,51.434
0.49169,51.043
0.4868,50.652
0.48192,50.261
0.47703,50.065
0.47214,50.065
0.46725,50.261
0.46237,50.847
0.45748,52.216
0.45161,55.15
0.44673,59.061
0.44184,64.537
0.43695,70.404
0.43206,76.662
0.4262,82.725
0.41935,88.396
0.41349,93.481
0.40762,97.784
0.40176,101.11
0.39492,103.65
0.38905,105.41
0.38221,106.19
0.37634,106.19
0.3695,105.61
0.36461,104.43
0.35973,103.06
0.35386,101.3
0.348,99.153
0.34213,97.001
0.33529,94.459
0.32747,91.721
0.32063,88.983
0.31476,85.854
0.30792,82.725
0.30108,79.596
0.29521,76.467
0.29032,73.533
0.28641,70.991
0.2825,68.84
0.27957,66.884
0.28055,65.319
0.28543,64.146
0.29717,63.168
0.31574,62.582
0.34018,61.995
0.37243,61.799
0.4086,61.604
0.4477,61.604
0.48876,61.604
0.52395,61.799
0.55523,61.799
0.58944,61.995
0.6217,62.19
0.65298,62.386
0.68035,62.386
0.70479,62.582
0.72532,62.582
0.74291,62.582
0.7566,62.582
0.76637,62.386
0.77322,62.19
0.77615,61.995
0.77517,61.604
0.77322,61.408
0.76833,61.017
0.76149,60.821
0.75171,60.43
0.73998,60.039
0.7263,59.648
0.71065,59.257
0.69501,58.67
0.6784,58.279
0.66178,57.888
0.64516,57.497
0.63148,56.91
0.61779,56.519
0.60508,55.932
0.59335,55.541
0.58162,55.15
0.57185,54.759
0.56305,54.172
0.55523,53.781
0.54839,53.39
0.54154,52.999
0.53568,52.608
0.53079,52.216
0.5259,51.825
0.52102,51.434
0.51515,51.239
0.51026,51.239
0.5044,51.63
0.49853,52.608
0.49267,54.759
0.48583,58.279
0.47898,62.973
0.47312,68.644
0.46725,74.902
0.46041,80.965
0.45455,86.832
0.44966,92.308
0.44575,97.001
0.43988,100.91
0.43402,103.65
0.42815,105.61
0.42131,106.78
0.41447,107.17
0.40762,106.78
0.43597,77.64
0.42913,83.507
0.42326,88.983
0.41838,93.872
0.41251,97.979
0.40665,101.3
0.3998,103.65
0.39296,105.22
0.38612,106
0.38025,106.19
0.37341,105.61
0.36657,104.82
0.35973,103.46
0.35288,101.89
0.34604,100.13
0.34018,97.979
0.33529,95.828
0.32942,93.286
0.32356,90.548
0.31769,87.614
0.31085,84.485
0.30499,81.356
0.29912,78.422
0.29326,75.489
0.28837,73.142
0.28348,70.795
0.28055,69.035
0.27957,67.471
0.28152,66.102
0.28739,65.319
0.29912,64.537
0.31672,64.146
0.34115,63.95
0.37048,63.755
0.40469,63.755
0.44184,63.755
0.48094,63.755
0.52102,63.755
0.55914,63.755
0.5914,63.95
0.61877,63.95
0.64809,64.146
0.67546,64.146
0.70088,63.95
0.72239,63.95
0.74194,63.755
0.75855,63.364
0.77126,63.168
0.78104,62.973
0.7869,62.777
0.78983,62.386
0.78886,62.19
0.78495,61.799
0.7781,61.408
0.76931,61.017
0.75758,60.626
0.74389,60.235
0.72923,59.844
0.71359,59.452
0.69697,58.866
0.68035,58.475
0.66471,58.083
0.65005,57.692
0.63539,57.301
0.62366,56.91
0.61193,56.519
0.60117,56.128
0.59042,55.541
0.58065,55.15
0.57087,54.759
0.56207,54.368
0.55327,53.781
0.54643,53.585
0.53861,53.194
0.53177,52.803
0.52493,52.608
0.51808,52.608
0.51222,52.803
0.50635,53.585
0.50049,55.346
0.49365,58.279
0.4868,62.777
0.47996,68.253
0.47312,74.316
0.46725,80.574
0.46041,86.441
0.45357,91.917
0.44673,96.61
0.43988,100.72
0.43402,103.85
0.42913,106.19
0.42326,107.56
0.41642,108.34
0.40958,108.34
0.40274,107.76
0.39589,106.78
0.39003,105.41
0.38319,103.85
0.37634,101.89
0.3695,99.935
0.36266,97.588
0.35582,95.046
0.35093,92.112
0.34604,89.179
0.34018,86.05
0.33431,82.725
0.32845,79.791
0.3216,76.858
0.31574,74.12
0.30987,71.969
0.30596,70.013
0.30499,68.253
0.30792,67.08
0.31672,66.102
0.32747,65.319
0.34409,64.733
0.36657,64.537
0.39687,64.342
0.43109,64.146
0.46823,64.146
0.50733,64.146
0.54643,64.342
0.58553,64.342
0.6217,64.342
0.65494,64.342
0.68426,64.342
0.71163,64.342
0.73216,64.146
0.7478,63.95
0.76344,63.755
0.77713,63.559
0.78788,63.168
0.79668,62.973
0.80156,62.582
0.8045,62.19
0.80352,61.799
0.79961,61.604
0.79277,61.213
0.78299,60.821
0.77224,60.43
0.75855,60.039
0.74389,59.648
0.72825,59.257
0.71163,58.67
0.69404,58.279
0.67742,57.888
0.6608,57.301
0.63441,56.91
0.60313,56.519
0.58162,56.128
0.56598,55.541
0.5523,55.15
0.54154,54.759
0.53275,54.172
0.52395,53.781
0.51613,53.39
0.50831,52.803
0.50049,52.412
0.49365,52.216
0.4868,51.825
0.47898,51.63
0.47214,51.63
0.4653,52.021
0.45846,52.999
0.45259,55.15
0.44673,58.475
0.43988,63.168
0.43304,69.035
0.4262,75.489
0.41935,81.747
0.41251,87.81
0.40567,93.286
0.39883,97.979
0.39198,101.69
0.38514,104.82
0.37928,106.78
0.37243,107.95
0.36657,108.54
0.3607,108.34
0.35484,107.56
0.348,106.39
0.34115,104.82
0.33431,103.06
0.32747,101.11
0.32063,98.761
0.31378,96.219
0.30694,93.481
0.3001,90.548
0.29423,87.614
0.28837,84.289
0.28446,81.16
0.27859,78.227
0.27273,75.293
0.26686,72.751
0.26197,70.6
0.25806,68.84
0.25611,67.275
0.25904,66.102
0.26686,65.124
0.28055,64.537
0.3001,64.146
0.32649,63.95
0.35288,63.755
0.38025,63.559
0.41251,63.559
0.4477,63.559
0.48387,63.755
0.51906,63.755
0.55132,63.755
0.58162,63.95
0.60997,63.95
0.63441,63.95
0.65591,63.755
0.67449,63.755
0.68719,63.559
0.69599,63.168
0.70479,62.973
0.71065,62.582
0.71457,62.386
0.71554,61.995
0.71359,61.604
0.7087,61.213
0.70088,60.821
0.6911,60.43
0.67937,60.039
0.66569,59.648
0.65005,59.257
0.63539,58.67
0.62072,58.279
0.60606,57.888
0.59042,57.301
0.57576,56.91
0.56109,56.519
0.54741,55.932
0.5347,55.541
0.52297,55.15
0.51222,54.563
0.50244,54.172
0.49365,53.781
0.48583,53.39
0.47898,52.803
0.47116,52.412
0.46432,52.216
0.45748,51.825
0.45064,51.63
0.44379,51.63
0.43695,51.825
0.43011,52.412
0.42424,53.977
0.4174,56.715
0.41056,60.821
0.40469,65.906
0.39883,71.969
0.39296,78.227
0.3871,84.094
0.38025,89.57
0.37439,94.459
0.36755,98.566
0.36168,101.89
0.35484,104.43
0.34897,106
0.34213,106.78
0.33529,106.78
0.32845,106.39
0.32356,105.41
0.31867,104.04
0.31281,102.48
0.30596,100.33
0.3001,98.175
0.29326,95.632
0.28641,92.894
0.28055,89.961
0.2737,86.832
0.26784,83.507
0.26197,80.183
0.25611,77.249
0.25122,74.316
0.24731,71.969
0.2434,69.818
0.23949,68.057
0.23754,66.493
0.23754,65.319
0.24242,64.537
0.2522,63.95
0.26784,63.364
0.28837,63.168
0.31574,62.973
0.34604,62.973
0.38025,62.973
0.41153,62.973
0.44086,63.168
0.47312,63.168
0.50538,63.168
0.53666,63.364
0.56598,63.364
0.5914,63.364
0.61486,63.168
0.63539,63.168
0.65298,62.973
0.66764,62.777
0.6784,62.386
0.68426,62.19
0.68817,61.799
0.68915,61.604
0.68817,61.213
0.68524,60.821
0.6784,60.43
0.6696,60.039
0.65787,59.648
0.64418,59.257
0.62952,58.866
0.61388,58.279
0.59824,57.888
0.58162,57.497
0.56794,56.91
0.55425,56.519
0.54154,56.128
0.52884,55.737
0.51613,55.346
0.5044,54.759
0.49365,54.368
0.48387,53.977
0.47507,53.585
0.46725,53.194
0.45943,52.803
0.45259,52.216
0.44673,52.021
0.44184,51.825
0.43597,51.63
0.43011,51.434
0.42424,51.63
0.41838,52.412
0.41251,53.781
0.40665,56.519
0.3998,60.43
0.39394,65.711
0.38807,71.578
0.38221,77.836
0.37537,83.703
0.37048,89.374
0.36559,94.263
0.35973,98.566
0.35288,101.89
0.34702,104.24
0.34115,105.8
0.33529,106.78
0.32845,106.78
0.32258,106.19
0.31672,105.41
0.30987,104.04
0.30401,102.28
0.29912,100.33
0.29423,97.979
0.28837,95.437
0.2825,92.699
0.27664,89.765
0.26979,86.636
0.26393,83.312
0.25904,79.987
0.25318,76.858
0.24829,74.12
0.24242,71.578
0.23851,69.426
0.2346,67.666
0.23363,66.297
0.2346,65.124
0.23949,64.146
0.24829,63.559
0.26295,63.168
0.28348,62.973
0.3089,62.777
0.34018,62.777
0.37439,62.777
0.40958,62.973
0.44673,62.973
0.48289,62.973
0.51222,63.168
0.53861,63.168
0.56598,63.364
0.59238,63.364
0.61584,63.168
0.63636,63.168
0.65396,62.973
0.66862,62.777
0.68035,62.582
0.68817,62.19
0.69404,61.995
0.69599,61.604
0.69501,61.408
0.6911,61.017
0.68426,60.626
0.67546,60.235
0.66373,59.844
0.65103,59.452
0.63636,58.866
0.62072,58.475
0.60508,58.083
0.58944,57.692
0.5738,57.106
0.55816,56.715
0.54448,56.323
0.53177,55.737
0.52102,55.346
0.51711,54.954
0.51613,54.563
0.51124,53.977
0.5044,53.781
0.49756,53.194
0.49071,52.803
0.48387,52.412
0.47703,52.216
0.47019,51.825
0.46432,51.825
0.45748,51.63
0.45259,52.021
0.4477,52.608
0.44184,54.368
0.43597,57.106
0.43011,61.408
0.42424,66.884
0.4174,72.751
0.41153,79.009
0.40567,85.072
0.39883,90.548
0.39296,95.437
0.38612,99.544
0.38123,102.87
0.37732,105.22
0.37146,106.78
0.36559,107.56
0.35875,107.76
0.35288,107.17
0.34604,106.19
0.3392,104.82
0.33333,103.06
0.32649,101.11
0.32063,98.761
0.31476,96.415
0.30792,93.481
0.30303,90.548
0.29912,87.419
0.29326,84.094
0.28837,80.769
0.2825,77.64
0.27664,74.707
0.27077,72.164
0.26588,70.013
0.26197,68.253
0.26002,66.688
0.26197,65.515
0.26784,64.537
0.27761,63.95
0.2913,63.364
0.31183,63.168
0.33822,62.973
0.3695,62.973
0.40469,62.973
0.44184,62.973
0.47996,63.168
0.51711,63.364
0.55327,63.364
0.58651,63.364
0.61779,63.559
0.64516,63.364
0.66667,63.364
0.68328,63.364
0.69892,63.168
0.71359,62.973
0.72532,62.582
0.73412,62.386
0.73998,61.995
0.74194,61.799
0.74194,61.408
0.73803,61.213
0.73118,60.821
0.72141,60.43
0.71065,60.039
0.69795,59.648
0.68426,59.061
0.66862,58.67
0.652,58.279
0.63539,57.692
0.61877,57.301
0.60313,56.91
0.58749,56.323
0.57283,55.932
0.56012,55.346
0.54741,54.954
0.53763,54.563
0.52884,54.172
0.52004,53.585
0.51124,53.194
0.50342,52.803
0.4956,52.216
0.48778,52.021
0.48094,51.825
0.4741,51.63
0.46725,51.63
0.46041,51.825
0.45455,52.608
0.4477,54.172
0.44184,57.106
0.43695,61.604
0.43109,67.08
0.42522,73.338
0.41935,79.596
0.41251,85.658
0.40665,91.33
0.3998,96.219
0.39296,100.33
0.38612,103.65
0.37928,106
0.37243,107.56
0.36755,108.34
0.36266,108.54
0.35679,107.95
0.35093,106.98
0.34409,105.61
0.33822,103.85
0.33138,101.89
0.32454,99.544
0.31769,97.197
0.31085,94.655
0.30401,91.721
0.29814,88.592
0.2913,85.463
0.28641,82.138
0.28152,79.009
0.27664,76.076
0.27077,73.533
0.26588,71.186
0.261,69.426
0.25904,67.862
0.25904,66.688
0.26491,65.711
0.27566,64.928
0.29326,64.537
0.31672,64.342
0.34213,64.146
0.3695,64.146
0.40274,64.146
0.43988,64.342
0.47898,64.342
0.51711,64.537
0.55425,64.537
0.58847,64.733
0.61975,64.733
0.64907,64.733
0.67351,64.537
0.69599,64.537
0.71457,64.342
0.72825,64.146
0.73705,63.95
0.74585,63.559
0.75269,63.168
0.7566,62.973
0.7566,62.582
0.75464,62.19
0.74878,61.799
0.73998,61.408
0.72923,61.017
0.71652,60.626
0.70088,60.039
0.68622,59.648
0.67155,59.257
0.65494,58.67
0.6393,58.279
0.62366,57.888
0.60802,57.497
0.59335,57.106
0.57967,56.715
0.56696,56.128
0.55621,55.737
0.54545,55.346
0.53666,54.954
0.52884,54.563
0.52102,53.977
0.51515,53.585
0.50831,53.194
0.50147,52.999
0.49462,52.803
0.48876,52.803
0.48192,52.999
0.47605,53.781
0.46921,55.541
0.46237,58.67
0.4565,63.364
0.44966,69.035
0.44379,75.293
0.43891,81.747
0.43304,88.005
0.42717,93.481
0.42033,98.566
0.41447,102.67
0.40762,106
0.40078,108.34
0.39394,109.71
0.3871,110.3
0.38025,110.3
0.37439,109.71
0.36755,108.54
0.36266,107.17
0.35777,105.41
0.35191,103.46
0.34506,101.3
0.3392,98.957
0.33236,96.219
0.32551,93.481
0.31965,90.352
0.31281,87.223
0.30694,83.898
0.3001,80.769
0.29423,77.836
0.28935,75.098
0.28641,72.947
0.2825,70.991
0.28152,69.426
0.2825,68.253
0.28739,67.275
0.29814,66.493
0.31476,65.906
0.33822,65.711
0.36852,65.515
0.40274,65.319
0.44086,65.124
0.47996,65.124
0.51515,65.124
0.54643,65.319
0.58065,65.319
0.61388,65.319
0.64516,65.319
0.67449,65.319
0.6999,65.124
0.72336,64.928
0.74194,64.733
0.75855,64.342
0.77126,64.146
0.78104,63.755
0.78592,63.364
0.7869,62.973
0.7869,62.777
0.78397,62.19
0.77908,61.799
0.77126,61.408
0.76051,61.017
0.7478,60.43
0.73314,60.039
0.7175,59.648
0.70186,59.061
0.68426,58.67
0.66764,58.279
0.65298,57.692
0.6393,57.301
0.62463,56.91
0.61095,56.323
0.59824,55.932
0.58553,55.346
0.5738,54.954
0.56403,54.563
0.54741,54.172
0.52884,53.781
0.51613,53.39
0.50635,52.803
0.49853,52.608
0.49169,52.216
0.48485,52.216
0.47801,52.216
0.47116,52.608
0.46432,53.781
0.45748,56.323
0.45064,60.039
0.44282,65.124
0.435,71.382
0.42815,77.836
0.42033,84.289
0.41349,90.352
0.40762,95.828
0.40274,100.52
0.39589,104.24
0.39003,106.98
0.38319,108.93
0.37634,109.91
0.3695,110.1
0.36266,109.71
0.35582,108.74
0.34897,107.37
0.34311,105.8
0.33627,104.04
0.3304,101.89
0.32551,99.544
0.31965,97.001
0.31281,94.068
0.30694,91.134
0.30108,87.81
0.29423,84.681
0.28837,81.356
0.28152,78.227
0.27566,75.489
0.26979,72.947
0.26491,70.795
0.26197,69.035
0.26197,67.666
0.26491,66.688
0.27175,65.711
0.28348,65.124
0.30205,64.733
0.32551,64.342
0.35484,64.342
0.38807,64.146
0.42326,64.146
0.46041,64.146
0.49658,64.146
0.53177,64.342
0.56109,64.342
0.58651,64.342
0.61193,64.342
0.63636,64.146
0.65885,63.95
0.6784,63.755
0.69501,63.559
0.70772,63.364
0.7175,62.973
0.72434,62.777
0.72923,62.386
0.73021,61.995
0.72727,61.604
0.72239,61.213
0.71554,60.821
0.70577,60.43
0.69404,59.844
0.68133,59.452
0.66667,59.061
0.65005,58.67
0.63343,58.279
0.61681,57.692
0.60117,57.301
0.58456,56.91
0.56989,56.323
0.55718,55.932
0.54545,55.541
0.53275,55.15
0.52102,54.563
0.51026,54.172
0.50049,53.781
0.49169,53.194
0.48289,52.803
0.47605,52.412
0.46823,52.021
0.46139,51.63
0.45455,51.434
0.44868,51.434
0.44282,51.434
0.43597,51.825
0.42913,53.194
0.42229,55.346
0.41544,59.257
0.4086,64.342
0.40176,70.209
0.39492,76.662
0.3871,82.921
0.38025,88.788
0.37341,94.068
0.36755,98.566
0.36168,102.28
0.35679,105.02
0.35093,106.78
0.34409,107.95
0.33822,108.15
0.33138,107.76
0.32454,106.78
0.31769,105.61
0.31085,103.85
0.30401,101.89
0.29717,99.739
0.29032,97.393
0.28543,94.655
0.28055,91.721
0.27566,88.592
0.26979,85.267
0.26393,81.943
0.25806,78.618
0.25122,75.685
0.24536,72.947
0.24047,70.6
0.23558,68.644
0.23167,67.08
0.23069,65.711
0.23363,64.733
0.23949,63.95
0.25024,63.364
0.26686,63.168
0.28935,62.973
0.31769,62.777
0.34995,62.777
0.38514,62.777
0.42229,62.973
0.45943,62.973
0.4956,62.973
0.52981,63.168
0.56109,63.168
0.58553,63.168
0.60606,62.973
0.62561,62.973
0.64516,62.973
0.66178,62.582
0.67546,62.386
0.68524,61.995
0.69306,61.799
0.69795,61.408
0.69892,61.017
0.69697,60.626
0.69208,60.235
0.68426,59.844
0.67449,59.452
0.66373,59.061
0.65005,58.67
0.63539,58.279
0.61975,57.692
0.60411,57.301
0.58749,56.91
0.57087,56.323
0.55523,55.932
0.54057,55.346
0.52688,54.954
0.51417,54.563
0.50244,54.172
0.49365,53.781
0.48387,53.194
0.47507,52.803
0.46628,52.412
0.45846,52.021
0.45064,51.63
0.44282,51.239
0.43597,51.043
0.43011,50.847
0.42326,50.847
0.41642,51.043
0.41056,51.825
0.40469,53.39
0.3998,56.323
0.39394,60.43
0.38807,65.906
0.38123,71.969
0.37439,78.227
0.36852,84.289
0.36168,89.57
0.35484,94.459
0.348,98.566
0.34213,101.89
0.33529,104.24
0.3304,105.61
0.32551,106.19
0.32063,106.19
0.31476,105.61
0.3089,104.63
0.30303,103.26
0.29717,101.5
0.29032,99.348
0.28446,97.001
0.27859,94.655
0.27175,91.917
0.26588,88.788
0.26002,85.658
0.25513,82.334
0.2522,79.009
0.24731,75.88
0.24145,73.142
0.23558,70.6
0.22972,68.449
0.22581,66.688
0.22287,65.319
0.22287,64.146
0.22678,63.364
0.23558,62.777
0.25024,62.19
0.26784,61.995
0.28935,61.799
0.31672,61.799
0.34995,61.799
0.38514,61.995
0.42131,61.995
0.45846,61.995
0.49462,62.19
0.52786,62.19
0.55816,62.19
0.58651,62.19
0.61095,62.19
0.63245,61.995
0.64712,61.995
0.65885,61.604
0.66862,61.408
0.67742,61.213
0.68328,60.821
0.68622,60.43
0.68622,60.039
0.68328,59.648
0.67742,59.257
0.66862,58.866
0.65689,58.475
0.64418,58.083
0.6305,57.692
0.61681,57.301
0.60215,56.715
0.58553,56.323
0.56989,55.932
0.55327,55.346
0.53763,54.954
0.52297,54.563
0.50929,54.172
0.49756,53.781
0.48583,53.194
0.47605,52.803
0.46628,52.412
0.45846,52.021
0.45161,51.434
0.45161,51.043
0.45455,50.652
0.45357,50.456
0.44966,50.261
0.44477,50.065
0.43988,50.065
0.43402,50.456
0.42815,51.63
0.42229,53.781
0.41642,57.301
0.41153,62.19
0.40665,67.862
0.40176,74.12
0.39589,80.183
0.38905,86.05
0.38319,91.33
0.37732,95.828
0.37146,99.544
0.36559,102.48
0.35973,104.43
0.35386,105.61
0.348,106
0.34311,105.61
0.3392,105.02
0.33431,103.65
0.32845,102.09
0.32258,100.33
0.31672,98.175
0.31085,95.828
0.30499,93.286
0.29814,90.352
0.29228,87.419
0.28641,84.094
0.28055,80.769
0.27566,77.64
0.27175,74.707
0.26784,72.164
0.26393,69.818
0.25904,67.666
0.25611,66.102
0.25415,64.733
0.25513,63.755
0.261,62.973
0.27175,62.582
0.28837,62.386
0.31085,62.19
0.33822,62.19
0.36657,62.19
0.39492,62.19
0.42815,62.386
0.46334,62.386
0.49951,62.582
0.53372,62.777
0.56598,62.777
0.59629,62.973
0.62268,62.973
0.64614,62.777
0.66667,62.777
0.68328,62.582
0.69795,62.386
0.70674,61.995
0.71261,61.604
0.71652,61.408
0.71945,61.017
0.71848,60.821
0.71554,60.43
0.7087,60.039
0.6999,59.648
0.68817,59.257
0.67449,58.67
0.65982,58.279
0.64418,57.888
0.62952,57.497
0.61584,57.106
0.6002,56.715
0.58553,56.128
0.57087,55.737
0.55718,55.346
0.54448,54.954
0.53275,54.563
0.52297,54.172
0.5132,53.781
0.50538,53.39
0.49756,52.999
0.49071,52.608
0.28739,67.471
0.30303,67.275
0.32356,67.275
0.34702,67.275
0.37341,67.275
0.3998,67.471
0.42522,67.471
0.44868,67.471
0.46725,67.471
0.48289,67.275
0.49756,67.08
0.51026,66.884
0.52004,66.688
0.52786,66.493
0.53372,66.102
0.53763,65.906
0.53959,65.515
0.53959,65.319
0.53763,64.928
0.5347,64.537
0.53079,64.342
0.5259,63.95
0.51906,63.559
0.51124,63.168
0.50244,62.973
0.49169,62.386
0.48192,61.995
0.47116,61.408
0.46041,61.017
0.45064,60.43
0.44184,60.039
0.43304,59.452
0.42522,58.866
0.41935,58.279
0.41447,57.888
0.41056,57.301
0.40567,56.91
0.40176,56.519
0.39883,55.932
0.39589,55.541
0.39394,55.15
0.39198,54.759
0.39003,54.563
0.38905,54.172
0.3871,54.172
0.38612,54.172
0.38514,54.563
0.38319,55.932
0.38123,58.279
0.3783,62.19
0.37537,67.275
0.37243,73.533
0.3695,79.987
0.36657,86.441
0.36364,92.699
0.3607,98.37
0.35777,103.46
0.35386,107.76
0.35191,111.08
0.34995,113.43
0.348,114.99
0.34506,115.58
0.34213,115.38
0.3392,114.6
0.33627,113.23
0.33333,111.47
0.32942,109.52
0.32649,106.98
0.32258,104.43
0.31965,101.5
0.31672,98.175
0.31574,94.85
0.31281,91.134
0.3089,87.419
0.30596,83.898
0.30205,80.574
0.29814,77.445
0.29423,74.707
0.2913,72.36
0.28739,70.404
0.28543,68.84
0.28543,67.471
0.28837,66.493
0.29423,65.906
0.30401,65.515
0.31867,65.319
0.33822,65.124
0.36168,65.124
0.38807,65.124
0.41447,65.319
0.43988,65.515
0.46432,65.711
0.48485,65.906
0.50342,65.906
0.51808,66.102
0.52884,66.102
0.53666,66.102
0.54252,65.906
0.54741,65.906
0.54936,65.711
0.55034,65.515
0.54936,65.124
0.54741,64.733
0.5435,64.537
0.53861,64.146
0.53177,63.755
0.52297,63.364
0.51417,62.973
0.50538,62.386
0.49658,61.995
0.4868,61.408
0.47507,61.017
0.46432,60.43
0.45357,59.844
0.44282,59.452
0.43304,58.866
0.42522,58.279
0.4174,57.888
0.41056,57.301
0.40469,56.91
0.40078,56.323
0.39883,55.932
0.39589,55.541
0.39296,55.15
0.39101,54.563
0.38905,54.172
0.3871,53.781
0.38612,53.39
0.38416,53.194
0.38221,52.999
0.38025,53.194
0.3783,53.781
0.37537,54.954
0.37439,57.301
0.37243,61.213
0.37048,66.297
0.36852,72.555
0.36559,79.205
0.36266,85.658
0.35973,91.917
0.35679,97.588
0.35386,102.67
0.34995,106.98
0.34702,110.3
0.34409,112.84
0.34213,114.41
0.34018,114.99
0.33724,114.8
0.33333,113.82
0.3304,112.45
0.32649,110.5
0.32356,108.15
0.31965,105.61
0.31672,102.67
0.31281,99.544
0.3089,96.219
0.30499,92.699
0.30108,88.983
0.29912,85.267
0.29717,81.552
0.29521,78.227
0.29228,75.098
0.28837,72.555
0.28543,70.404
0.2825,68.449
0.28055,67.08
0.28055,65.906
0.28348,65.124
0.29032,64.537
0.30205,64.146
0.31574,63.95
0.33236,63.95
0.35386,63.95
0.37928,64.146
0.40469,64.342
0.43011,64.537
0.45357,64.733
0.47507,64.928
0.49267,65.124
0.50635,65.124
0.51711,65.319
0.5259,65.319
0.53079,65.124
0.53372,64.928
0.53568,64.733
0.53568,64.537
0.53275,64.146
0.52981,63.95
0.52395,63.559
0.51808,63.168
0.51026,62.973
0.50147,62.582
0.49169,61.995
0.48094,61.604
0.46921,61.213
0.45943,60.626
0.45064,60.039
0.44086,59.648
0.43109,59.061
0.42033,58.67
0.41153,58.279
0.40274,57.692
0.39589,57.106
0.39003,56.715
0.38416,56.128
0.38025,55.541
0.37732,55.15
0.37439,54.563
0.37341,54.172
0.37243,53.781
0.37146,53.39
0.37048,53.194
0.3695,52.999
0.36755,52.803
0.36559,52.803
0.36364,53.194
0.36168,53.977
0.3607,55.932
0.35875,59.257
0.3695,63.755
0.38807,69.231
0.39785,75.489
0.3998,81.943
0.39785,88.201
0.39492,93.872
0.39101,98.957
0.38612,103.46
0.38123,107.17
0.37537,109.91
0.3695,111.67
0.36364,112.45
0.35777,112.65
0.35386,111.86
0.35093,110.5
0.34702,108.74
0.34213,106.39
0.33724,103.85
0.3304,100.91
0.32454,97.784
0.31867,94.263
0.31281,90.548
0.30694,86.832
0.30108,82.921
0.29521,79.4
0.28935,76.076
0.28641,73.142
0.28543,70.6
0.28152,68.253
0.27761,66.493
0.27468,65.124
0.27273,63.95
0.27566,63.168
0.28446,62.777
0.3001,62.386
0.32454,62.19
0.35582,62.19
0.39394,62.386
0.43109,62.582
0.46823,62.777
0.50831,62.973
0.54741,63.364
0.58358,63.559
0.61486,63.95
0.64027,64.146
0.65982,64.342
0.67449,64.342
0.68328,64.342
0.68915,64.146
0.6911,64.146
0.68915,63.95
0.68622,63.559
0.68133,63.364
0.67351,62.973
0.66276,62.777
0.65005,62.386
0.63441,61.799
0.61779,61.408
0.59922,61.017
0.57869,60.43
0.55914,59.844
0.53959,59.452
0.52004,58.866
0.50538,58.279
0.49267,57.888
0.47996,57.301
0.46725,56.91
0.4565,56.323
0.44673,55.932
0.43891,55.346
0.43206,54.954
0.42717,54.563
0.42326,53.977
0.42033,53.585
0.4174,53.194
0.41544,52.803
0.41544,52.412
0.41544,52.216
0.41544,52.216
0.41544,52.216
0.41447,52.803
0.41349,53.977
0.41251,56.128
0.41056,59.844
0.40762,64.928
0.40469,70.795
0.40078,77.249
0.39687,83.507
0.39492,89.57
0.39394,95.241
0.39101,100.13
0.38807,104.43
0.38416,107.76
0.38025,110.3
0.37537,111.86
0.37146,112.45
0.36657,112.26
0.36266,111.47
0.35777,109.91
0.35288,107.95
0.348,105.61
0.34506,103.06
0.34213,100.33
0.33822,97.001
0.33431,93.677
0.32942,89.961
0.32454,86.245
0.31965,82.529
0.31476,79.009
0.31085,75.685
0.30596,72.751
0.30205,70.404
0.29717,68.253
0.29521,66.493
0.29521,65.124
0.29619,63.95
0.3001,63.168
0.30987,62.582
0.32747,62.19
0.35191,61.995
0.38514,61.995
0.42326,62.19
0.4653,62.386
0.50929,62.582
0.55132,62.973
0.5914,63.168
0.62268,63.364
0.64809,63.559
0.67058,63.755
0.69013,63.95
0.70479,63.95
0.71554,63.755
0.72141,63.755
0.72336,63.559
0.72336,63.364
0.71945,62.973
0.71359,62.777
0.70381,62.582
0.69404,62.386
0.68426,61.995
0.67058,61.604
0.65396,61.213
0.63636,60.626
0.61681,60.039
0.59726,59.648
0.57771,59.061
0.55914,58.475
0.54252,58.083
0.5259,57.497
0.51222,57.106
0.49951,56.519
0.49071,56.128
0.48485,55.737
0.47898,55.15
0.47312,54.759
0.46921,54.172
0.4653,53.781
0.46237,53.39
0.45943,52.999
0.45748,52.608
0.45552,52.216
0.45455,52.021
0.45259,52.021
0.45259,52.021
0.45259,52.608
0.45161,53.977
0.44966,56.519
0.4477,60.43
0.44477,65.711
0.44282,71.773
0.43988,78.227
0.43695,84.681
0.43402,90.743
0.43109,96.415
0.42815,101.3
0.42424,105.61
0.42131,108.74
0.42033,111.08
0.4174,112.65
0.41349,113.04
0.40958,112.84
0.40567,111.86
0.40078,110.3
0.39687,108.34
0.39296,106
0.38807,103.26
0.38319,100.52
0.3783,97.393
0.37439,94.068
0.37243,90.352
0.3695,86.636
0.36559,82.921
0.36168,79.596
0.35679,76.271
0.35191,73.338
0.34702,70.795
0.34213,68.644
0.33822,66.688
0.33724,65.319
0.3392,64.146
0.34702,63.364
0.35875,62.973
0.37732,62.582
0.40274,62.386
0.43695,62.386
0.47801,62.582
0.52199,62.777
0.56696,62.973
0.61095,63.168
0.65103,63.559
0.68622,63.755
0.71554,63.95
0.73998,64.146
0.75758,64.342
0.77028,64.342
0.77908,64.342
0.78592,64.342
0.78886,64.146
0.78983,63.95
0.7869,63.755
0.78201,63.364
0.77419,63.168
0.76442,62.777
0.75269,62.386
0.73803,61.995
0.72434,61.604
0.71065,61.213
0.69404,60.821
0.67546,60.235
0.65689,59.844
0.6393,59.257
0.6217,58.866
0.60606,58.279
0.59238,57.888
0.57967,57.301
0.56891,56.91
0.55914,56.519
0.55132,56.128
0.54545,55.541
0.54154,55.15
0.53763,54.759
0.5347,54.368
0.53275,53.977
0.52981,53.781
0.52884,53.39
0.52688,53.194
0.5259,53.194
0.52493,53.39
0.52493,54.172
0.52297,55.737
0.52297,58.866
0.52199,63.364
0.52102,69.035
0.51906,75.293
0.51613,81.943
0.51417,88.396
0.50342,94.263
0.48876,99.739
0.47996,104.43
0.47312,108.34
0.46823,111.28
0.46432,113.23
0.45943,114.41
0.45552,114.6
0.45357,114.02
0.45064,112.84
0.44673,111.28
0.44282,109.13
0.43988,106.78
0.43597,104.24
0.43206,101.3
0.42717,98.175
0.42326,95.046
0.41838,91.525
0.41447,87.81
0.41153,84.289
0.40958,80.965
0.40665,77.64
0.40274,74.902
0.39883,72.36
0.39492,70.209
0.39198,68.644
0.39101,67.275
0.39394,66.102
0.40176,65.319
0.41544,64.928
0.43793,64.537
0.46823,64.537
0.50049,64.537
0.5347,64.733
0.57576,64.928
0.61877,65.319
0.66178,65.515
0.70088,65.711
0.73705,65.906
0.76735,66.102
0.79179,66.102
0.81134,66.102
0.82698,66.102
0.83871,66.102
0.84653,65.906
0.85044,65.711
0.85239,65.515
0.85337,65.124
0.85142,64.733
0.84653,64.537
0.84066,64.146
0.83187,63.755
0.82111,63.168
0.80841,62.777
0.79374,62.386
0.77908,61.995
0.76344,61.408
0.74976,61.017
0.73607,60.43
0.72141,59.844
0.70772,59.452
0.69404,58.866
0.68231,58.475
0.67155,58.083
0.66276,57.497
0.65494,57.106
0.64907,56.715
0.64321,56.128
0.6393,55.541
0.63734,55.15
0.63441,54.563
0.63245,54.172
0.6305,53.781
0.62854,53.39
0.62561,53.194
0.62366,53.39
0.6217,53.977
0.61975,55.737
0.61779,58.866
0.61486,63.559
0.61193,69.426
0.60802,76.076
0.60508,82.921
0.60215,89.57
0.59824,95.828
0.59433,101.3
0.59042,106
0.58651,109.91
0.5826,112.65
0.57869,114.6
0.5738,115.38
0.56891,115.19
0.565,114.41
0.56012,113.04
0.55621,111.08
0.55327,108.93
0.54936,106.58
0.54545,104.04
0.54057,101.11
0.53568,98.175
0.53079,94.85
0.52493,91.525
0.52004,88.005
0.51417,84.289
0.50929,80.965
0.50244,77.836
0.49658,74.902
0.49267,72.36
0.48876,70.404
0.48485,68.644
0.48192,67.275
0.48289,66.102
0.48974,65.515
0.50342,64.928
0.52493,64.537
0.55523,64.537
0.59335,64.537
0.63636,64.537
0.68231,64.537
0.72239,64.733
0.75758,64.928
0.7957,65.124
0.83187,65.319
0.86413,65.515
0.89247,65.515
0.91691,65.515
0.93646,65.515
0.95308,65.319
0.96579,65.124
0.97556,64.928
0.98143,64.537
0.98436,64.342
0.98436,63.95
0.98143,63.559
0.97556,62.973
0.96872,62.777
0.95894,62.19
0.94721,61.799
0.93353,61.408
0.91789,61.017
0.90127,60.43
0.88368,59.844
0.86608,59.452
0.84946,58.866
0.83382,58.279
0.82111,57.888
0.80743,57.301
0.7957,56.91
0.78397,56.519
0.77419,55.932
0.7654,55.541
0.75855,55.15
0.75171,54.563
0.74487,54.172
0.73998,53.781
0.73509,53.39
0.73021,52.999
0.7263,52.608
0.72239,52.412
0.7175,52.412
0.71359,52.608
0.70968,53.585
0.70479,55.541
0.6999,59.061
0.69501,64.146
0.68915,70.209
0.68328,76.858
0.67742,83.507
0.67155,89.961
0.66667,96.024
0.66178,101.3
0.65591,105.8
0.65005,109.32
0.64418,111.86
0.63832,113.43
0.63245,114.21
0.62561,113.82
0.61975,113.04
0.6129,111.67
0.60606,109.71
0.59922,107.56
0.59238,105.22
0.58651,102.48
0.58065,99.544
0.57478,96.415
0.56696,92.894
0.56012,89.374
0.55327,85.854
0.54643,82.334
0.53959,78.814
0.53275,75.685
0.5259,73.142
0.51906,70.6
0.5132,68.84
0.50831,67.275
0.50635,65.906
0.50635,64.928
0.51222,64.342
0.52493,63.95
0.54545,63.755
0.57478,63.559
0.61095,63.755
0.65298,63.755
0.69795,63.95
0.74487,64.146
0.79081,64.342
0.82796,64.537
0.85924,64.733
0.8915,64.928
0.92082,64.928
0.94624,64.928
0.96774,64.733
0.98338,64.733
0.9912,64.537
0.99609,64.342
0.99804,63.95
0.99902,63.559
1,63.168
1,62.973
1,62.386
0.99902,61.995
0.99413,61.604
0.98436,61.213
0.97067,60.626
0.95503,60.235
0.93744,59.648
0.91887,59.257
0.90029,58.67
0.8827,58.279
0.8651,57.692
0.84848,57.106
0.8348,56.715
0.82111,56.128
0.80938,55.737
0.79765,55.15
0.78788,54.759
0.77908,54.172
0.77028,53.781
0.76344,53.39
0.7566,52.803
0.74976,52.412
0.74389,52.216
0.73803,52.021
0.73216,52.021
0.72727,52.216
0.72239,52.803
0.7175,54.368
0.71163,56.91
0.70577,61.213
0.6999,66.493
0.69306,72.751
0.68622,79.205
0.67937,85.463
0.67155,91.525
0.66569,96.806
0.65885,101.5
0.60411,105.41
0.52493,108.34
0.48289,110.1
0.45943,111.08
0.44379,111.28
0.43304,110.5
0.42522,109.32
0.4174,107.56
0.41056,105.61
0.40371,103.26
0.39687,100.52
0.39101,97.588
0.38416,94.459
0.37928,91.134
0.37439,87.614
0.3695,84.094
0.36364,80.574
0.35777,77.249
0.35093,74.12
0.34506,71.578
0.3392,69.231
0.33333,67.471
0.32747,65.906
0.32356,64.733
0.32258,63.755
0.32551,63.168
0.33138,62.777
0.34311,62.582
0.36168,62.582
0.38612,62.582
0.41544,62.777
0.44868,62.777
0.48485,62.973
0.52102,63.364
0.55523,63.559
0.58749,63.755
0.61779,63.95
0.64321,64.146
0.66373,64.146
0.67937,63.95
0.69404,63.95
0.70674,63.755
0.7175,63.559
0.72532,63.168
0.73021,62.973
0.73314,62.582
0.73314,62.19
0.73021,61.799
0.72434,61.408
0.71652,61.017
0.70772,60.43
0.69697,60.039
0.68524,59.648
0.67155,59.061
0.65689,58.67
0.64125,58.083
0.62659,57.692
0.61193,57.106
0.59726,56.715
0.58456,56.128
0.57283,55.737
0.56305,55.346
0.55327,54.759
0.54545,54.368
0.53861,53.781
0.53275,53.39
0.52688,52.999
0.52102,52.608
0.51613,52.216
0.51124,51.825
0.50733,51.63
0.50342,51.63
0.49853,51.825
0.49365,52.412
0.48876,53.977
0.48485,56.519
0.48094,60.626
0.47703,66.102
0.47116,72.164
0.46628,78.618
0.46139,85.072
0.45552,91.134
0.44966,96.61
0.44477,101.3
0.43793,105.22
0.43206,107.95
0.4262,109.91
0.41935,110.89
0.41447,110.89
0.40958,110.3
0.40469,109.13
0.3998,107.56
0.39394,105.41
0.38807,103.06
0.38221,100.52
0.37537,97.784
0.3695,94.655
0.36266,91.33
0.35582,87.81
0.34897,84.289
0.34409,80.574
0.3392,77.249
0.33431,74.316
0.32845,71.578
0.32356,69.231
0.31769,67.471
0.31183,65.906
0.30792,64.733
0.30694,63.755
0.3089,63.168
0.31574,62.777
0.32942,62.582
0.34995,62.582
0.37146,62.582
0.39589,62.777
0.42717,62.973
0.46237,63.168
0.49853,63.559
0.53568,63.755
0.57087,63.95
0.60313,63.95
0.63148,64.146
0.65787,64.146
0.68035,63.95
0.69892,63.95
0.71163,63.755
0.72141,63.364
0.72923,63.168
0.73607,62.973
0.74096,62.582
0.74194,62.19
0.74096,61.799
0.73803,61.408
0.73118,61.017
0.72239,60.626
0.71065,60.039
0.69795,59.648
0.68426,59.061
0.6696,58.67
0.65591,58.083
0.64125,57.692
0.62659,57.106
0.60997,56.519
0.59531,56.128
0.58553,55.541
0.57576,55.15
0.56598,54.759
0.55718,54.172
0.54839,53.781
0.54154,53.39
0.53568,52.999
0.52981,52.608
0.52395,52.216
0.51906,51.825
0.5132,51.63
0.50831,51.63
0.50342,51.63
0.49853,52.216
0.49462,53.781
0.48974,56.323
0.48583,60.43
0.48094,65.906
0.47605,72.164
0.47116,78.814
0.46628,85.267
0.46041,91.33
0.45455,97.001
0.44868,101.69
0.44282,105.61
0.43793,108.54
0.43206,110.5
0.4262,111.47
0.41935,111.67
0.41349,110.89
0.40665,109.71
0.40078,108.15
0.39589,106
0.39003,103.85
0.38319,101.3
0.37732,98.37
0.37048,95.437
0.36364,92.112
0.35679,88.592
0.34995,85.072
0.34409,81.552
0.33724,78.227
0.3304,75.098
0.32551,72.164
0.32063,70.013
0.31476,67.862
0.30987,66.297
0.30499,65.124
0.30303,64.146
0.30401,63.559
0.30987,62.973
0.3216,62.777
0.34018,62.777
0.36461,62.973
0.39589,62.973
0.43206,63.168
0.4653,63.364
0.49658,63.755
0.53177,63.95
0.56794,64.146
0.60215,64.342
0.63441,64.342
0.66373,64.342
0.68915,64.342
0.71065,64.146
0.72923,63.95
0.74487,63.755
0.7566,63.364
0.76442,62.973
0.76833,62.777
0.77028,62.386
0.77028,61.995
0.76833,61.408
0.76344,61.017
0.75464,60.626
0.74487,60.039
0.73216,59.648
0.7175,59.257
0.70186,58.67
0.68622,58.279
0.6696,57.692
0.65494,57.106
0.64125,56.715
0.62659,56.323
0.6129,55.737
0.59922,55.346
0.58749,54.954
0.57674,54.368
0.56696,53.977
0.55718,53.585
0.54936,52.999
0.54252,52.608
0.53568,52.216
0.53079,52.021
0.52493,51.825
0.52004,51.63
0.51417,51.63
0.50929,52.216
0.5044,53.585
0.49951,56.128
0.49462,60.039
0.48876,65.319
0.48289,71.773
0.47703,78.422
0.47116,85.072
0.46432,91.525
0.45943,97.197
0.45455,102.09
0.44868,106.19
0.44282,109.32
0.43597,111.47
0.42913,112.45
0.41153,112.84
0.38807,112.26
0.37243,111.28
0.36168,109.71
0.35191,107.76
0.34409,105.61
0.33724,103.06
0.33138,100.52
0.32454,97.588
0.31769,94.459
0.31085,91.134
0.30401,87.81
0.29717,84.289
