0.41251,61.408
0.40274,61.017
0.39394,60.43
0.38612,59.844
0.37928,59.452
0.37341,59.061
0.36755,58.67
0.36266,58.279
0.35875,58.279
0.35484,58.279
0.35093,58.67
0.348,60.039
0.34409,62.973
0.34115,68.057
0.3392,75.293
0.33627,84.094
0.33236,93.09
0.32845,101.5
0.32454,108.93
0.32063,115.19
0.31672,120.27
0.31281,123.79
0.3089,125.75
0.30596,126.73
0.30205,126.53
0.29912,125.55
0.29717,123.79
0.29423,121.64
0.2913,119.3
0.28837,116.56
0.28446,113.82
0.28152,110.5
0.27761,106.98
0.27468,103.26
0.27077,99.153
0.26784,95.046
0.26393,90.939
0.261,87.223
0.25904,83.898
0.25709,81.16
0.25415,78.814
0.25122,76.858
0.24829,75.489
0.24633,74.511
0.24633,73.729
0.25122,73.338
0.26197,73.142
0.28055,72.947
0.30694,72.947
0.34115,72.947
0.37537,72.751
0.41056,72.751
0.45259,72.751
0.4956,72.751
0.53763,72.555
0.57576,72.36
0.60899,72.164
0.63636,71.969
0.65689,71.578
0.67253,71.186
0.68231,70.795
0.68817,70.404
0.68915,69.818
0.68622,69.231
0.68035,68.644
0.67155,68.057
0.65982,67.666
0.64516,67.275
0.62757,66.688
0.60899,66.297
0.58749,65.906
0.565,65.319
0.54252,64.733
0.52004,64.342
0.49853,63.95
0.47996,63.364
0.46432,62.973
0.4477,62.386
0.43304,61.995
0.41935,61.408
0.40762,61.017
0.39687,60.43
0.38807,59.844
0.38025,59.452
0.37439,59.061
0.36852,58.475
0.36461,58.279
0.35973,57.888
0.35679,57.888
0.35386,58.083
0.35191,58.866
0.34897,61.017
0.34506,65.124
0.34213,71.578
0.34213,79.791
0.34311,88.983
0.34213,97.784
0.34018,105.8
0.33627,113.04
0.33333,118.9
0.3304,123.21
0.32845,126.14
0.32551,127.71
0.3216,128.1
0.31867,127.51
0.31476,126.14
0.31085,124.38
0.30792,122.23
0.30401,119.69
0.30108,117.14
0.29717,114.41
0.29423,111.28
0.29032,107.76
0.28837,104.04
0.28641,99.935
0.28348,95.828
0.28055,91.721
0.27761,88.005
0.2737,84.485
0.27077,81.747
0.26686,79.4
0.26295,77.64
0.261,76.076
0.26002,75.098
0.26393,74.12
0.27077,73.729
0.2825,73.338
0.30303,73.338
0.33236,73.142
0.3695,73.142
0.41349,73.142
0.46041,73.142
0.50929,73.142
0.55621,73.142
0.59824,72.947
0.63636,72.947
0.66764,72.751
0.69306,72.36
0.70968,71.969
0.71945,71.578
0.72727,70.991
0.73118,70.6
0.73216,70.013
0.72923,69.426
0.72239,69.035
0.71163,68.449
0.69892,67.862
0.68231,67.471
0.66373,66.884
0.64321,66.493
0.62268,65.906
0.60313,65.515
0.58065,64.928
0.55816,64.537
0.5347,64.146
0.5132,63.559
0.49267,62.973
0.4741,62.386
0.45748,61.995
0.44282,61.408
0.43011,61.017
0.41935,60.43
0.40958,59.844
0.40274,59.452
0.39687,58.866
0.39198,58.475
0.3871,58.083
0.38221,57.888
0.37732,57.888
0.37341,58.475
0.3695,59.844
0.36559,62.777
0.36266,67.862
0.35875,75.489
0.35484,84.289
0.35093,93.481
0.348,102.28
0.34506,110.1
0.34115,116.75
0.33724,122.03
0.33333,125.75
0.32942,128.1
0.32551,129.07
0.3216,129.07
0.31769,128.29
0.31476,126.73
0.31085,124.77
0.30694,122.62
0.30401,120.27
0.30205,117.54
0.29912,114.6
0.29521,111.28
0.29228,107.76
0.28837,103.85
0.28543,99.739
0.28152,95.632
0.27761,91.525
0.2737,87.614
0.27077,84.289
0.26686,81.552
0.26393,79.205
0.26197,77.445
0.261,76.076
0.261,75.098
0.26491,74.511
0.27468,74.12
0.29228,73.924
0.31769,73.729
0.35288,73.729
0.39492,73.729
0.44184,73.729
0.49071,73.729
0.53861,73.729
0.57869,73.729
0.61095,73.729
0.64418,73.533
0.67253,73.533
0.69599,73.142
0.71457,72.751
0.72727,72.36
0.73509,71.969
0.73803,71.578
0.73705,70.991
0.73216,70.404
0.72336,69.818
0.71261,69.426
0.70088,68.84
0.68524,68.253
0.66667,67.862
0.64516,67.471
0.62268,66.884
0.59922,66.493
0.57478,65.906
0.55132,65.515
0.52786,65.124
0.50635,64.537
0.48583,64.146
0.46921,63.559
0.45552,63.168
0.44282,62.777
0.43011,62.19
0.41935,61.799
0.41056,61.408
0.40274,61.017
0.39589,60.626
0.39003,60.235
0.38514,59.844
0.38123,59.844
0.37732,60.235
0.37341,61.408
0.37048,64.146
0.36755,69.035
0.36461,76.467
0.36168,85.463
0.35875,94.85
0.35484,103.85
0.35093,112.06
0.34702,119.1
0.34409,124.97
0.34018,129.07
0.33627,131.62
0.33236,132.79
0.32942,132.99
0.32747,132.01
0.32454,130.64
0.3216,128.68
0.31867,126.73
0.31476,124.38
0.31183,121.84
0.3089,119.1
0.30499,116.17
0.30205,112.84
0.29912,109.52
0.29619,105.61
0.29326,101.5
0.29228,97.393
0.29032,93.481
0.28837,89.765
0.28543,86.636
0.2825,83.898
0.27957,81.747
0.27761,80.183
0.27761,79.009
0.2825,78.031
0.29228,77.64
0.31085,77.249
0.33724,77.249
0.36657,77.054
0.3998,77.249
0.44184,77.249
0.48876,77.249
0.53763,77.249
0.58358,77.249
0.62659,77.054
0.66471,76.858
0.69599,76.662
0.72043,76.076
0.73998,75.489
0.75269,74.902
0.76149,74.316
0.76442,73.533
0.76344,72.947
0.75953,72.164
0.75269,71.578
0.74389,70.991
0.73216,70.404
0.7175,70.013
0.6999,69.426
0.68133,69.035
0.65982,68.449
0.63734,68.057
0.61388,67.471
0.59238,67.08
0.57283,66.493
0.5523,65.906
0.53275,65.319
0.5132,64.733
0.49658,64.146
0.48094,63.755
0.46823,63.168
0.4565,62.582
0.44673,61.995
0.43891,61.408
0.43206,61.017
0.4262,60.43
0.42131,60.235
0.41838,60.039
0.41447,60.235
0.41056,61.213
0.40665,63.364
0.40274,68.057
0.39785,75.293
0.39394,84.289
0.38905,94.068
0.38514,103.46
0.38025,112.26
0.37537,119.88
0.37146,125.95
0.36852,130.44
0.36364,133.18
0.35973,134.75
0.35484,135.14
0.35093,134.55
0.34604,133.18
0.34213,131.23
0.33822,129.27
0.33333,126.92
0.32942,124.38
0.32454,121.64
0.32063,118.71
0.31476,115.58
0.30792,112.26
0.30303,108.54
0.29814,104.43
0.29326,100.13
0.28935,96.024
0.28446,91.917
0.27957,88.396
0.27566,85.463
0.27077,82.921
0.26686,80.965
0.26588,79.4
0.26686,78.227
0.2737,77.445
0.28641,76.858
0.30694,76.662
0.33627,76.467
0.37341,76.271
0.41642,76.271
0.46334,76.271
0.51124,76.076
0.55718,76.076
0.59824,75.88
0.63441,75.685
0.66471,75.489
0.68524,75.098
0.69892,74.707
0.71065,74.316
0.71945,73.729
0.72336,73.142
0.72434,72.555
0.72141,71.969
0.71554,71.382
0.70577,70.795
0.69501,70.209
0.68035,69.622
0.66373,69.035
0.64712,68.644
0.62952,68.057
0.60899,67.666
0.58749,67.08
0.56403,66.688
0.54057,66.102
0.51808,65.515
0.49658,64.928
0.47605,64.537
0.45846,63.95
0.44184,63.364
0.42717,62.777
0.41447,62.19
0.40469,61.799
0.39687,61.213
0.39003,60.821
0.38319,60.235
0.37732,59.844
0.37146,59.648
0.36657,59.452
0.36266,59.648
0.35875,60.626
0.35484,62.973
0.35093,67.471
0.34702,74.511
0.34311,83.507
0.34018,93.481
0.33724,102.87
0.33333,111.67
0.32845,119.1
0.32454,125.16
0.31965,129.66
0.31574,132.4
0.31183,133.96
0.30792,134.16
0.30401,133.38
0.3001,132.01
0.29619,130.05
0.29326,127.9
0.2913,125.55
0.28837,123.01
0.28446,120.27
0.28152,117.14
0.27761,113.82
0.2737,110.3
0.26979,106.39
0.26686,102.48
0.26295,98.175
0.26002,94.068
0.25611,90.157
0.25415,86.832
0.25122,83.898
0.24829,81.552
0.24536,79.791
0.24438,78.227
0.24633,77.249
0.25318,76.467
0.26686,76.076
0.28935,75.685
0.3216,75.489
0.3607,75.293
0.40567,75.293
0.45357,75.293
0.4956,75.098
0.53372,75.098
0.57283,74.902
0.60997,74.707
0.64125,74.511
0.66764,74.12
0.68719,73.924
0.70186,73.533
0.71163,72.947
0.71554,72.36
0.71652,71.773
0.71261,71.186
0.70674,70.6
0.69795,70.209
0.68719,69.622
0.67351,69.035
0.65787,68.644
0.6393,68.057
0.61877,67.471
0.59629,67.08
0.57283,66.493
0.54936,65.906
0.5259,65.515
0.50342,64.928
0.48387,64.537
0.46725,63.95
0.45064,63.364
0.435,62.777
0.42131,62.386
0.4086,61.799
0.39785,61.213
0.38807,60.821
0.38025,60.235
0.37341,59.844
0.36657,59.452
0.36168,59.257
0.35679,59.061
0.35288,59.452
0.34995,60.626
0.34702,62.973
0.34311,67.666
0.34018,74.511
0.33627,83.116
0.33236,92.503
0.32845,101.3
0.32454,109.32
0.32063,116.36
0.31672,121.84
0.31281,125.95
0.30987,128.68
0.30694,129.86
0.30401,130.05
0.3001,129.47
0.29717,127.9
0.29326,126.14
0.28935,123.79
0.28641,121.45
0.2825,118.71
0.27859,115.78
0.27566,112.45
0.27175,108.74
0.26882,105.02
0.26588,100.91
0.26393,96.61
0.26197,92.503
0.25904,88.592
0.25513,85.267
0.25122,82.334
0.24829,79.987
0.24438,78.227
0.24145,76.662
0.24145,75.685
0.24438,75.098
0.2522,74.511
0.26491,74.316
0.28348,74.12
0.31085,73.924
0.34604,73.924
0.38807,73.924
0.43402,73.924
0.48094,73.729
0.5259,73.729
0.56794,73.533
0.60411,73.338
0.63539,73.142
0.65982,72.947
0.6784,72.555
0.69013,72.164
0.69599,71.578
0.69892,70.991
0.69892,70.6
0.69599,70.013
0.68915,69.426
0.67937,68.84
0.66667,68.449
0.652,67.862
0.63343,67.471
0.61388,66.884
0.59238,66.493
0.57185,65.906
0.55132,65.515
0.52981,64.928
0.50831,64.342
0.4868,63.95
0.46725,63.364
0.44868,62.973
0.43304,62.386
0.41838,61.799
0.40567,61.408
0.39492,60.821
0.38612,60.235
0.3783,59.844
0.37243,59.257
0.36755,58.866
0.36266,58.475
0.35875,58.279
0.35484,58.279
0.35093,58.866
0.34702,60.43
0.34311,63.559
0.34018,69.231
0.33627,77.249
0.33333,86.441
0.32942,95.828
0.32649,104.63
0.32454,112.45
0.3216,119.1
0.31769,124.38
0.31378,128.1
0.31085,130.25
0.30694,131.23
0.30303,131.23
0.3001,130.25
0.29619,128.68
0.29326,126.73
0.28935,124.38
0.28641,121.84
0.28348,119.1
0.28152,116.17
0.27859,112.84
0.27566,109.32
0.27273,105.41
0.26882,101.11
0.26588,97.001
0.26295,92.699
0.25904,88.788
0.25513,85.267
0.2522,82.334
0.24829,79.987
0.24536,78.227
0.24438,76.858
0.24438,75.88
0.24829,75.293
0.25709,74.902
0.2737,74.707
0.29814,74.707
0.33529,74.707
0.38221,74.707
0.43109,74.902
0.48192,74.902
0.53079,74.902
0.57771,74.902
0.61388,74.707
0.64321,74.707
0.67058,74.511
0.69404,74.12
0.71261,73.729
0.7263,73.338
0.73412,72.947
0.73803,72.36
0.73803,71.773
0.73314,71.382
0.72532,70.795
0.71457,70.404
0.70186,69.818
0.68719,69.231
0.6696,68.84
0.64907,68.449
0.62659,68.057
0.60313,67.471
0.57869,67.08
0.55425,66.493
0.52981,66.102
0.50733,65.515
0.4868,65.124
0.46823,64.537
0.45161,64.146
0.43891,63.755
0.42815,63.168
0.41838,62.777
0.40958,62.19
0.40176,61.799
0.39589,61.213
0.39003,61.017
0.38514,60.626
0.38123,60.626
0.37732,61.017
0.37341,62.386
0.37048,65.124
0.36755,70.209
0.36461,77.64
0.36168,86.832
0.35875,96.219
0.35582,105.22
0.35191,113.23
0.348,120.47
0.34409,126.14
0.34115,130.25
0.33724,132.79
0.33431,133.96
0.3304,134.16
0.32747,133.18
0.32551,131.62
0.32356,129.86
0.32063,127.71
0.31769,125.36
0.31476,122.82
0.31183,120.08
0.3089,117.14
0.30596,113.82
0.30303,110.3
0.30108,106.58
0.29814,102.67
0.29521,98.37
0.29326,94.459
0.2913,90.743
0.28935,87.81
0.28641,85.072
0.28348,82.921
0.28152,81.356
0.28152,80.183
0.28446,79.205
0.29423,78.618
0.31085,78.227
0.33529,78.227
0.36852,78.031
0.40371,78.031
0.43988,78.031
0.48387,78.031
0.53079,78.031
0.57674,77.836
0.61975,77.64
0.65787,77.249
0.69013,76.858
0.71554,76.271
0.73509,75.685
0.74878,75.098
0.75758,74.511
0.76149,73.729
0.76051,73.142
0.7566,72.555
0.75073,72.164
0.74194,71.578
0.73021,70.991
0.71652,70.6
0.6999,70.013
0.68035,69.622
0.65982,69.035
0.63734,68.644
0.61486,68.057
0.5914,67.471
0.57087,67.08
0.5523,66.297
0.53275,65.906
0.51417,65.124
0.49756,64.537
0.48289,63.95
0.46921,63.559
0.45748,62.973
0.4477,62.386
0.43891,61.799
0.43206,61.408
0.42522,61.017
0.41935,60.626
0.41544,60.43
0.41153,60.626
0.40762,61.799
0.40371,64.537
0.39883,69.818
0.39492,77.64
0.39003,87.027
0.38514,97.001
0.38025,106.58
0.37537,115.19
0.37048,122.62
0.36559,128.68
0.36266,132.79
0.35875,135.53
0.35484,136.7
0.35093,136.9
0.34604,135.92
0.34213,134.55
0.33822,132.79
0.33333,130.64
0.32942,128.29
0.32454,125.75
0.32063,123.01
0.31574,120.08
0.31085,116.75
0.30792,113.23
0.30499,109.52
0.30108,105.41
0.29717,101.11
0.29326,96.806
0.28935,92.894
0.28446,89.179
0.27957,86.245
0.27468,83.703
0.27077,81.747
0.26979,80.183
0.27175,79.009
0.27761,78.227
0.29032,77.64
0.31085,77.249
0.34115,77.054
0.37928,76.858
0.42424,76.858
0.47312,76.662
0.52199,76.662
0.56989,76.662
0.6129,76.467
0.65103,76.271
0.68133,75.88
0.70577,75.489
0.72239,75.098
0.73216,74.707
0.739,74.12
0.74291,73.533
0.74389,73.142
0.74096,72.36
0.73509,71.969
0.7263,71.186
0.71457,70.795
0.6999,70.209
0.68328,69.622
0.66373,69.035
0.64516,68.644
0.62561,68.057
0.60411,67.666
0.58065,67.08
0.55718,66.493
0.53372,65.906
0.51124,65.515
0.49071,64.928
0.47214,64.342
0.45455,63.755
0.43988,63.364
0.4262,62.777
0.41447,62.19
0.40665,61.799
0.3998,61.408
0.39296,60.821
0.3871,60.43
0.38123,60.039
0.37634,60.039
0.37146,60.43
0.36657,61.604
0.36266,64.537
0.35875,69.818
0.35484,77.445
0.35093,86.832
0.34702,96.61
0.34409,106
0.34115,114.41
0.33627,121.64
0.33236,127.31
0.32845,131.23
0.32356,133.57
0.31965,134.75
0.31574,134.75
0.31183,133.77
0.30792,132.2
0.30401,130.25
0.3001,128.1
0.29717,125.55
0.29521,123.01
0.29228,120.08
0.28935,116.95
0.28543,113.43
0.28152,109.71
0.27859,105.8
0.27468,101.5
0.27175,97.197
0.26784,93.09
0.26491,89.374
0.261,86.05
0.25806,83.312
0.25611,81.16
0.25318,79.4
0.2522,78.031
0.25415,77.054
0.26197,76.467
0.27664,76.076
0.3001,75.685
0.33236,75.489
0.37341,75.489
0.41935,75.293
0.46921,75.293
0.51906,75.098
0.56012,75.098
0.59531,75.098
0.62952,74.902
0.6608,74.707
0.68622,74.316
0.70577,73.924
0.72043,73.533
0.72923,72.947
0.73314,72.36
0.73314,71.773
0.72923,71.186
0.72141,70.795
0.71261,70.209
0.69795,69.622
0.6784,69.035
0.65885,68.644
0.6393,68.057
0.61779,67.471
0.59531,67.08
0.57185,66.493
0.54839,65.906
0.52493,65.515
0.50244,64.928
0.48192,64.342
0.46237,63.755
0.44673,63.364
0.43402,62.777
0.42131,62.386
0.40958,61.799
0.39883,61.408
0.39003,60.821
0.38221,60.235
0.37537,59.844
0.3695,59.452
0.36461,59.257
0.3607,59.257
0.35582,59.844
0.35288,61.213
0.35093,64.537
0.348,70.013
0.34506,77.836
0.34115,87.027
0.33822,96.415
0.33431,105.22
0.3304,113.23
0.32649,120.08
0.32258,125.36
0.31867,129.07
0.31476,131.42
0.31085,132.4
0.30792,132.2
0.30596,131.23
0.30303,129.66
0.3001,127.51
0.29619,125.16
0.29326,122.62
0.28935,119.88
0.28543,116.75
0.2825,113.43
0.27859,109.91
0.27566,105.8
0.27175,101.69
0.26979,97.393
0.26882,93.09
0.26588,89.179
0.26295,85.658
0.26002,82.725
0.25611,80.378
0.2522,78.422
0.25024,76.858
0.24927,75.88
0.25318,75.293
0.26197,74.902
0.27859,74.511
0.29912,74.511
0.32454,74.316
0.3607,74.316
0.40274,74.316
0.44966,74.316
0.49658,74.12
0.54252,74.12
0.58456,73.924
0.6217,73.729
0.652,73.533
0.67644,73.142
0.69404,72.751
0.70674,72.36
0.71261,71.773
0.71457,71.186
0.71359,70.795
0.70968,70.209
0.70283,69.622
0.69306,69.035
0.68035,68.644
0.66471,68.057
0.64712,67.471
0.62659,67.08
0.60411,66.493
0.58162,65.906
0.56012,65.515
0.53959,64.928
0.51808,64.537
0.49658,63.95
0.47703,63.364
0.45748,62.973
0.44086,62.386
0.4262,61.799
0.41349,61.408
0.40176,60.821
0.39296,60.235
0.38514,59.844
0.3783,59.452
0.37341,58.866
0.3695,58.67
0.36461,58.475
0.3607,58.67
0.35777,59.452
0.35386,61.408
0.34995,65.515
0.34702,72.164
0.34311,80.574
0.34018,90.157
0.33627,99.348
0.33236,107.95
0.3304,115.38
0.32747,121.84
0.32454,126.53
0.32063,129.66
0.31769,131.42
0.31378,132.01
0.30987,131.62
0.30694,130.05
0.30303,128.29
0.3001,126.14
0.29619,123.79
0.29228,121.06
0.28935,118.12
0.28641,114.99
0.28446,111.47
0.28152,107.76
0.27859,103.85
0.27566,99.544
0.27273,95.241
0.26882,91.134
0.26588,87.419
0.26197,84.289
0.25904,81.552
0.25513,79.596
0.2522,77.836
0.25024,76.662
0.25122,75.685
0.25611,75.098
0.26588,74.902
0.2825,74.707
0.3089,74.707
0.34311,74.902
0.38416,74.902
0.43011,74.902
0.47898,74.902
0.5259,74.902
0.57087,74.902
0.60997,74.902
0.64027,74.707
0.66276,74.316
0.68328,74.12
0.69892,73.729
0.71065,73.338
0.7175,72.751
0.71945,72.164
0.71848,71.773
0.71359,71.186
0.70479,70.6
0.69404,70.209
0.67937,69.818
0.66373,69.231
0.64809,68.84
0.62854,68.253
0.60704,67.862
0.58358,67.275
0.56012,66.884
0.53666,66.297
0.51417,65.906
0.49169,65.319
0.47214,64.733
0.45455,64.342
0.43891,63.95
0.42522,63.364
0.41447,62.973
0.40567,62.582
0.39785,61.995
0.39101,61.604
0.38514,61.213
0.38025,60.821
0.37537,60.626
0.37146,60.821
0.36852,61.408
0.36461,63.559
0.36168,67.471
0.35875,73.924
0.35582,82.334
0.35386,91.917
0.35093,101.5
0.348,110.3
0.34506,117.93
0.34213,124.58
0.33822,129.66
0.33529,132.99
0.33236,134.94
0.32845,135.53
0.32551,135.14
0.32258,133.96
0.31965,132.2
0.31672,130.25
0.31574,127.9
0.31281,125.55
0.30987,122.82
0.30792,120.08
0.30499,116.95
0.30205,113.62
0.29912,109.91
0.29717,105.8
0.29423,101.69
0.29228,97.393
0.28935,93.481
0.28739,89.765
0.28641,86.636
0.28348,84.289
0.28055,82.138
0.27957,80.769
0.27957,79.596
0.28446,78.814
0.29521,78.227
0.31378,78.031
0.34018,77.836
0.37439,77.836
0.41642,77.836
0.46237,77.64
0.50342,77.64
0.54154,77.445
0.5826,77.249
0.6217,76.858
0.65591,76.467
0.68524,76.076
0.7087,75.489
0.72532,75.098
0.73803,74.511
0.74487,73.924
0.7478,73.338
0.74682,72.751
0.74291,72.164
0.73509,71.773
0.7263,71.186
0.71457,70.6
0.6999,70.209
0.68328,69.622
0.66373,69.035
0.64321,68.644
0.62072,68.057
0.59824,67.471
0.57478,66.884
0.5523,66.297
0.53079,65.711
0.5132,65.124
0.49756,64.537
0.48192,63.95
0.46725,63.364
0.45455,62.973
0.44282,62.386
0.43304,61.799
0.42522,61.408
0.41838,60.821
0.41251,60.43
0.40762,60.039
0.40274,60.039
0.39883,60.626
0.39492,62.386
0.39101,65.906
0.3871,72.164
0.38319,80.574
0.37928,90.352
0.37439,100.13
0.3695,109.32
0.36461,117.54
0.3607,124.58
0.35582,129.86
0.35191,133.38
0.34702,135.53
0.34409,136.31
0.34115,136.11
0.33724,134.94
0.33333,133.38
0.32845,131.42
0.32454,129.07
0.32063,126.73
0.31574,123.99
0.31183,121.06
0.30792,117.93
0.30303,114.6
0.29912,110.69
0.29521,106.78
0.29326,102.67
0.28935,98.37
0.28641,94.068
0.2825,90.157
0.27761,86.832
0.2737,84.094
0.26882,81.747
0.26588,79.987
0.26393,78.618
0.26686,77.64
0.27566,76.858
0.28935,76.467
0.30792,76.271
0.33627,76.271
0.37341,76.076
0.43988,76.076
0.48583,76.076
0.53275,75.88
0.59629,75.88
0.63148,75.685
0.6608,75.489
0.68328,75.098
0.70479,74.902
0.71261,74.316
0.71652,73.924
0.71457,73.338
0.70968,72.751
0.70186,72.164
0.68622,71.578
0.67155,70.991
0.65494,70.404
0.63636,69.818
0.61584,69.231
0.59629,68.84
0.57674,68.253
0.55523,67.666
0.52199,67.08
0.49951,66.688
0.47898,66.102
0.45161,65.515
0.43597,64.928
0.42229,64.342
0.40958,63.755
0.39883,63.168
0.39003,62.582
0.38416,61.995
0.3783,61.604
0.37341,61.213
0.36852,60.626
0.36461,60.235
0.35973,59.844
0.35582,59.452
0.35288,59.257
0.34897,59.061
0.34506,59.648
0.34115,61.213
0.33724,64.537
0.33431,70.404
0.33138,78.618
0.32845,88.201
0.32454,97.979
0.32063,107.17
0.31672,115.38
0.31281,122.23
0.3089,127.51
0.30499,131.23
0.30108,133.38
0.29717,134.16
0.29326,133.96
0.29032,132.79
0.28739,131.03
0.28543,128.88
0.2825,126.53
0.27957,123.99
0.27566,121.25
0.27273,118.12
0.26882,114.8
0.26588,111.28
0.26197,107.56
0.25904,103.46
0.25513,99.153
0.2522,94.85
0.24927,90.743
0.24829,87.027
0.24731,84.094
0.24927,81.552
0.25709,79.4
0.27077,77.836
0.29326,76.662
0.32356,75.88
0.36266,75.293
0.40665,75.098
0.45455,74.902
0.50244,74.707
0.54741,74.707
0.58358,74.511
0.6129,74.511
0.64125,74.511
0.66471,74.316
0.68328,74.12
0.69599,73.924
0.70479,73.729
0.7087,73.338
0.7087,72.947
0.70577,72.555
0.69892,71.969
0.68915,71.578
0.6784,70.991
0.66471,70.404
0.64907,70.013
0.6305,69.426
0.60997,68.84
0.58847,68.253
0.565,67.862
0.54154,67.275
0.51906,66.688
0.49658,66.297
0.47605,65.711
0.45748,65.319
0.43988,64.733
0.42717,64.146
0.41544,63.559
0.40469,62.973
0.39589,62.582
0.3871,61.995
0.37928,61.408
0.37341,61.017
0.36755,60.43
0.36266,59.844
0.35777,59.452
0.35386,59.061
0.35093,58.67
0.348,58.475
0.34604,58.475
0.34311,59.061
0.3392,60.626
0.33627,63.95
0.33236,69.818
0.32942,77.64
0.32551,86.832
0.3216,96.024
0.31769,104.63
0.31378,112.26
0.31085,118.9
0.30694,123.99
0.30401,127.51
0.30205,129.66
0.3001,130.64
0.29619,130.25
0.29326,129.27
0.29032,127.51
0.28641,125.55
0.28348,123.01
0.27957,120.47
0.27664,117.54
0.27273,114.21
0.26979,110.69
0.26784,106.98
0.26588,102.87
0.26393,98.566
0.26002,94.459
0.25709,90.157
0.25415,86.441
0.25122,83.116
0.25024,80.574
0.2522,78.422
0.26002,76.662
0.27468,75.489
0.29814,74.707
0.32942,74.12
0.36168,73.729
0.39589,73.533
0.43793,73.338
0.48289,73.338
0.52786,73.338
0.56891,73.338
0.60508,73.338
0.63636,73.338
0.6608,73.142
0.67937,73.142
0.69306,72.751
0.70088,72.555
0.70381,72.164
0.70283,71.773
0.6999,71.382
0.69306,70.795
0.68328,70.209
0.67058,69.622
0.65494,69.035
0.63734,68.644
0.61779,68.057
0.59629,67.471
0.57283,67.08
0.55034,66.493
0.52688,66.102
0.50733,65.515
0.48876,65.124
0.47116,64.537
0.45357,64.146
0.43793,63.559
0.42326,62.973
0.41153,62.386
0.40078,61.995
0.39198,61.408
0.38416,61.017
0.37732,60.43
0.37146,59.844
0.36755,59.452
0.36461,59.061
0.36168,58.475
0.35777,58.083
0.35484,57.692
0.35093,57.497
0.348,57.692
0.34409,58.475
0.34115,60.43
0.33724,64.537
0.33431,70.991
0.3304,79.4
0.32747,88.788
0.32551,97.979
0.32454,106.58
0.32356,114.02
0.3216,120.47
0.31867,125.36
0.31476,128.68
0.31183,130.44
0.30792,131.03
0.30401,130.64
0.3001,129.47
0.29717,127.51
0.29326,125.36
0.2913,122.82
0.28935,120.27
0.28641,117.34
0.28348,114.02
0.28055,110.69
0.27664,106.78
0.2737,102.67
0.26979,98.566
0.26686,94.263
0.26295,90.352
0.25904,86.636
0.25611,83.507
0.25611,80.965
0.26002,79.009
0.26784,77.445
0.28348,76.271
0.30694,75.489
0.34018,74.902
0.38025,74.707
0.42717,74.511
0.47703,74.511
0.52688,74.511
0.57478,74.511
0.61779,74.511
0.65494,74.707
0.68133,74.707
0.70186,74.707
0.71848,74.511
0.73216,74.316
0.74096,74.12
0.74487,73.729
0.74487,73.338
0.74096,72.751
0.73314,72.36
0.72141,71.773
0.70772,71.186
0.69013,70.795
0.67351,70.209
0.65494,69.622
0.63343,69.231
0.61095,68.644
0.58651,68.253
0.56305,67.666
0.53959,67.275
0.51711,66.884
0.49658,66.297
0.47801,65.906
0.46237,65.319
0.4477,64.733
0.435,64.342
0.4262,63.755
0.41838,63.364
0.41153,62.973
0.40469,62.386
0.3998,61.995
0.39492,61.408
0.39003,61.017
0.3871,60.626
0.38319,60.235
0.38025,60.039
0.37732,60.039
0.37439,60.821
0.37146,62.582
0.3695,66.102
0.36657,72.164
0.36364,80.574
0.3607,89.961
0.35679,99.348
0.35386,108.15
0.34995,115.97
0.34702,122.62
0.34409,127.71
0.34115,131.03
0.33724,133.18
0.33431,133.77
0.33236,133.38
0.3304,132.2
0.32845,130.44
0.32551,128.49
0.32258,126.34
0.32063,123.79
0.31769,121.25
0.31476,118.32
0.31183,115.19
0.3089,111.86
0.30596,108.15
0.30401,104.04
0.30205,99.935
0.3001,95.828
0.29717,91.917
0.29521,88.396
0.29521,85.463
0.29814,82.921
0.30596,81.16
0.3216,79.596
0.34506,78.422
0.3783,77.64
0.4174,77.054
0.46334,76.662
0.51124,76.467
0.55425,76.271
0.5914,76.271
0.6305,76.076
0.66667,76.076
0.69697,76.076
0.72239,75.88
0.74194,75.685
0.75562,75.489
0.76442,75.098
0.76833,74.707
0.76833,74.316
0.7654,73.729
0.75855,73.142
0.74878,72.555
0.73705,71.969
0.72239,71.382
0.70577,70.795
0.68719,70.209
0.66569,69.622
0.64321,69.035
0.61975,68.449
0.59629,67.862
0.57283,67.471
0.55034,66.884
0.52981,66.297
0.51222,65.906
0.49756,65.319
0.48289,64.537
0.47019,64.146
0.45846,63.559
0.4477,62.973
0.43891,62.386
0.43109,61.995
0.42424,61.408
0.41838,61.017
0.41251,60.43
0.40762,60.039
0.40371,59.648
0.40078,59.257
0.39687,59.257
0.39296,59.452
0.38807,60.626
0.38416,63.168
0.37928,68.449
0.37439,76.076
0.3695,85.463
0.36461,95.241
0.35973,104.82
0.35484,113.23
0.34897,120.67
0.34506,126.53
0.34213,130.83
0.33822,133.38
0.33431,134.55
0.32942,134.55
0.32551,133.57
0.32063,132.01
0.31574,130.05
0.31183,127.9
0.30694,125.55
0.30303,123.01
0.29912,120.08
0.29619,116.95
0.29423,113.62
0.29032,109.91
0.28739,106
0.28348,101.69
0.27859,97.393
0.27468,93.286
0.27077,89.179
0.26882,85.854
0.26882,82.921
0.2737,80.769
0.28641,78.814
0.30694,77.445
0.33236,76.467
0.36168,75.685
0.40078,75.293
0.44673,74.902
0.4956,74.902
0.54448,74.707
0.59042,74.707
0.6305,74.707
0.66471,74.707
0.69306,74.707
0.71457,74.511
0.72923,74.316
0.73803,73.924
0.74194,73.533
0.74291,73.338
0.73998,72.751
0.73509,72.164
0.72727,71.773
0.71554,70.991
0.70186,70.6
0.68622,70.013
0.66764,69.426
0.64614,68.84
0.62366,68.253
0.6002,67.666
0.57869,67.275
0.55816,66.884
0.53666,66.297
0.51417,65.906
0.49365,65.319
0.4741,64.733
0.4565,64.146
0.44184,63.559
0.42815,62.973
0.41642,62.582
0.40567,61.995
0.39785,61.408
0.39101,60.821
0.38612,60.43
0.38123,59.844
0.37634,59.452
0.37243,58.866
0.36755,58.475
0.36364,58.279
0.3607,58.083
0.35679,58.279
0.35288,59.452
0.34897,61.799
0.34506,66.297
0.34213,73.338
0.3392,82.138
0.33529,91.721
0.33138,100.72
0.32747,108.93
0.32356,116.36
0.31965,122.03
0.31574,126.34
0.31183,128.88
0.30792,130.25
0.30401,130.44
0.3001,129.66
0.29619,128.29
0.29326,126.14
0.2913,123.79
0.28837,121.25
0.28543,118.32
0.28152,115.38
0.27859,112.06
0.27566,108.34
0.27175,104.43
0.26784,100.52
0.26197,96.219
0.25806,91.917
0.25415,88.005
0.25122,84.681
0.25024,81.747
0.25024,79.4
0.25318,77.445
0.26197,75.88
0.27761,74.902
0.30205,74.12
0.33529,73.533
0.37439,73.338
0.41935,73.142
0.46628,73.142
0.5132,73.142
0.55718,73.142
0.5914,73.142
0.61975,72.947
0.64516,72.947
0.66667,72.751
0.68328,72.555
0.69501,72.36
0.70186,72.164
0.70381,71.773
0.70186,71.186
0.69697,70.795
0.68817,70.209
0.67644,69.622
0.66373,69.035
0.64907,68.449
0.63245,67.862
0.6129,67.471
0.5914,66.884
0.56891,66.493
0.54643,65.906
0.52297,65.515
0.50147,64.928
0.48094,64.537
0.46139,64.146
0.44379,63.559
0.42913,62.973
0.41642,62.582
0.40762,61.995
0.39785,61.408
0.39003,61.017
0.38221,60.43
0.37634,59.844
0.37146,59.452
0.36657,58.866
0.36168,58.475
0.35777,57.888
0.35484,57.497
0.35093,57.301
0.348,57.301
0.34604,57.497
0.34311,58.475
0.34018,61.017
0.33724,65.711
0.33333,72.555
0.32942,81.356
0.32551,90.548
0.32258,99.348
0.31867,107.37
0.31476,114.41
0.31085,120.08
0.30792,124.19
0.30499,126.73
0.30303,127.9
0.3001,128.1
0.29717,127.12
0.29423,125.55
0.2913,123.4
0.28739,121.06
0.28446,118.51
0.28152,115.78
0.27761,112.65
0.27468,109.32
0.27175,105.61
0.26979,101.69
0.26784,97.588
0.26588,93.286
0.26295,89.179
0.25904,85.463
0.25611,82.138
0.25318,79.4
0.25318,77.249
0.25709,75.489
0.26686,74.12
0.28446,73.338
0.30987,72.555
0.34311,72.164
0.3783,72.164
0.41349,71.969
0.4565,71.969
0.50147,71.969
0.54545,71.969
0.58651,71.969
0.62072,71.969
0.65005,71.969
0.67253,71.773
0.69013,71.578
0.70088,71.382
0.70772,70.991
0.7087,70.6
0.70577,70.209
0.70088,69.818
0.69208,69.231
0.68133,68.644
0.66667,68.057
0.65005,67.666
0.63148,67.08
0.61095,66.493
0.58847,66.102
0.565,65.515
0.54154,64.928
0.51906,64.537
0.49951,64.146
0.48289,63.559
0.46628,63.168
0.44966,62.582
0.435,61.995
0.42131,61.604
0.41056,61.213
0.40078,60.626
0.39198,60.235
0.38514,59.648
0.37928,59.257
0.37341,58.67
0.3695,58.279
0.36657,57.888
0.36364,57.497
0.3607,57.106
0.35777,56.91
0.35386,56.91
0.35093,57.497
0.34702,58.866
0.34409,61.995
0.34018,67.471
0.33627,75.098
0.33236,84.094
0.32942,93.09
0.32649,101.5
0.32356,109.13
0.32063,115.78
0.31769,121.06
0.31378,124.58
0.31085,126.73
0.30792,127.71
0.30401,127.51
0.30108,126.53
0.29717,124.77
0.29423,122.62
0.29032,120.27
0.28837,117.73
0.28641,114.8
0.28348,111.67
0.28152,108.15
0.27859,104.43
0.27566,100.52
0.27175,96.415
0.26882,92.112
0.26588,88.201
0.26197,84.681
0.25904,81.747
0.25709,79.205
0.25904,77.249
0.26393,75.685
0.27468,74.707
0.29228,73.924
0.31769,73.533
0.35191,73.142
0.39198,73.142
0.43695,73.142
0.48387,73.142
0.52981,73.142
0.5738,73.338
0.61193,73.338
0.64418,73.533
0.66764,73.338
0.68426,73.338
0.69795,73.142
0.70772,72.751
0.71359,72.555
0.71554,72.164
0.71359,71.578
0.70772,71.186
0.69892,70.6
0.68719,70.013
0.67155,69.622
0.65396,69.035
0.63636,68.644
0.61877,68.057
0.59726,67.666
0.57576,67.275
0.5523,66.688
0.53079,66.297
0.50929,65.906
0.48974,65.515
0.47214,64.928
0.45552,64.537
0.44184,63.95
0.43011,63.364
0.41935,62.973
0.41251,62.582
0.40567,61.995
0.40078,61.408
0.39492,61.017
0.39101,60.626
0.3871,60.235
0.38416,59.844
0.38123,59.452
0.3783,59.257
0.37537,59.257
0.37243,59.648
0.3695,61.017
0.36657,64.146
0.36461,69.818
0.36168,77.64
0.35875,86.832
0.35582,96.219
0.35288,105.02
0.34995,113.04
0.34702,119.88
0.34409,125.36
0.34115,129.27
0.33822,131.42
0.33529,132.2
0.33236,132.01
0.3304,130.83
0.32942,128.88
0.32649,126.92
0.32454,124.77
0.3216,122.43
0.31965,119.88
0.31672,117.14
0.31378,114.21
0.31183,110.89
0.3089,107.17
0.30694,103.46
0.30401,99.348
0.30205,95.241
0.3001,91.33
0.29814,87.81
0.29717,84.876
0.29814,82.334
0.30303,80.378
0.31378,78.814
0.33236,77.64
0.35875,76.662
0.39394,76.271
0.435,75.88
0.48094,75.685
0.52786,75.489
0.56794,75.489
0.60215,75.489
0.64418,75.489
0.68622,75.489
0.71945,75.293
0.74389,75.098
0.76149,74.902
0.77322,74.511
0.77908,74.12
0.78104,73.533
0.77908,73.142
0.77322,72.555
0.7654,71.969
0.75464,71.186
0.74096,70.6
0.72532,70.209
0.70674,69.622
0.68524,69.035
0.66276,68.449
0.6393,67.862
0.61584,67.471
0.5914,66.884
0.56891,66.297
0.54741,65.906
0.52688,65.319
0.51026,64.733
0.49658,64.146
0.48289,63.559
0.47019,62.973
0.45943,62.386
0.44966,61.995
0.44184,61.408
0.43402,61.017
0.42815,60.43
0.42229,59.844
0.4174,59.452
0.41251,59.061
0.4086,58.866
0.40469,58.67
0.40078,58.866
0.39687,59.844
0.39198,62.386
0.3871,67.08
0.38221,74.316
0.37634,83.507
0.37146,93.286
0.36559,102.67
0.3607,111.08
0.35582,118.51
0.35093,124.38
0.34702,128.68
0.34409,131.42
0.3392,132.59
0.33529,132.79
0.3304,131.81
0.32649,130.25
0.3216,128.29
0.31769,125.95
0.31281,123.6
0.3089,121.06
0.30401,118.32
0.3001,115.19
0.29717,111.86
0.29423,108.15
0.2913,104.24
0.28739,100.13
0.28348,95.828
0.27957,91.721
0.27468,87.81
0.27175,84.681
0.27077,81.943
0.2737,79.791
0.28348,78.031
0.30108,76.662
0.32845,75.685
0.35777,75.098
0.39101,74.707
0.43402,74.511
0.48192,74.511
0.53079,74.316
0.57771,74.316
0.62072,74.316
0.65787,74.12
0.68817,74.12
0.71163,73.924
0.72923,73.729
0.74096,73.533
0.74585,73.142
0.74682,72.751
0.74487,72.164
0.74096,71.773
0.73314,71.186
0.72336,70.6
0.70968,70.013
0.69404,69.426
0.67644,68.84
0.65591,68.253
0.63343,67.862
0.60997,67.275
0.58553,66.884
0.56403,66.297
0.5435,65.906
0.52297,65.319
0.50147,64.928
0.48192,64.342
0.46432,63.755
0.44868,63.168
0.435,62.777
0.42326,61.995
0.41349,61.604
0.40469,61.017
0.39687,60.626
0.39101,60.039
0.3871,59.648
0.38221,59.061
0.3783,58.67
0.37439,58.279
0.3695,58.083
0.36559,57.888
0.36168,58.279
0.35777,59.452
0.35386,61.799
0.34995,66.688
0.34506,73.729
0.34115,82.725
0.33724,92.112
0.33431,101.11
0.33138,109.13
0.32747,116.36
0.32356,122.03
0.31965,125.95
0.31574,128.49
0.31183,129.66
0.30792,129.66
0.30401,128.68
0.3001,127.12
0.29717,124.97
0.29423,122.62
0.29228,120.08
0.28935,117.14
0.28641,114.21
0.28348,110.89
0.27957,107.37
0.27566,103.46
0.27273,99.348
0.26882,95.046
0.26491,90.939
0.26197,87.223
0.25806,83.898
0.25611,80.965
0.25611,78.618
0.26002,76.858
0.26882,75.489
0.28446,74.511
0.3089,73.924
0.34115,73.533
0.38221,73.338
0.42815,73.142
0.47703,73.142
0.52688,72.947
0.57283,72.947
0.61486,72.947
0.64712,72.947
0.67155,72.947
0.69404,72.751
0.71065,72.555
0.72336,72.164
0.73118,71.969
0.73412,71.578
0.73314,70.991
0.72825,70.6
0.71945,70.013
0.70772,69.426
0.69306,69.035
0.67742,68.449
0.6608,67.862
0.64125,67.471
0.61877,66.884
0.59531,66.493
0.57185,65.906
0.54741,65.515
0.52395,65.124
0.50244,64.537
0.48192,63.95
0.46432,63.559
0.44868,62.973
0.43402,62.386
0.42326,61.995
0.41447,61.408
0.40665,60.821
0.39883,60.235
0.39198,59.844
0.38612,59.257
0.38123,58.866
0.37732,58.475
0.37243,58.083
0.36852,57.692
0.36461,57.497
0.36168,57.497
0.35875,57.888
0.35582,59.257
0.35288,61.995
0.34995,66.884
0.34604,74.12
0.34213,82.725
0.33822,91.721
0.33431,100.33
0.3304,107.95
0.32649,114.6
0.32356,119.88
0.31965,123.6
0.31574,125.75
0.31378,126.73
0.31183,126.53
0.3089,125.55
0.30499,123.79
0.30205,121.64
0.29912,119.3
0.29521,116.56
0.29228,113.62
0.28837,110.5
0.28446,107.17
0.28152,103.26
0.27761,99.348
0.27566,95.046
0.2737,90.939
0.27077,87.027
0.26784,83.507
0.26491,80.574
0.26295,78.031
0.26295,76.076
0.26686,74.707
0.27664,73.533
0.29326,72.751
0.31965,72.36
0.35386,72.164
0.39492,71.969
0.435,71.773
0.4741,71.773
0.51808,71.773
0.56305,71.773
0.60411,71.773
0.64125,71.773
0.67155,71.773
0.69501,71.578
0.71261,71.382
0.72532,71.186
0.73118,70.795
0.73314,70.404
0.73118,70.013
0.72532,69.426
0.71652,69.035
0.70479,68.449
0.69013,67.862
0.67155,67.471
0.652,66.884
0.62952,66.297
0.60704,65.906
0.57771,65.319
0.54545,64.733
0.51906,64.342
0.4956,63.95
0.47703,63.364
0.46139,62.973
0.44673,62.386
0.43304,61.799
0.42033,61.408
0.40958,60.821
0.40078,60.235
0.39198,59.844
0.38514,59.452
0.38025,58.866
0.37537,58.279
0.37048,57.888
0.36755,57.497
0.36461,57.106
0.36266,56.715
0.35973,56.715
0.35582,56.91
0.35288,57.497
0.34995,59.648
0.34702,63.364
0.34311,69.818
0.34018,78.031
0.33627,87.223
0.33236,96.219
0.32845,104.24
0.32551,111.67
0.32356,117.93
0.32063,122.43
0.31769,125.55
0.31378,127.31
0.31085,127.71
0.30694,127.12
0.30401,125.75
0.3001,123.99
0.29717,121.64
0.29326,119.1
0.29032,116.36
0.28739,113.43
0.28641,110.3
0.28348,106.78
0.28055,102.87
0.27761,98.957
0.27468,94.655
0.27175,90.548
0.26882,86.832
0.26491,83.507
0.26197,80.769
0.261,78.422
0.26295,76.662
0.26979,75.293
0.28055,74.316
0.29717,73.729
0.32258,73.338
0.35679,73.142
0.39687,73.142
0.44184,73.142
0.48876,73.142
0.5347,73.338
0.57771,73.338
0.61584,73.533
0.64809,73.533
0.67351,73.338
0.6911,73.338
0.70186,73.142
0.71065,72.751
0.71554,72.555
0.71652,72.164
0.71359,71.578
0.70772,70.991
0.69795,70.6
0.68622,70.209
0.67058,69.622
0.652,69.035
0.63245,68.644
0.61095,68.253
0.59042,67.666
0.57185,67.275
0.55034,66.884
0.52884,66.297
0.50831,65.906
0.48876,65.319
0.47116,64.928
0.45552,64.537
0.44184,63.95
0.43011,63.364
0.42033,62.973
0.41153,62.582
0.40567,61.995
0.40078,61.604
0.39589,61.213
0.39198,60.626
0.38807,60.235
0.38514,59.844
0.38221,59.452
0.37928,59.452
0.37634,59.452
0.37341,60.235
0.37048,61.995
0.36755,65.906
0.36364,72.164
0.36168,80.378
0.35973,89.765
0.35679,98.957
0.35386,107.37
0.35093,114.99
0.348,121.45
0.34506,126.34
0.34213,129.47
0.3392,131.23
0.33627,131.62
0.33431,131.03
0.33138,129.86
0.32942,127.9
0.32747,125.75
0.32551,123.4
0.32356,120.86
0.32063,118.12
0.31769,115.38
0.31574,112.06
0.31281,108.74
0.31085,105.02
0.30792,101.11
0.30499,97.001
0.30303,93.09
0.30108,89.374
0.29912,86.05
0.29814,83.507
0.3001,81.16
0.30499,79.596
0.31672,78.227
0.33627,77.249
0.36266,76.662
0.39785,76.076
0.43891,75.88
0.48387,75.685
0.52981,75.685
0.57478,75.685
0.61193,75.685
0.64125,75.685
0.67058,75.489
0.69501,75.489
0.71554,75.293
0.73021,75.098
0.73998,74.707
0.74585,74.12
0.74682,73.729
0.74389,73.142
0.739,72.555
0.73021,71.969
0.71945,71.382
0.70186,70.6
0.68524,70.013
0.67058,69.426
0.65298,68.84
0.63245,68.449
0.61095,67.862
0.58944,67.471
0.56696,66.884
0.54643,66.493
0.5259,65.906
0.50733,65.319
0.49071,64.733
0.47801,64.146
0.46628,63.559
0.45552,62.973
0.44673,62.582
0.43793,61.995
0.43109,61.408
0.42424,61.017
0.41838,60.626
0.41349,60.039
0.4086,59.648
0.40469,59.257
0.3998,59.061
0.39687,59.061
0.39394,59.648
0.39003,61.213
0.38514,64.537
0.38025,70.6
0.37537,78.814
0.37048,88.396
0.36559,97.979
0.3607,107.17
0.35582,115.19
0.35093,122.03
0.34702,127.31
0.34213,130.83
0.33822,132.79
0.33529,133.57
0.33138,133.18
0.32747,131.81
0.32356,130.05
0.31965,127.9
0.31574,125.55
0.31085,123.01
0.30694,120.27
0.30303,117.14
0.29912,114.02
0.29521,110.5
0.29228,106.78
0.29032,102.87
0.28739,98.761
0.28348,94.459
0.27957,90.548
0.27664,87.027
0.2737,83.898
0.27273,81.356
0.27664,79.596
0.28739,78.031
0.30499,76.858
0.33236,76.076
0.36657,75.489
0.40176,75.293
0.43793,75.098
0.48094,75.098
0.5259,75.098
0.56891,75.098
0.60802,74.902
0.64223,74.902
0.6696,74.902
0.6911,74.707
0.70577,74.511
0.71652,74.316
0.72141,73.729
0.72141,73.338
0.71848,72.751
0.71359,72.36
0.70577,71.773
0.69501,70.991
0.68133,70.404
0.66667,69.818
0.64907,69.231
0.62854,68.84
0.60802,68.253
0.58553,67.666
0.56207,67.275
0.53959,66.688
0.52004,66.297
0.50244,65.711
0.48387,65.319
0.46725,64.733
0.45064,64.146
0.43695,63.559
0.42424,62.973
0.41349,62.386
0.40469,61.799
0.39687,61.408
0.39003,60.821
0.38416,60.43
0.37928,59.844
0.37634,59.452
0.37243,59.061
0.36755,58.67
0.36168,58.475
0.35679,58.67
0.35191,59.257
0.348,61.017
0.34409,64.537
0.3392,70.795
0.33529,79.009
0.33138,88.201
0.32649,97.588
0.32356,106
0.32063,113.62
0.31769,120.08
0.31378,124.97
0.30987,128.1
0.30596,129.66
0.30205,130.25
0.29814,129.66
0.29521,128.29
0.2913,126.34
0.28739,124.19
0.28446,121.64
0.28152,119.1
0.27957,116.17
0.27664,112.84
0.2737,109.32
0.26979,105.61
0.26588,101.69
0.26295,97.393
0.26002,93.286
0.25709,89.179
0.25318,85.463
0.25024,82.334
0.24829,79.791
0.25024,77.836
0.25513,76.467
0.26491,75.293
0.28152,74.511
0.30596,73.924
0.3392,73.729
0.37928,73.533
0.42424,73.533
0.47116,73.533
0.51808,73.533
0.56109,73.533
0.59922,73.338
0.63148,73.338
0.65494,73.338
0.67058,73.142
0.68426,72.947
0.69404,72.555
0.6999,72.36
0.70088,71.969
0.69892,71.382
0.69306,70.795
0.68426,70.404
0.67253,69.818
0.65787,69.231
0.64027,68.644
0.62072,68.057
0.60215,67.471
0.5826,67.08
0.56109,66.493
0.53861,66.102
0.51613,65.515
0.49462,65.124
0.4741,64.537
0.45552,64.146
0.43891,63.559
0.42424,62.973
0.41153,62.582
0.40078,61.995
0.39198,61.408
0.38612,61.017
0.37928,60.626
0.37341,60.039
0.36852,59.648
0.36364,59.061
0.35973,58.67
0.35679,58.279
0.35288,58.083
0.34995,57.888
0.34604,58.279
0.34311,59.257
0.34018,61.408
0.33724,65.711
0.33431,72.36
0.3304,80.769
0.32649,89.961
0.32356,98.957
0.32063,106.98
0.31672,114.21
0.31281,120.08
0.30987,124.38
0.30596,127.12
0.30303,128.49
0.29912,128.68
0.29717,128.1
0.29521,126.53
0.29228,124.58
0.28935,122.23
0.28543,119.69
0.28152,116.95
0.27859,114.02
0.27566,110.69
0.27175,106.98
0.26882,103.06
0.26588,98.957
0.26295,94.655
0.26002,90.548
0.25806,86.832
0.25611,83.507
0.25415,80.769
0.25415,78.422
0.25709,76.662
0.26686,75.293
0.28152,74.511
0.30792,73.729
0.3392,73.338
0.3783,73.142
0.435,73.142
0.48094,73.142
0.52102,73.142
0.56109,73.142
0.59824,73.142
0.6305,73.142
0.65787,73.142
0.6784,72.947
0.69306,72.751
0.70283,72.555
0.70772,72.36
0.7087,71.969
0.70674,71.578
0.70186,70.991
0.6911,70.6
0.67742,70.013
0.66276,69.426
0.64418,68.84
0.62463,68.449
0.60313,67.862
0.57967,67.275
0.55718,66.884
0.53372,66.297
0.51124,65.906
0.49071,65.319
0.47116,64.928
0.45552,64.342
0.44184,63.755
0.42913,63.364
0.4174,62.777
0.40665,62.19
0.39785,61.604
0.39003,61.213
0.38416,60.626
0.3783,60.235
0.37341,59.648
0.3695,59.257
0.36559,58.67
0.36266,58.279
0.3607,58.083
0.35777,57.888
0.35386,57.888
0.35093,58.475
0.34702,60.235
0.34409,63.95
0.34018,69.818
0.33724,77.836
0.33333,87.027
0.32942,96.219
0.32649,104.63
0.32258,112.26
0.31965,118.51
0.31672,123.4
0.31378,126.92
0.31085,128.68
0.30694,129.47
0.30401,129.07
0.3001,127.9
0.29717,126.14
0.29326,123.99
0.28935,121.64
0.28641,118.9
0.2825,116.17
0.28055,113.23
0.27859,109.71
0.27566,106
0.27273,102.09
0.26979,97.979
0.26686,93.677
0.26295,89.765
0.25904,86.05
0.25709,82.921
0.25709,80.378
0.26197,78.227
0.27273,76.662
0.2913,75.489
0.31378,74.707
0.34115,74.316
0.37732,73.924
0.42033,73.729
0.46628,73.729
0.5132,73.729
0.55816,73.729
0.59922,73.924
0.63441,73.924
0.66276,73.924
0.68524,73.729
0.70186,73.729
0.71163,73.533
0.71554,73.338
0.7175,73.142
0.71652,72.751
0.71261,72.36
0.70479,71.773
0.69404,71.382
0.67937,70.795
0.66276,70.404
0.64418,69.818
0.62366,69.231
0.60117,68.84
0.57771,68.253
0.55621,67.862
0.53666,67.471
0.51613,66.884
0.4956,66.493
0.47703,65.906
0.45943,65.515
0.44379,65.124
0.43011,64.537
0.41838,64.146
0.4086,63.755
0.3998,63.168
0.39198,62.777
0.3871,62.386
0.38221,61.799
0.3783,61.408
0.37439,61.017
0.37048,60.43
0.36755,60.235
0.36461,60.039
0.36168,60.235
0.35875,61.017
0.35484,62.777
0.35191,66.493
0.34897,72.751
0.34506,81.16
0.34311,90.548
0.34018,99.935
0.33724,108.74
0.33431,116.36
0.33138,123.01
0.32747,128.1
0.32454,131.42
0.3216,133.18
0.31867,133.77
0.31672,133.38
0.31672,132.2
0.31476,130.44
0.31378,128.49
0.31183,126.14
0.30987,123.6
0.30694,120.86
0.30499,117.93
0.30205,114.8
0.29912,111.47
0.29619,107.76
0.29326,103.85
0.29032,99.544
0.28739,95.437
0.28446,91.721
0.28348,88.201
0.28543,85.267
0.29032,82.921
0.30108,81.16
0.31867,79.791
0.34604,78.814
0.38123,78.227
0.42424,77.836
0.47116,77.64
0.52199,77.64
0.57087,77.64
0.61779,77.836
0.65982,77.836
0.6911,77.836
0.71457,77.64
0.73705,77.64
0.75464,77.249
0.76735,76.858
0.77517,76.467
0.7781,75.88
0.77713,75.293
0.77322,74.707
0.7654,73.924
0.75464,73.338
0.74096,72.555
0.72434,71.969
0.70674,71.382
0.68915,70.991
0.66862,70.404
0.64614,69.818
0.62268,69.426
0.59824,69.035
0.57478,68.449
0.55327,68.057
0.53275,67.471
0.51417,66.884
0.49756,66.297
0.48289,65.906
0.47214,65.319
0.46237,64.733
0.45455,64.146
0.44673,63.559
0.43988,62.973
0.43402,62.386
0.42913,61.799
0.42424,61.408
0.41935,60.821
0.41544,60.43
0.41056,60.235
0.40665,60.235
0.40176,61.017
0.39785,62.973
0.39394,66.884
0.39003,73.338
0.38514,82.138
0.38025,91.917
0.37439,101.5
0.3695,110.69
0.36461,118.71
0.3607,125.36
0.35582,130.25
0.35093,133.57
0.34702,135.33
0.34311,135.92
0.34018,135.33
0.33724,133.96
0.33236,132.2
0.32845,130.05
0.32356,127.9
0.31867,125.36
0.31476,122.82
0.30987,120.08
0.30596,116.95
0.30108,113.62
0.29717,109.91
0.29326,106
0.29032,101.89
0.28641,97.588
0.28152,93.481
0.27859,89.765
0.27761,86.441
0.28152,83.898
0.2913,81.552
0.30987,79.791
0.33724,78.618
0.37341,77.836
0.41642,77.054
0.46432,76.662
0.50831,76.467
0.54839,76.467
0.59042,76.271
0.6305,76.271
0.66667,76.271
0.69599,76.076
0.71945,76.076
0.73607,75.88
0.7478,75.489
0.75367,75.293
0.75562,74.902
0.75367,74.316
0.74878,73.924
0.74096,73.338
0.73021,72.751
0.7175,72.164
0.70186,71.578
0.68426,70.991
0.66471,70.6
0.64223,70.013
0.61877,69.426
0.59531,68.84
0.56989,68.253
0.54643,67.862
0.52297,67.275
0.50342,66.884
0.48583,66.297
0.46921,65.711
0.45357,65.124
0.43891,64.537
0.4262,63.95
0.41544,63.364
0.40567,62.973
0.39785,62.386
0.39003,61.799
0.38416,61.408
0.37928,60.821
0.37537,60.235
0.37146,59.844
0.36852,59.648
0.36461,59.452
0.3607,59.844
0.35582,60.821
0.35191,63.364
0.34702,68.253
0.34311,75.685
0.33822,85.072
0.33431,94.85
0.3304,104.24
0.32551,113.04
0.32258,120.47
0.31965,126.34
0.31672,130.44
0.31281,133.18
0.3089,134.35
0.30499,134.55
0.30108,133.77
0.29717,132.2
0.29326,130.25
0.29032,128.1
0.28641,125.55
0.2825,122.82
0.27957,120.08
0.27761,116.95
0.27468,113.62
0.27175,110.1
0.26784,106
0.26491,101.89
0.261,97.588
0.25709,93.481
0.25415,89.57
0.2522,86.245
0.25415,83.507
0.26197,81.16
0.27664,79.4
0.29619,78.031
0.3216,77.054
0.35777,76.467
0.40078,75.88
0.44966,75.685
0.50049,75.489
0.55034,75.489
0.59629,75.293
0.63734,75.098
0.67058,75.098
0.69795,75.098
0.71945,74.902
0.73216,74.707
0.739,74.511
0.74389,74.12
0.74487,73.729
0.74291,73.338
0.73705,72.751
0.72825,72.36
0.71652,71.773
0.70186,71.186
0.68426,70.6
0.66471,70.013
0.64321,69.426
0.61975,68.84
0.59824,68.449
0.57771,67.862
0.55425,67.471
0.53177,66.884
0.50929,66.297
0.48778,65.906
0.46921,65.319
0.45161,64.733
0.43597,64.342
0.42229,63.755
0.41153,63.168
0.40176,62.582
0.39394,62.19
0.38807,61.604
0.38221,61.213
0.37732,60.626
0.37243,60.039
0.36755,59.648
0.36364,59.257
0.35875,59.061
0.35484,59.061
0.35093,59.648
0.34702,61.017
0.34311,63.95
0.3392,69.231
0.33627,76.858
0.33333,86.05
0.32942,95.632
0.32551,104.43
0.3216,112.45
0.31769,119.3
0.31378,124.38
0.30987,128.1
0.30596,130.25
0.30205,131.23
0.29912,131.03
0.29521,130.05
0.29228,128.29
0.29032,126.14
0.28739,123.79
0.28446,121.25
0.28152,118.51
0.27761,115.58
0.27468,112.26
0.27077,108.74
0.26784,104.82
0.26393,100.72
0.26002,96.415
0.25611,92.112
0.2522,88.396
0.25024,85.072
0.25122,82.138
0.25318,79.791
0.261,78.031
0.27468,76.662
0.29619,75.489
0.32649,74.902
0.36364,74.511
0.40665,74.316
0.45259,74.12
0.49951,74.12
0.5435,73.924
0.57967,73.924
0.60899,73.924
0.63636,73.924
0.65982,73.924
0.6784,73.729
0.69208,73.533
0.70088,73.338
0.70577,72.947
0.70577,72.555
0.70186,72.164
0.69501,71.773
0.68524,71.186
0.67253,70.6
0.65885,70.013
0.64321,69.426
0.62463,69.035
0.60508,68.449
0.5826,67.862
0.56012,67.471
0.53763,66.884
0.51515,66.493
0.49365,65.906
0.4741,65.515
0.45552,64.928
0.43988,64.537
0.42717,63.95
0.41642,63.168
0.40665,62.777
0.39785,62.19
0.39003,61.799
0.38319,61.213
0.37732,60.821
0.37146,60.235
0.36657,59.648
0.36266,59.257
0.35973,58.67
0.35582,58.475
0.35288,58.279
0.34995,58.475
0.348,59.452
0.34506,61.604
0.34213,65.906
0.33822,72.555
0.33529,81.356
0.33138,90.939
0.32845,100.33
0.32454,108.74
0.3216,116.17
0.31769,122.23
0.31378,126.73
0.31183,129.66
0.30987,131.23
0.30694,131.62
0.30401,131.03
0.3001,129.66
0.29717,127.9
0.29326,125.75
0.29032,123.4
0.28641,120.86
0.28348,117.93
0.28055,114.8
0.27664,111.28
0.27468,107.56
0.27273,103.65
0.27077,99.348
0.26686,95.046
0.26393,90.939
0.26002,87.419
0.25806,84.094
0.25806,81.356
0.26197,79.205
0.27273,77.64
0.29228,76.467
0.31867,75.489
0.35484,75.098
0.39003,74.902
0.42717,74.707
0.47019,74.707
0.51613,74.707
0.55914,74.707
0.59922,74.707
0.63441,74.902
0.66276,74.902
0.68524,74.707
0.70186,74.707
0.71359,74.316
0.71945,74.12
0.72141,73.729
0.71848,73.533
0.71359,73.142
0.70674,72.555
0.69599,72.164
0.68231,71.578
0.66667,70.991
0.64809,70.404
0.62757,70.013
0.60606,69.426
0.5826,69.035
0.56012,68.449
0.53666,68.057
0.51613,67.471
0.49853,67.08
0.47996,66.493
0.46334,66.102
0.44673,65.515
0.43304,65.124
0.42131,64.537
0.41056,64.146
0.40176,63.559
0.39492,63.168
0.38905,62.777
0.38319,62.19
0.37928,61.799
0.37634,61.408
0.37341,61.017
0.37048,60.626
0.36755,60.43
0.36364,60.626
0.3607,61.408
0.35777,63.364
0.35484,67.275
0.35191,73.729
0.348,82.138
0.34506,91.721
0.34115,101.11
0.3392,109.71
0.33724,117.54
0.33431,123.99
0.33138,128.68
0.32747,131.81
0.32454,133.57
0.3216,134.16
0.31867,133.57
0.31574,132.4
0.31281,130.64
0.30987,128.68
0.30694,126.34
0.30499,123.99
0.30303,121.25
0.30108,118.51
0.29814,115.38
0.29619,111.86
0.29326,108.15
0.29032,104.24
0.28739,100.13
0.28446,95.828
0.2825,91.917
0.28055,88.592
0.2825,85.658
0.28739,83.312
0.29717,81.356
0.31085,79.987
0.33333,79.009
0.36461,78.227
0.40274,77.836
0.44673,77.64
0.49365,77.64
0.53959,77.64
0.58456,77.64
0.62366,77.64
0.65787,77.64
0.68622,77.445
0.70577,77.445
0.71848,77.054
0.72923,76.662
0.73607,76.271
0.73998,75.88
0.73998,75.098
0.73607,74.511
0.73021,73.924
0.72043,73.142
0.7087,72.555
0.69404,71.969
0.67742,71.382
0.65885,70.795
0.64027,70.404
0.6217,69.818
0.6002,69.231
0.57869,68.84
0.55718,68.449
0.53568,67.862
0.51613,67.471
0.49853,66.884
0.48289,66.297
0.46823,65.711
0.4565,65.124
0.44575,64.537
0.43793,63.95
0.43109,63.364
0.42522,62.777
0.41935,62.386
0.41447,61.799
0.40958,61.213
0.40567,60.821
0.40078,60.235
0.39687,60.039
0.39296,60.039
0.38905,60.821
0.38416,62.973
0.38025,67.08
0.37634,73.729
0.37243,82.529
0.36852,92.503
0.36461,102.28
0.35973,111.47
0.35582,119.49
0.35093,125.95
0.34702,130.83
0.34311,133.96
0.33822,135.72
0.33431,136.11
0.3304,135.53
0.32747,134.35
0.32454,132.4
0.32063,130.44
0.31672,128.1
0.31281,125.75
0.3089,123.01
0.30401,120.08
0.3001,116.95
0.29619,113.62
0.2913,109.91
0.28739,106
0.28348,101.69
0.27859,97.393
0.27566,93.286
0.2737,89.374
0.27273,86.245
0.27566,83.507
0.28348,81.356
0.29912,79.596
0.32356,78.227
0.35582,77.445
0.39589,76.858
0.44086,76.467
0.48778,76.271
0.53372,76.271
0.57185,76.076
0.60411,76.076
0.63539,76.076
0.66276,75.88
0.68524,75.685
0.70186,75.489
0.71359,75.293
0.72043,74.902
0.72336,74.511
0.72239,74.12
0.71945,73.533
0.71359,73.142
0.70479,72.36
0.69306,71.969
0.68035,71.186
0.66373,70.795
0.64516,70.209
0.62463,69.622
0.60313,69.035
0.57967,68.449
0.55621,68.057
0.53275,67.471
0.50929,67.08
0.48778,66.493
0.46823,65.906
0.45161,65.319
0.43793,64.733
0.42522,64.146
0.41349,63.559
0.40274,62.973
0.39394,62.582
0.38612,61.995
0.37928,61.408
0.37341,61.017
0.36852,60.626
0.36364,60.039
0.35973,59.648
0.35582,59.257
0.35386,59.257
0.34995,59.452
0.34702,60.43
0.34311,62.973
0.33822,67.666
0.33431,74.902
0.3304,84.094
0.32551,93.872
0.3216,103.26
0.31769,111.86
0.31281,119.1
0.3089,124.97
0.30596,129.07
0.30401,131.81
0.30108,133.18
0.29717,133.18
0.29326,132.4
0.29032,130.83
0.28641,128.88
0.2825,126.73
0.27859,124.38
0.27566,121.64
0.27175,118.71
0.26882,115.58
0.26588,112.06
0.26393,108.34
0.26197,104.43
0.25806,100.13
0.25513,96.024
0.25122,91.721
0.24731,88.005
0.24536,84.681
0.24633,81.943
0.25122,79.791
0.26295,78.227
0.2825,76.858
0.31183,76.076
0.34311,75.489
0.37732,75.098
0.42033,74.902
0.46725,74.707
0.51515,74.707
0.56012,74.511
0.6002,74.511
0.63441,74.316
0.66276,74.316
0.68426,74.12
0.6999,73.924
0.71065,73.729
0.71457,73.338
0.71457,72.947
0.71261,72.555
0.70772,72.164
0.6999,71.578
0.68915,70.991
0.67546,70.404
0.65885,69.818
0.64027,69.231
0.61975,68.644
0.59824,68.057
0.57478,67.666
0.55034,67.08
0.52981,66.688
0.51026,66.102
0.48974,65.711
0.47019,65.124
0.45161,64.537
0.43597,64.146
0.42131,63.559
0.4086,62.973
0.39785,62.582
0.38807,61.995
0.38025,61.408
0.37341,61.017
0.36852,60.43
0.36461,59.844
0.3607,59.452
0.35679,59.061
0.35288,58.67
0.34897,58.475
0.34506,58.475
0.34115,58.866
0.33822,60.039
0.33431,62.973
0.3304,68.253
0.32649,75.88
0.32258,85.072
0.31965,94.459
0.31769,103.26
0.31378,111.47
0.31085,118.32
0.30694,123.6
0.30303,127.31
0.3001,129.66
0.29619,130.44
0.29326,130.44
0.28935,129.47
0.28641,127.71
0.2825,125.75
0.28055,123.4
0.27859,120.86
0.27566,117.93
0.27273,114.99
0.26882,111.67
0.26588,107.95
0.26295,103.85
0.26002,99.739
0.25611,95.437
0.25318,91.33
0.24927,87.419
0.24633,84.094
0.24536,81.356
0.24731,79.009
0.25318,77.249
0.26393,75.88
0.28348,74.902
0.31085,74.316
0.34604,73.924
0.38905,73.729
0.43597,73.533
0.48387,73.533
0.53079,73.533
0.57478,73.533
0.6129,73.533
0.64223,73.533
0.66373,73.338
0.68231,73.142
0.69697,72.947
0.70674,72.751
0.71261,72.36
0.71359,72.164
0.71065,71.578
0.70479,71.186
0.69501,70.6
0.68328,70.013
0.66764,69.426
0.64907,68.84
0.63148,68.253
0.6129,67.862
0.5914,67.275
0.56891,66.688
0.54545,66.102
0.52199,65.711
0.49951,65.319
0.47801,64.733
0.45943,64.342
0.44184,63.755
0.42717,63.168
0.41447,62.777
0.40469,62.19
0.39589,61.604
0.38905,61.213
0.38123,60.626
0.37537,60.039
0.37048,59.648
0.36559,59.061
0.3607,58.67
0.35679,58.279
0.35386,57.888
0.34995,57.888
0.34702,58.083
0.34311,58.67
0.34115,60.821
0.33822,64.733
0.33529,70.991
0.33236,79.4
0.32845,88.788
0.32454,97.979
0.32063,106.39
0.31672,113.82
0.31281,120.08
0.3089,124.77
0.30596,127.9
0.30205,129.47
0.29912,130.05
0.29717,129.47
0.29423,128.29
0.2913,126.34
0.28739,124.19
0.28446,121.64
0.28055,119.1
0.27761,116.17
0.2737,113.04
0.27077,109.52
0.26686,105.8
0.26393,101.89
0.26002,97.588
0.25806,93.286
0.25611,89.374
0.25318,85.658
0.25122,82.725
0.25024,80.183
0.25318,78.031
0.261,76.467
0.27664,75.293
0.3001,74.707
0.33333,74.12
0.37341,73.729
0.41838,73.729
0.46041,73.729
0.49951,73.729
0.54252,73.729
0.58358,73.729
0.62072,73.729
0.652,73.924
0.67742,73.729
0.69697,73.729
0.71065,73.533
0.71848,73.338
0.72239,72.947
0.72141,72.555
0.71652,72.164
0.70968,71.578
0.69892,70.991
0.68622,70.6
0.67058,70.013
0.652,69.426
0.63148,69.035
0.60997,68.449
0.58651,68.057
0.56207,67.471
0.53861,67.08
0.51613,66.688
0.49365,66.102
0.47605,65.711
0.46041,65.124
0.44575,64.733
0.43206,64.342
0.42229,63.755
0.41642,63.168
0.4086,62.777
0.40274,62.386
0.39589,61.799
0.39101,61.408
0.38612,61.017
0.38221,60.43
0.3783,60.039
0.37634,59.844
0.37341,59.648
0.37048,59.844
0.36657,60.43
0.36364,62.386
0.3607,66.102
0.35679,72.555
0.35386,80.965
0.34995,90.548
0.34702,99.935
0.34311,108.74
0.34018,116.36
0.33724,122.82
0.33529,127.71
0.33236,131.03
0.32942,132.79
0.32649,133.18
0.32356,132.79
0.31965,131.62
0.31672,129.86
0.31378,127.9
0.31085,125.55
0.30792,123.01
0.30499,120.47
0.30303,117.54
0.30108,114.41
0.29912,110.89
0.29717,107.17
0.29423,103.06
0.2913,98.761
0.28837,94.655
0.28543,90.743
0.28348,87.419
0.28348,84.485
0.28739,82.334
0.29717,80.378
0.31476,79.009
0.33627,78.031
0.36266,77.445
0.3998,77.054
0.44379,76.858
0.49267,76.662
0.54252,76.662
0.59042,76.858
0.63539,76.858
0.67351,76.662
0.70577,76.662
0.73118,76.662
0.75073,76.271
0.76246,75.88
0.76833,75.489
0.77224,75.098
0.77224,74.511
0.76931,73.729
0.76344,73.142
0.75464,72.36
0.74194,71.773
0.72727,71.186
0.70968,70.6
0.69013,70.013
0.66764,69.622
0.64516,69.035
0.62366,68.644
0.60313,68.057
0.58065,67.471
0.55914,67.08
0.53763,66.493
0.51808,65.906
0.50049,65.515
0.48485,64.733
0.47116,64.342
0.45943,63.559
0.44966,62.973
0.44184,62.386
0.43597,61.799
0.43011,61.408
0.42522,60.821
0.42033,60.43
0.41642,59.844
0.41153,59.452
0.40762,59.257
0.40274,59.061
0.39883,59.648
0.39394,61.213
0.39003,64.733
0.38514,70.795
0.38025,79.205
0.37634,88.983
0.37243,98.761
0.36852,107.95
0.36364,116.17
0.35875,123.01
0.35386,128.29
0.34897,131.81
0.34506,133.77
0.34018,134.55
0.33627,134.16
0.33138,132.99
0.32649,131.23
0.32356,129.07
0.32063,126.92
0.31672,124.38
0.31183,121.64
0.30694,118.71
0.30303,115.58
0.29814,112.26
0.29423,108.54
0.28935,104.63
0.28446,100.52
0.28055,96.219
0.27566,91.917
0.27175,88.201
0.26979,84.876
0.27077,82.334
0.27664,80.183
0.28837,78.422
0.3089,77.249
0.3392,76.271
0.37732,75.685
0.42229,75.293
0.47116,75.098
0.52102,74.902
0.56891,74.902
0.61388,74.902
0.64712,74.902
0.67351,74.707
0.69795,74.707
0.7175,74.511
0.73216,74.316
0.74194,73.924
0.74682,73.533
0.74682,73.142
0.74389,72.751
0.73803,72.164
0.72825,71.578
0.71652,70.795
0.70186,70.404
0.68622,69.818
0.6696,69.231
0.64907,68.644
0.62757,68.057
0.60313,67.666
0.57869,67.08
0.55425,66.688
0.53079,66.102
0.50733,65.515
0.4868,65.124
0.46725,64.537
0.45064,63.95
0.43695,63.364
0.4262,62.973
0.41544,62.386
0.40567,61.799
0.39785,61.213
0.39003,60.821
0.38416,60.235
0.3783,59.844
0.37341,59.257
0.3695,58.866
0.36461,58.475
0.3607,58.279
0.35679,58.279
0.35386,58.67
0.35093,60.235
0.34702,63.755
0.34311,69.622
0.3392,77.836
0.33529,87.223
0.33138,96.806
0.32649,105.8
0.32258,113.82
0.31867,120.67
0.31476,125.75
0.30987,129.27
0.30694,131.23
0.30499,132.01
0.30205,131.62
0.29814,130.25
0.29521,128.49
0.2913,126.34
0.28739,123.79
0.28348,121.06
0.27957,118.32
0.27664,115.19
0.27273,111.86
0.26979,108.15
0.26588,104.24
0.26393,100.13
0.26197,96.024
0.25904,91.917
0.25513,88.005
0.2522,84.681
0.25024,81.747
0.25122,79.4
0.25709,77.64
0.27077,76.271
0.29326,75.293
0.32454,74.511
0.36364,74.12
0.40371,73.924
0.44282,73.729
0.48974,73.533
0.53763,73.533
0.5826,73.533
0.62366,73.533
0.65787,73.338
0.68524,73.338
0.70674,73.142
0.72239,72.947
0.73216,72.751
0.73607,72.36
0.73607,71.969
0.73314,71.382
0.7263,70.795
0.7175,70.404
0.70479,69.818
0.69013,69.035
0.67253,68.644
0.652,68.057
0.6305,67.471
0.60704,67.08
0.5826,66.493
0.55816,65.906
0.53372,65.515
0.5132,65.124
0.49462,64.537
0.47605,64.146
0.45846,63.559
0.44282,62.973
0.42815,62.582
0.41544,61.995
0.40567,61.408
0.39589,61.017
0.38807,60.43
0.38221,59.844
0.37634,59.452
0.37243,59.061
0.36852,58.475
0.36461,58.083
0.3607,57.692
0.35777,57.497
0.35386,57.301
0.34995,57.692
0.34604,58.67
0.34311,61.017
0.3392,65.711
0.33431,72.555
0.3304,81.16
0.32551,90.352
0.3216,99.348
0.31965,107.37
0.31574,114.41
0.31183,120.08
0.3089,123.99
0.30499,126.73
0.30205,127.9
0.29814,127.9
0.29521,127.12
0.29228,125.36
0.28837,123.4
0.28543,121.06
0.2825,118.32
0.28055,115.58
0.27859,112.45
0.27566,108.93
0.27273,105.41
0.26882,101.5
0.26588,97.393
0.26295,93.09
0.26002,88.983
0.25611,85.267
0.25318,82.138
0.25122,79.4
0.25122,77.249
0.25513,75.685
0.26295,74.316
0.27761,73.533
0.3001,72.751
0.3304,72.36
0.36852,72.164
0.41153,72.164
0.45846,72.164
0.5044,72.164
0.54839,72.164
0.58847,72.164
0.62268,72.164
0.64809,71.969
0.66569,71.969
0.68133,71.773
0.69306,71.382
0.6999,71.186
0.70283,70.795
0.70186,70.404
0.69795,69.818
0.69013,69.231
0.6784,68.84
0.66471,68.253
0.64809,67.666
0.62854,67.275
0.60997,66.688
0.5914,66.102
0.56989,65.711
0.54839,65.124
0.5259,64.733
0.5044,64.146
0.48387,63.755
0.46432,63.168
0.4477,62.777
0.43304,62.386
0.42033,61.799
0.4086,61.408
0.3998,60.821
0.39296,60.235
0.3871,59.844
0.38123,59.257
0.37537,58.866
0.37146,58.279
0.36657,57.888
0.36364,57.497
0.35973,57.106
0.35679,56.91
0.35386,56.715
0.34995,57.106
0.34702,58.083
0.34409,60.235
0.34213,64.733
0.3392,71.578
0.33529,80.183
0.33236,89.57
0.32845,98.37
0.32454,106.39
0.32063,113.43
0.31769,119.3
0.31378,123.4
0.30987,126.14
0.30694,127.51
0.30401,127.71
0.30205,126.92
0.3001,125.36
0.29717,123.21
0.29423,120.86
0.29032,118.32
0.28739,115.58
0.28446,112.45
0.28152,109.13
0.27761,105.61
0.27468,101.69
0.27077,97.784
0.26784,93.481
0.26491,89.374
0.26295,85.658
0.261,82.529
0.25904,79.791
0.25806,77.64
0.261,75.88
0.26882,74.511
0.28348,73.729
0.30694,73.142
0.33822,72.751
0.37732,72.555
0.42131,72.555
0.46237,72.555
0.50049,72.751
0.54154,72.751
0.58162,72.751
0.61681,72.947
0.64809,72.751
0.67253,72.751
0.6911,72.555
0.70479,72.36
0.71261,72.164
0.71652,71.773
0.71554,71.382
0.71065,70.795
0.70283,70.404
0.69306,69.818
0.68035,69.231
0.66471,68.644
0.64712,68.253
0.62659,67.666
0.60508,67.275
0.5826,66.884
0.55914,66.297
0.53666,65.906
0.51515,65.515
0.49462,64.928
0.47703,64.537
0.46237,64.146
0.44868,63.559
0.43597,63.168
0.42522,62.777
0.41544,62.19
0.40665,61.799
0.3998,61.408
0.39394,60.821
0.38905,60.43
0.38416,59.844
0.38123,59.452
0.37732,59.061
0.37537,58.67
0.37243,58.475
0.37048,58.67
0.36755,59.257
0.36461,60.821
0.36168,64.146
0.35875,69.818
0.35582,77.836
0.35191,87.027
0.348,96.415
0.34506,105.02
0.34115,112.65
0.3392,119.3
0.33724,124.19
0.33431,127.71
0.33138,129.66
0.32845,130.44
0.32551,130.05
0.32258,128.88
0.31965,127.31
0.31769,125.36
0.31476,123.01
0.31183,120.67
0.3089,118.12
0.30694,115.19
0.30499,112.06
0.30401,108.74
0.30205,105.02
0.3001,101.11
0.29717,97.001
0.29423,92.894
0.2913,89.179
0.28935,85.854
0.28837,82.921
0.28935,80.769
0.29619,78.814
0.30987,77.445
0.32649,76.467
0.348,75.88
0.37928,75.293
0.41838,75.098
0.46334,75.098
0.50929,75.098
0.55523,75.098
0.59726,75.293
0.63539,75.293
0.66862,75.293
0.69501,75.098
0.71554,74.902
0.72825,74.707
0.73607,74.12
0.74096,73.729
0.74291,73.142
0.74096,72.555
0.73705,71.969
0.72923,71.186
0.71848,70.6
0.70577,70.013
0.69013,69.426
0.67155,68.84
0.652,68.253
0.6305,67.666
0.60997,67.275
0.5914,66.884
0.56989,66.493
0.54936,65.906
0.52884,65.515
0.51026,64.928
0.49365,64.537
0.47801,63.95
0.46432,63.364
0.45357,62.777
0.44379,62.19
0.435,61.604
0.42913,61.017
0.42424,60.43
0.41935,60.039
0.41447,59.452
0.41056,59.061
0.40567,58.475
0.40176,58.279
0.39785,58.083
0.39394,58.083
0.39003,58.866
0.38612,60.821
0.38221,65.124
0.37732,71.969
0.37341,80.769
0.37048,90.743
0.36559,100.33
0.36168,109.13
0.35679,116.75
0.35288,123.01
0.34897,127.51
0.34409,130.25
0.34018,131.81
0.33627,132.01
0.33236,131.23
0.32845,129.86
0.32454,127.9
0.32258,125.75
0.31867,123.4
0.31476,120.86
0.30987,118.12
0.30596,115.19
0.30303,112.06
0.29912,108.54
0.29521,104.82
0.29032,100.72
0.28641,96.61
0.28152,92.308
0.27761,88.592
0.27468,85.072
0.2737,82.138
0.27468,79.791
0.28055,77.836
0.29228,76.467
0.31281,75.293
0.34213,74.707
0.37928,74.12
0.42229,73.729
0.46921,73.533
0.51711,73.533
0.56305,73.533
0.59922,73.533
0.62854,73.533
0.65689,73.533
0.68035,73.338
0.6999,73.142
0.71359,72.947
0.72239,72.555
0.7263,72.164
0.7263,71.773
0.72336,71.186
0.71652,70.6
0.70674,70.013
0.69501,69.426
0.68133,68.84
0.66667,68.253
0.64907,67.666
0.62952,67.275
0.60802,66.688
0.58553,66.102
0.56207,65.711
0.53861,65.124
0.51613,64.733
0.49462,64.146
0.47507,63.559
0.45748,63.168
0.44379,62.582
0.43206,61.995
0.42033,61.604
0.41056,61.017
0.40078,60.43
0.39296,59.844
0.38612,59.452
0.38025,58.866
0.37537,58.475
0.37146,58.083
0.36657,57.692
0.36266,57.301
0.35973,57.106
0.35679,56.91
0.35386,57.301
0.35093,58.279
0.348,60.821
0.34409,65.711
0.3392,72.947
0.33529,81.747
0.33138,91.33
0.32747,100.13
0.32258,108.34
0.31867,115.19
0.31476,120.67
0.31183,124.38
0.30987,126.73
0.30694,127.9
0.30303,127.71
0.3001,126.73
0.29619,124.97
0.29326,122.82
0.28935,120.27
0.28543,117.73
0.28152,114.8
0.27859,111.86
0.27468,108.54
0.27175,105.02
0.26979,101.11
0.26784,97.197
0.26588,93.09
0.26295,88.983
0.25904,85.267
0.25611,82.138
0.25318,79.4
0.2522,77.249
0.25611,75.489
0.26491,74.12
0.28055,73.142
0.30499,72.555
0.33333,72.164
0.36461,71.969
0.40469,71.773
0.44966,71.773
0.49658,71.578
0.54154,71.578
0.5826,71.578
0.61877,71.578
0.64907,71.578
0.67155,71.382
0.68915,71.186
0.70088,70.795
0.70674,70.6
0.7087,70.209
0.70674,69.818
0.70186,69.231
0.69404,68.644
0.68328,68.057
0.67058,67.471
0.65494,67.08
0.63636,66.493
0.61584,65.906
0.59433,65.515
0.57185,64.928
0.54839,64.537
0.52884,64.146
0.51026,63.559
0.49071,63.168
0.47214,62.777
0.45455,62.19
0.43891,61.604
0.42522,61.213
0.41349,60.626
0.40274,60.039
0.39394,59.648
0.3871,59.257
0.38025,58.67
0.37537,58.279
0.37146,57.692
0.36755,57.301
0.36461,56.91
0.36168,56.519
0.35777,56.128
0.35484,56.128
0.35093,56.323
0.348,57.106
0.34409,58.866
0.34115,62.777
0.33724,68.84
0.33333,76.858
0.3304,85.658
0.32845,94.263
0.32454,102.28
0.3216,109.13
0.31769,114.99
0.31378,119.49
0.30987,122.43
0.30694,123.79
0.30303,124.19
0.3001,123.6
0.29717,122.23
0.29423,120.27
0.29032,117.93
0.28837,115.38
0.28641,112.45
0.28446,109.52
0.28152,106.19
0.27761,102.48
0.27468,98.566
0.27175,94.655
0.26882,90.352
0.26491,86.441
0.26197,82.921
0.25904,79.791
0.25611,77.249
0.25513,75.098
0.25709,73.533
0.26197,72.36
0.2737,71.578
0.29228,70.991
0.31867,70.6
0.35386,70.404
0.39492,70.404
0.43988,70.404
0.48583,70.404
0.53079,70.404
0.57283,70.404
0.60508,70.404
0.63148,70.404
0.65494,70.209
0.67449,70.209
0.68915,69.818
0.69892,69.622
0.70479,69.231
0.70577,68.84
0.70186,68.253
0.69501,67.862
0.68524,67.275
0.67253,66.688
0.65591,66.102
0.6393,65.711
0.62268,65.319
0.60215,64.733
0.58065,64.342
0.55816,63.755
0.5347,63.364
0.5132,62.973
0.49267,62.386
0.47312,61.995
0.45552,61.604
0.44086,61.017
0.42717,60.43
0.4174,59.844
0.4086,59.452
0.40078,59.061
0.39394,58.475
0.38807,58.083
0.38221,57.692
0.37732,57.106
0.37341,56.715
0.37048,56.323
0.36657,55.932
0.36364,55.737
0.3607,55.737
0.35679,55.932
0.35484,56.91
0.35288,59.257
0.34995,63.559
0.34604,70.209
0.34311,78.422
0.3392,87.419
0.33529,95.828
0.33138,103.65
0.32845,110.3
0.32454,115.78
0.32063,119.88
0.31672,122.43
0.31476,123.6
0.31281,123.79
0.30987,123.01
0.30694,121.64
0.30303,119.69
0.3001,117.54
0.29619,114.8
0.29326,112.06
0.28935,108.93
0.28641,105.8
0.28348,102.28
0.28055,98.37
0.27664,94.263
0.27468,90.157
0.2737,86.245
0.27077,82.725
0.26784,79.791
0.26491,77.249
0.26393,75.293
0.26588,73.729
0.27273,72.555
0.28641,71.773
0.30792,71.382
0.33724,70.991
0.37634,70.795
0.41642,70.795
0.45552,70.991
0.49951,70.991
0.54545,71.186
0.58944,71.186
0.62757,71.382
0.6608,71.382
0.68817,71.186
0.7087,70.991
0.72336,70.795
0.73314,70.6
0.73705,70.209
0.73705,69.818
0.73314,69.426
0.7263,68.84
0.71554,68.449
0.70283,67.862
0.68622,67.471
0.66764,66.884
0.64614,66.493
0.62366,66.102
0.6002,65.711
0.57576,65.124
0.5523,64.733
0.52884,64.342
0.51026,63.95
0.49365,63.559
0.47703,62.973
0.46139,62.582
0.4477,61.995
0.43597,61.604
0.42522,61.213
0.41642,60.626
0.40958,60.235
0.40274,59.844
0.39785,59.257
0.39296,58.866
0.39003,58.475
0.3871,58.083
0.38514,57.888
0.38221,57.692
0.37928,57.888
0.37634,58.475
0.37341,60.235
0.3695,63.95
0.36657,70.209
0.36266,78.227
0.35875,87.419
0.35582,96.61
0.35191,104.82
0.34995,112.06
0.34702,118.32
0.34506,122.82
0.34213,125.95
0.3392,127.71
0.33627,128.1
0.33236,127.71
0.32942,126.34
0.32649,124.38
0.32356,122.43
0.32063,120.08
0.31769,117.54
0.31476,114.8
0.31281,111.86
0.31085,108.74
0.3089,105.22
0.30596,101.5
0.30401,97.588
0.30108,93.677
0.29717,89.961
0.29423,86.441
0.2913,83.507
0.29032,81.16
0.29228,79.009
0.29912,77.64
0.30987,76.467
0.32551,75.489
0.35093,75.098
0.38514,74.902
0.42717,74.707
0.4741,74.707
0.52297,74.902
0.57087,74.902
0.61584,74.902
0.65689,74.902
0.6911,74.707
0.71848,74.707
0.73998,74.511
0.75367,74.12
0.76149,73.729
0.76637,73.338
0.76833,72.751
0.76637,72.164
0.76149,71.382
0.75367,70.6
0.74194,70.013
0.72825,69.426
0.71163,68.84
0.69208,68.253
0.67058,67.666
0.65103,67.08
0.63148,66.688
0.60997,66.102
0.58749,65.711
0.56598,65.319
0.54545,64.733
0.52688,64.342
0.50929,63.95
0.49462,63.364
0.48094,62.973
0.47019,62.386
0.46041,61.799
0.45161,61.213
0.44575,60.626
0.44086,60.039
0.43597,59.648
0.43109,59.061
0.4262,58.67
0.42229,58.279
0.4174,58.083
0.41349,57.888
0.40958,58.279
0.40469,59.844
0.40078,63.168
0.39589,68.84
0.39198,76.858
0.38807,86.245
0.38416,95.632
0.37928,104.43
0.37439,112.45
0.3695,119.1
0.36461,124.19
0.35973,127.51
0.35582,129.47
0.35093,130.25
0.34604,129.86
0.34213,128.68
0.33822,126.92
0.33529,124.77
0.33236,122.62
0.32747,120.08
0.32356,117.54
0.31965,114.8
0.31476,111.67
0.31085,108.15
0.30596,104.43
0.30205,100.72
0.29717,96.61
0.29228,92.503
0.28739,88.592
0.28446,85.267
0.2825,82.334
0.28152,79.791
0.28348,78.031
0.2913,76.467
0.30694,75.293
0.33138,74.707
0.36461,74.12
0.40567,73.729
0.45161,73.533
0.49951,73.533
0.54741,73.533
0.58749,73.338
0.61975,73.338
0.652,73.338
0.68035,73.142
0.70283,73.142
0.72043,72.751
0.73216,72.555
0.739,72.164
0.74194,71.773
0.73998,71.186
0.73509,70.6
0.72727,70.013
0.71554,69.426
0.70381,68.84
0.69013,68.253
0.67253,67.666
0.65298,67.275
0.63148,66.688
0.60899,66.297
0.58553,65.906
0.56109,65.319
0.53763,64.928
0.51613,64.537
0.49462,63.95
0.47605,63.364
0.46041,62.973
0.4477,62.386
0.43597,61.799
0.42424,61.213
0.41447,60.626
0.40665,60.039
0.39883,59.648
0.39198,59.257
0.3871,58.67
0.38123,58.279
0.37732,57.888
0.37243,57.497
0.36852,57.301
0.36559,57.301
0.36266,57.692
0.35973,59.257
0.35582,62.582
0.35191,68.057
0.34702,76.076
0.34311,85.267
0.3392,94.655
0.33431,103.26
0.3304,110.89
0.32649,117.34
0.3216,122.23
0.31867,125.55
0.31672,127.51
0.31378,128.29
0.30987,128.1
0.30694,126.92
0.30303,124.97
0.29912,122.82
0.29521,120.47
0.29228,117.73
0.28837,114.8
0.28446,111.86
0.28055,108.34
0.27761,104.63
0.27468,100.72
0.2737,96.61
0.27077,92.699
0.26686,88.788
0.26295,85.267
0.26002,82.138
0.25709,79.596
0.25611,77.445
0.26002,75.685
0.26979,74.511
0.28739,73.729
0.31476,73.142
0.34409,72.751
0.37732,72.555
0.41935,72.36
0.46628,72.36
0.51417,72.36
0.56012,72.36
0.60215,72.164
0.63832,72.164
0.66862,72.164
0.69208,71.969
0.70968,71.773
0.72141,71.578
0.72825,71.186
0.73021,70.795
0.72825,70.209
0.72336,69.818
0.71457,69.231
0.70381,68.84
0.68524,68.253
0.66276,67.666
0.64125,67.08
0.61877,66.493
0.59629,66.102
0.57283,65.711
0.55034,65.124
0.52981,64.733
0.51124,64.146
0.49169,63.755
0.47312,63.168
0.4565,62.582
0.44086,62.19
0.42717,61.604
0.41447,61.017
0.40469,60.43
0.39589,60.039
0.38807,59.452
0.38123,59.061
0.37537,58.475
0.37146,58.083
0.36852,57.497
0.36461,57.106
0.36168,56.91
0.35777,56.715
0.35484,56.715
0.35093,57.301
0.34702,58.866
0.34311,62.19
0.3392,67.666
0.33529,75.098
0.33138,83.703
0.32845,92.503
0.32649,100.52
0.32356,107.76
0.31965,114.02
0.31574,118.71
0.31281,121.84
0.3089,123.79
0.30596,124.38
0.30205,123.99
0.29912,122.62
0.29521,120.86
0.2913,118.71
0.28837,116.17
0.28543,113.23
0.28348,110.3
0.28055,107.17
0.27761,103.46
0.27468,99.739
0.27175,95.828
0.26882,91.721
0.26491,87.614
0.26197,84.094
0.25806,80.965
0.25513,78.422
0.2522,76.271
0.25318,74.707
0.25611,73.338
0.26393,72.36
0.27859,71.578
0.30108,71.186
0.33236,70.991
0.3695,70.991
0.41251,70.991
0.45748,70.991
0.50342,70.795
0.54643,70.795
0.58456,70.795
0.61779,70.795
0.64223,70.795
0.65982,70.6
0.67449,70.404
0.68524,70.013
0.69208,69.622
0.69501,69.231
0.69404,68.84
0.68915,68.449
0.68035,67.862
0.6696,67.471
0.65494,66.884
0.63734,66.493
0.62072,65.906
0.60313,65.515
0.5826,64.928
0.56109,64.537
0.53861,64.146
0.51711,63.559
0.49658,63.168
0.47703,62.582
0.45943,62.19
0.44379,61.604
0.43011,61.213
0.41838,60.626
0.40762,60.235
0.3998,59.648
0.39394,59.257
0.3871,58.67
0.38221,58.279
0.37732,57.888
0.37243,57.301
0.36852,56.91
0.36461,56.519
0.36168,56.323
0.35875,56.323
0.35484,56.715
0.35191,57.692
0.34897,60.43
0.34702,65.319
0.34409,72.36
0.34115,80.965
0.33822,89.765
0.33431,98.175
0.33138,105.8
0.32747,112.45
0.32356,117.93
0.32063,121.64
0.31672,123.99
0.31378,125.16
0.31085,125.16
0.3089,124.19
0.30596,122.62
0.30303,120.67
0.3001,118.51
0.29717,115.97
0.29326,113.23
0.29032,110.1
0.28641,106.78
0.28348,103.26
0.28055,99.348
0.27664,95.241
0.2737,91.134
0.27077,87.223
0.26882,83.507
0.26686,80.378
0.26393,77.836
0.26295,75.685
0.26393,74.12
0.27077,72.947
0.28348,72.164
0.30499,71.773
0.33431,71.578
0.37146,71.382
0.41349,71.382
0.45357,71.382
0.49169,71.578
0.53275,71.578
0.5738,71.578
0.61095,71.773
0.64223,71.578
0.66862,71.578
0.68915,71.382
0.70381,71.186
0.71261,70.991
0.7175,70.6
0.71848,70.209
0.71457,69.818
0.7087,69.426
0.6999,69.035
0.68719,68.449
0.67253,68.057
0.65494,67.471
0.63539,67.08
0.61388,66.688
0.59042,66.102
0.56696,65.711
0.54448,65.319
0.52199,64.928
0.50049,64.342
0.48289,63.95
0.46823,63.364
0.45357,62.973
0.43988,62.386
0.42815,61.995
0.4174,61.408
0.40958,61.017
0.40176,60.626
0.39589,60.039
0.39003,59.648
0.38612,59.257
0.38123,58.866
0.3783,58.475
0.37537,58.279
0.37341,58.279
0.37048,58.475
0.36755,59.452
0.36364,61.995
0.3607,66.493
0.35777,73.338
0.35386,81.943
0.35093,91.134
0.34702,99.739
0.34409,107.56
0.34018,114.6
0.33822,120.27
0.33627,124.38
0.33333,126.92
0.3304,128.1
0.32747,128.29
0.32454,127.51
0.32063,126.14
0.31769,124.19
0.31476,122.03
0.31183,119.49
0.3089,116.95
0.30596,114.21
0.30303,111.08
0.30108,107.76
0.29912,104.24
0.29717,100.33
0.29423,96.415
0.2913,92.503
0.28837,88.788
0.28543,85.658
0.2825,82.725
0.28152,80.574
0.28348,78.618
0.2913,77.445
0.30499,76.467
0.32258,75.685
0.34604,75.293
0.3783,75.098
0.4174,75.098
0.46237,75.098
0.50831,75.098
0.55425,75.098
0.59726,75.098
0.63539,75.098
0.66764,75.098
0.69404,74.902
0.71457,74.707
0.72923,74.511
0.73705,74.12
0.74096,73.533
0.74194,73.142
0.73998,72.555
0.73412,72.164
0.7263,71.578
0.71554,71.186
0.70186,70.6
0.68622,70.013
0.66764,69.426
0.64712,69.035
0.62659,68.449
0.60606,68.057
0.58749,67.471
0.56696,67.08
0.54643,66.493
0.52786,65.906
0.50929,65.124
0.49365,64.537
0.47898,63.95
0.46725,63.364
0.4565,62.777
0.4477,62.19
0.43988,61.604
0.43402,61.213
0.42913,60.626
0.42522,60.235
0.42131,59.844
0.4174,59.452
0.41349,59.257
0.40958,59.257
0.40567,59.648
0.40176,60.821
0.39883,63.95
0.39492,69.231
0.39101,77.054
0.38612,86.441
0.38319,96.024
0.38025,104.82
0.37634,113.04
0.37243,119.88
0.36852,125.36
0.36461,129.07
0.3607,131.23
0.35679,132.2
0.35288,132.01
0.348,131.23
0.34409,129.66
0.34018,127.71
0.33627,125.55
0.33236,123.21
0.32942,120.67
0.32551,117.93
0.3216,114.99
0.31769,111.86
0.31378,108.15
0.30987,104.24
0.30596,100.13
0.30205,96.024
0.29814,91.917
0.29423,88.201
0.2913,84.876
0.28935,82.138
0.2913,79.987
0.29717,78.422
0.30987,77.249
0.3304,76.271
0.35973,75.685
0.39589,75.293
0.43891,75.293
0.48485,75.098
0.53177,75.098
0.57674,75.098
0.61681,75.098
0.652,75.098
0.67742,74.902
0.69697,74.707
0.71261,74.511
0.72532,74.316
0.73314,73.924
0.73803,73.533
0.73803,72.947
0.73509,72.36
0.72923,71.773
0.72043,71.186
0.7087,70.6
0.69404,70.013
0.6784,69.426
0.66178,69.035
0.64321,68.449
0.6217,67.862
0.59824,67.471
0.57478,66.884
0.5523,66.493
0.52884,65.906
0.50831,65.515
0.48778,64.928
0.47019,64.342
0.45455,63.755
0.44086,63.168
0.43011,62.777
0.42131,62.19
0.41349,61.604
0.40567,61.213
0.39883,60.626
0.39296,60.235
0.38807,59.648
0.38319,59.257
0.3783,58.866
0.37439,58.67
0.37048,58.866
0.36657,59.452
0.36266,61.213
0.35973,64.733
0.35679,70.795
0.35191,79.205
0.348,88.592
0.34311,97.979
0.3392,106.78
0.33431,114.41
0.3304,120.67
0.32649,125.55
0.32258,128.68
0.31867,130.44
0.31574,131.03
0.31281,130.44
0.30987,129.27
0.30596,127.51
0.30303,125.36
0.29912,123.01
0.29521,120.47
0.29228,117.93
0.28837,114.8
0.28446,111.67
0.28055,108.15
0.27761,104.24
0.2737,100.13
0.27175,95.828
0.26979,91.721
0.26588,87.81
0.26295,84.485
0.26002,81.747
0.25904,79.596
0.26197,77.836
0.27175,76.467
0.28837,75.489
0.31378,74.902
0.34702,74.511
0.38807,74.12
0.42717,73.924
0.46628,73.924
0.50929,73.729
0.55327,73.729
0.59433,73.729
0.62952,73.533
0.65982,73.533
0.68328,73.338
0.70088,73.142
0.71261,72.751
0.72043,72.555
0.72336,72.164
0.72239,71.773
0.7175,71.186
0.71065,70.6
0.70088,70.209
0.68817,69.622
0.67253,69.035
0.65494,68.644
0.63539,68.057
0.61388,67.471
0.5914,67.08
0.56794,66.688
0.5435,66.102
0.52102,65.711
0.50147,65.124
0.48485,64.537
0.46725,64.146
0.45161,63.559
0.43695,62.973
0.42424,62.582
0.41251,61.995
0.40274,61.408
0.39492,60.821
0.3871,60.43
0.38123,59.844
0.37634,59.452
0.37146,59.061
0.36755,58.475
0.36461,58.279
0.3607,58.279
0.35679,58.475
0.35386,59.648
0.34995,62.19
0.34604,66.688
0.34213,73.533
0.3392,82.138
0.33529,91.134
0.33138,99.935
0.32747,107.76
0.32454,114.8
0.3216,120.27
0.31867,124.38
0.31574,126.73
0.31183,128.1
0.30792,128.1
0.30499,127.31
0.30108,125.75
0.29814,123.79
0.29423,121.45
0.2913,119.1
0.28739,116.17
0.28446,113.23
0.2825,109.91
0.28055,106.19
0.27761,102.48
0.27468,98.37
0.27077,94.068
0.26784,90.157
0.26393,86.441
0.26002,83.116
0.25709,80.574
0.25611,78.227
0.25709,76.467
0.26393,75.293
0.27468,74.316
0.29032,73.729
0.31574,73.338
0.34897,73.142
0.39003,73.142
0.435,73.142
0.48289,73.142
0.52884,73.142
0.57283,73.142
0.61095,72.947
0.64321,72.947
0.6696,72.947
0.69013,72.751
0.70283,72.555
0.70968,72.164
0.71457,71.773
0.71554,71.382
0.71261,70.795
0.70674,70.404
0.69795,69.818
0.68622,69.231
0.67058,68.644
0.65298,68.057
0.63343,67.471
0.61193,67.08
0.5914,66.688
0.57185,66.102
0.54936,65.711
0.52786,65.319
0.50635,64.733
0.48583,64.146
0.46725,63.755
0.45064,63.168
0.43597,62.777
0.42326,62.19
0.41153,61.604
0.40274,61.213
0.39492,60.821
0.38905,60.235
0.38416,59.844
0.38025,59.257
0.37537,58.866
0.37146,58.279
0.36852,58.083
0.36461,57.888
0.36168,58.083
0.35777,58.866
0.35484,60.821
0.35093,64.733
0.348,71.186
0.34506,79.596
0.34213,88.592
0.3392,97.588
0.33627,105.61
0.33236,112.84
0.32845,118.9
0.32356,123.4
0.31965,126.34
0.31574,127.9
0.31183,128.29
0.30792,127.71
0.30401,126.53
0.3001,124.58
0.29814,122.43
0.29619,120.08
0.29326,117.54
0.29032,114.6
0.28641,111.47
0.28348,108.15
0.28055,104.43
0.27664,100.52
0.2737,96.219
0.26979,92.112
0.26686,88.396
0.26295,84.876
0.26002,81.943
0.25904,79.596
0.25904,77.64
0.26197,76.076
0.27077,75.098
0.28739,74.316
0.31281,73.729
0.34702,73.533
0.38807,73.338
0.435,73.142
0.48387,73.142
0.53275,73.142
0.57771,73.142
0.61388,72.947
0.64223,72.947
0.6696,72.947
0.69306,72.751
0.71065,72.36
0.72239,72.164
0.73021,71.773
0.73314,71.382
0.73216,70.795
0.72727,70.404
0.71848,69.818
0.70674,69.231
0.69404,68.84
0.6784,68.253
0.6608,67.666
0.64027,67.275
0.61779,66.688
0.59433,66.297
0.57087,65.906
0.54643,65.319
0.52395,64.928
0.50147,64.537
0.48192,63.95
0.46334,63.559
0.44966,62.973
0.43695,62.582
0.4262,61.995
0.41544,61.604
0.40567,61.213
0.39785,60.626
0.39101,60.039
0.38514,59.648
0.38025,59.257
0.37537,58.67
0.37146,58.475
0.36657,58.279
0.36266,58.475
0.35973,59.061
0.35679,61.017
0.35386,64.537
0.34995,70.6
0.34604,78.814
0.34213,88.005
0.33822,97.197
0.33431,105.61
0.3304,113.23
0.32649,119.69
0.32258,124.58
0.31867,127.9
0.31574,129.86
0.31281,130.44
0.30987,130.05
0.30694,129.07
0.30303,127.31
0.3001,125.55
0.29619,123.21
0.29326,120.86
0.28935,118.12
0.28641,115.19
0.28348,112.06
0.27957,108.54
0.27664,104.82
0.27468,100.91
0.27273,96.61
0.26979,92.699
0.26686,88.983
0.26295,85.658
0.26002,82.921
0.26002,80.769
0.26295,79.009
0.27273,77.64
0.28935,76.858
0.31476,76.271
0.34897,75.88
0.38416,75.685
0.42229,75.489
0.46725,75.489
0.51515,75.489
0.56305,75.685
0.60704,75.685
0.64516,75.685
0.67742,75.685
0.70381,75.489
0.72336,75.293
0.73705,75.098
0.74585,74.707
0.74976,74.316
0.74976,73.924
0.74487,73.338
0.73803,72.751
0.72923,72.164
0.71652,71.773
0.70088,71.186
0.68328,70.795
0.66373,70.209
0.64223,69.818
0.61877,69.231
0.59531,68.84
0.57087,68.253
0.55034,67.862
0.53177,67.275
0.51222,66.688
0.49365,66.297
0.47605,65.711
0.46139,65.319
0.4477,64.733
0.43695,64.342
0.42717,63.755
0.41935,63.364
0.41251,62.973
0.40762,62.386
0.40274,61.995
0.39883,61.604
0.39589,61.213
0.39296,61.017
0.39003,61.213
0.3871,62.19
0.38319,64.537
0.38025,69.035
0.37732,75.88
0.37439,84.876
0.37146,94.459
0.36755,103.85
0.36461,112.45
0.36168,119.88
0.35875,126.14
0.35582,130.44
0.35288,133.38
0.34897,134.75
0.34604,135.14
0.34213,134.35
0.3392,132.99
0.33529,131.23
0.33236,129.07
0.32942,126.92
0.32551,124.38
0.32258,121.84
0.31965,119.1
0.31769,115.97
0.31574,112.65
0.31281,109.13
0.30987,105.22
0.30694,101.11
0.30303,96.806
0.29912,92.894
0.29619,89.374
0.29423,86.245
0.29521,83.703
0.30108,81.747
0.30987,80.183
0.32551,79.205
0.34995,78.227
0.38319,77.836
0.42424,77.445
0.47019,77.249
0.51906,77.054
0.56794,77.054
0.6129,77.054
0.65298,76.858
0.68719,76.662
0.71554,76.662
0.73705,76.271
0.74976,75.88
0.75758,75.489
0.76344,75.098
0.7654,74.707
0.76344,74.12
0.75953,73.533
0.75171,72.947
0.74194,72.36
0.72825,71.773
0.71261,71.186
0.69501,70.6
0.67449,70.209
0.65494,69.622
0.63539,69.231
0.6129,68.84
0.58847,68.253
0.565,67.666
0.54154,67.275
0.52004,66.688
0.49951,66.102
0.48094,65.515
0.4653,64.928
0.45064,64.342
0.43891,63.755
0.42815,63.168
0.41935,62.777
0.41251,62.19
0.40665,61.604
0.40078,61.213
0.39492,60.626
0.39003,60.235
0.38514,60.039
0.38025,60.235
0.37537,61.017
0.3695,62.973
0.36461,67.08
0.35973,73.729
0.35582,82.529
0.35288,92.503
0.34897,102.28
0.34409,111.28
0.3392,119.3
0.33529,125.55
0.3304,130.44
0.32649,133.57
0.3216,135.14
0.31769,135.72
0.31378,135.14
0.3089,133.96
0.30499,132.2
0.30205,130.05
0.29912,127.9
0.29619,125.36
0.29228,122.62
0.28837,119.69
0.28446,116.56
0.28055,113.23
0.27664,109.71
0.27273,105.8
0.26784,101.69
0.26393,97.393
0.26002,93.481
0.25611,89.57
0.25318,86.441
0.25122,83.703
0.25318,81.552
0.261,79.791
0.27664,78.618
0.30108,77.64
0.33431,77.054
0.37537,76.662
0.42131,76.271
0.47116,76.076
0.52004,76.076
0.56598,76.076
0.60215,75.88
0.63148,75.685
0.65787,75.489
0.68133,75.293
0.69892,75.098
0.71065,74.902
0.71848,74.511
0.72239,74.12
0.72141,73.533
0.7175,73.142
0.71065,72.555
0.70088,71.969
0.68915,71.382
0.67644,70.795
0.6608,70.404
0.64223,69.818
0.62268,69.231
0.60117,68.644
0.57771,68.057
0.55425,67.666
0.53079,67.08
0.50733,66.688
0.48583,66.102
0.46628,65.515
0.44966,64.928
0.43597,64.537
0.42229,63.95
0.41056,63.364
0.3998,62.777
0.39003,62.19
0.38221,61.799
0.37439,61.213
0.36852,60.821
0.36364,60.235
0.35875,59.844
0.35386,59.648
0.34995,59.452
0.34604,59.844
0.34311,60.821
0.34018,63.364
0.33627,68.057
0.33236,75.098
0.32845,84.094
0.32454,93.481
0.32063,102.67
0.31574,111.08
0.31183,118.12
0.30792,123.99
0.30401,128.1
0.30108,130.64
0.29912,132.01
0.29619,132.2
0.29326,131.42
0.28935,129.86
0.28543,127.9
0.2825,125.55
0.27859,123.21
0.27468,120.47
0.27077,117.73
0.26784,114.6
0.26393,111.08
0.261,107.37
0.25806,103.46
0.25611,99.348
0.25415,95.046
0.25024,90.939
0.24731,87.419
0.2434,84.289
0.24145,81.747
0.24145,79.596
0.24633,78.031
0.25709,76.662
0.27664,75.88
0.30499,75.293
0.33529,74.902
0.3695,74.707
0.41153,74.511
0.45846,74.511
0.50635,74.316
0.55132,74.316
0.59238,74.12
0.62659,74.12
0.65494,74.12
0.67742,73.924
0.69306,73.729
0.70381,73.338
0.7087,72.947
0.70968,72.555
0.70674,72.164
0.70186,71.578
0.69404,70.991
0.68328,70.6
0.6696,70.013
0.65298,69.426
0.63441,69.035
0.61388,68.449
0.59238,67.862
0.56891,67.471
0.54545,67.08
0.52493,66.493
0.50538,65.906
0.48485,65.515
0.4653,64.928
0.44673,64.342
0.43011,63.95
0.41544,63.364
0.40274,62.777
0.39198,62.19
0.38221,61.799
0.37439,61.213
0.36755,60.821
0.36266,60.235
0.35777,59.648
0.35484,59.257
0.35093,58.866
0.348,58.67
0.34409,58.866
0.34115,59.452
0.33724,61.017
0.33431,64.537
0.3304,70.209
0.32747,78.227
0.32356,87.614
0.32063,96.806
0.31769,105.61
0.31574,113.23
0.31281,119.88
0.3089,124.97
0.30499,128.29
0.30205,130.25
0.29814,131.03
0.29423,130.83
0.2913,129.66
0.28739,127.9
0.28446,125.95
0.28055,123.6
0.27761,121.06
0.27566,118.32
0.2737,115.19
0.27077,111.86
0.26784,108.34
0.26491,104.43
0.261,100.33
0.25806,96.024
0.25415,91.917
0.25024,88.005
0.24731,84.681
0.24438,81.943
0.2434,79.596
0.24536,77.836
0.25122,76.467
0.26393,75.489
0.28446,74.902
0.31281,74.316
0.34995,74.12
0.39394,73.924
0.44184,73.924
0.49071,73.924
0.53763,73.729
0.58162,73.729
0.61877,73.729
0.65103,73.729
0.67253,73.533
0.68817,73.338
0.6999,73.142
0.7087,72.751
0.71359,72.36
0.71457,71.773
0.71163,71.382
0.70479,70.795
0.69501,70.404
0.68231,69.818
0.66667,69.231
0.64907,68.644
0.6305,68.253
0.61193,67.666
0.59042,67.275
0.56794,66.688
0.5435,66.102
0.52102,65.711
0.49853,65.319
0.47703,64.733
0.45748,64.146
0.43988,63.755
0.42424,63.168
0.41056,62.582
0.3998,62.19
0.39101,61.604
0.38416,61.017
0.37732,60.626
0.37146,60.039
0.36559,59.648
0.36168,59.061
0.35679,58.67
0.35288,58.475
0.34897,58.279
0.34604,58.67
0.34213,59.844
0.3392,62.777
0.33627,67.666
0.33333,75.098
0.3304,84.094
0.32747,93.481
0.32356,102.48
0.31965,110.5
0.31574,117.34
0.31183,123.01
0.3089,126.92
0.30499,129.27
0.30108,130.64
0.29814,130.64
0.29423,130.05
0.29228,128.49
0.29032,126.53
0.28739,124.38
0.28348,122.03
0.28055,119.49
0.27761,116.56
0.2737,113.43
0.27077,109.91
0.26686,106.19
0.26393,102.09
0.26002,97.979
0.25709,93.677
0.25415,89.57
0.2522,86.05
0.24927,82.921
0.24731,80.378
0.24731,78.227
0.2522,76.662
0.26197,75.489
0.28055,74.707
0.30792,74.12
0.34409,73.729
0.3871,73.533
0.43402,73.338
0.47703,73.338
0.51613,73.338
0.55718,73.142
0.59726,73.142
0.63148,73.142
0.6608,72.947
0.68426,72.751
0.70674,72.555
0.72727,72.36
0.73803,71.969
0.74194,71.578
0.74096,70.991
0.73607,70.6
0.72825,70.013
0.7175,69.426
0.70381,69.035
0.68719,68.449
0.66764,67.862
0.64712,67.471
0.62366,66.884
0.59922,66.493
0.57478,66.102
0.54936,65.711
0.5259,65.124
0.50342,64.733
0.48387,64.146
0.46725,63.559
0.45161,63.168
0.43695,62.582
0.42326,62.19
0.41153,61.799
0.40176,61.213
0.39296,60.821
0.38612,60.235
0.38025,59.844
0.37439,59.452
0.3695,59.061
0.36559,58.67
0.36168,58.67
0.35973,58.866
0.35582,59.844
0.35288,62.19
0.34995,66.688
0.34604,73.533
0.34213,82.334
0.33822,91.917
0.33431,101.11
0.3304,109.52
0.32649,116.95
0.32258,123.01
0.31965,127.51
0.31769,130.64
0.31476,132.2
0.31183,132.79
0.30792,132.2
0.30499,130.83
0.30108,129.07
0.29814,126.92
0.29521,124.58
0.2913,122.23
0.28837,119.49
0.28543,116.56
0.2825,113.23
0.27957,109.91
0.27859,106
0.27566,102.09
0.2737,97.784
0.26979,93.677
0.26588,89.961
0.26295,86.636
0.261,83.703
0.261,81.356
0.26491,79.596
0.27566,78.031
0.29423,77.054
0.31672,76.467
0.34506,75.88
0.38416,75.685
0.43011,75.489
0.47996,75.489
0.53079,75.489
0.57967,75.293
0.62463,75.293
0.66276,75.293
0.69501,75.293
0.72043,75.098
0.739,74.902
0.75171,74.707
0.75855,74.316
0.76051,73.924
0.75953,73.338
0.75562,72.947
0.74878,72.36
0.739,71.773
0.7263,71.382
0.71163,70.795
0.69404,70.209
0.67351,69.818
0.652,69.231
0.62854,68.84
0.60606,68.253
0.58553,67.862
0.56403,67.275
0.54154,66.688
0.52004,66.297
0.50049,65.711
0.48192,65.124
0.46628,64.733
0.45259,64.146
0.43988,63.755
0.43011,63.168
0.42131,62.777
0.41447,62.386
0.40958,61.799
0.40567,61.408
0.40078,60.821
0.39687,60.43
0.39394,60.235
0.39003,60.626
0.3871,61.408
0.38319,63.95
0.38025,68.449
0.37634,75.685
0.37341,84.681
0.3695,94.263
0.36755,103.65
0.36461,112.06
0.36168,119.49
0.35777,125.55
0.35386,129.86
0.35093,132.4
0.34702,133.77
0.34409,134.16
0.34018,133.38
0.33724,132.2
0.33333,130.44
0.3304,128.49
0.32649,126.34
0.32356,123.99
0.3216,121.45
0.31867,118.71
0.31574,115.58
0.31281,112.26
0.3089,108.54
0.30596,104.63
0.30303,100.52
0.29912,96.219
0.29521,92.112
0.2913,88.396
0.28935,85.267
0.28935,82.725
0.29228,80.574
0.30108,78.814
0.31672,77.64
0.34115,76.858
0.37439,76.271
0.41544,75.88
0.46139,75.489
0.51026,75.293
0.56012,75.293
0.60606,75.293
0.64712,75.293
0.68133,75.098
0.70674,75.098
0.72434,74.707
0.739,74.511
0.75073,74.12
0.75758,73.729
0.76051,73.338
0.75953,72.751
0.75562,72.164
0.7478,71.773
0.73803,71.186
0.72434,70.6
0.7087,70.013
0.69306,69.426
0.67546,68.84
0.65494,68.253
0.63245,67.666
0.60899,67.275
0.58358,66.688
0.55914,66.297
0.53568,65.711
0.51222,65.124
0.49169,64.537
0.47214,64.146
0.45552,63.559
0.43988,62.973
0.42815,62.386
0.41838,61.799
0.40958,61.408
0.40176,60.821
0.39394,60.43
0.38807,59.844
0.38221,59.452
0.37732,59.061
0.37243,58.67
0.36852,58.475
0.36364,58.866
0.35973,60.039
0.35582,63.168
0.35288,68.449
0.34897,76.467
0.34506,85.854
0.34115,95.828
0.33627,105.22
0.33236,113.62
0.32747,120.86
0.32356,126.34
0.31965,130.25
0.31476,132.59
0.31085,133.77
0.30694,133.77
0.30401,132.79
0.30108,131.23
0.29814,129.27
0.29423,127.12
0.29032,124.58
0.28641,122.03
0.2825,119.1
0.27859,116.17
0.27468,112.84
0.27175,109.13
0.26784,105.41
0.26393,101.11
0.26197,97.001
0.25904,92.699
0.25611,88.788
0.2522,85.463
0.25024,82.529
0.24927,80.183
0.25415,78.227
0.26491,76.858
0.28446,75.88
0.31378,75.098
0.35191,74.707
0.39785,74.316
0.44086,74.12
0.48289,73.924
0.52981,73.924
0.57576,73.729
0.61779,73.729
0.65494,73.533
0.68524,73.533
0.7087,73.142
0.72532,72.947
0.73705,72.555
0.74291,72.164
0.74487,71.773
0.74291,71.382
0.73705,70.795
0.72825,70.209
0.71848,69.622
0.70479,69.035
0.68915,68.449
0.67058,68.057
0.65103,67.471
0.62854,66.884
0.60411,66.493
0.57967,65.906
0.55523,65.515
0.53079,64.928
0.50929,64.537
0.48974,63.95
0.46823,63.364
0.44966,62.777
0.43304,62.386
0.41838,61.799
0.40665,61.213
0.39589,60.626
0.38612,60.235
0.3783,59.844
0.37243,59.257
0.36657,58.67
0.36168,58.279
0.35777,57.888
0.35484,57.497
0.35191,57.497
0.348,57.888
0.34506,59.061
0.34115,61.799
0.33822,66.688
0.33431,73.924
0.3304,82.921
0.32649,92.308
0.32258,101.11
0.31867,109.13
0.31574,115.97
0.31281,121.25
0.30987,125.16
0.30694,127.51
0.30303,128.68
0.3001,128.49
0.29619,127.51
0.29326,125.95
0.28935,123.99
0.28641,121.64
0.2825,118.9
0.27859,116.17
0.27566,113.23
0.27273,109.91
0.27175,106.39
0.26882,102.67
0.26588,98.566
0.26295,94.459
0.25904,90.352
0.25611,86.441
0.2522,83.116
0.24829,80.183
0.24633,78.031
0.24633,76.076
0.25024,74.707
0.25904,73.729
0.2737,72.947
0.29619,72.555
0.32845,72.164
0.36755,72.164
0.41251,71.969
0.46041,71.969
0.50831,71.969
0.55425,71.969
0.59433,71.773
0.62854,71.773
0.65689,71.578
0.6784,71.382
0.69208,71.186
0.6999,70.795
0.70479,70.6
0.70674,70.209
0.70479,69.622
0.6999,69.035
0.6911,68.644
0.68035,68.057
0.66569,67.471
0.64907,67.08
0.62952,66.493
0.60899,66.102
0.58847,65.515
0.56891,65.124
0.54741,64.537
0.52493,64.146
0.50342,63.755
0.48192,63.168
0.46237,62.582
0.44477,62.19
0.42815,61.604
0.41447,61.213
0.40274,60.626
0.39198,60.039
0.38319,59.452
0.37732,59.061
0.37243,58.475
0.36755,58.083
0.36266,57.497
0.35875,57.106
0.35484,56.91
0.35191,56.715
0.348,56.715
0.34506,57.106
0.34213,58.67
0.33822,62.19
0.33529,67.862
0.33333,75.685
0.33138,84.876
0.32845,94.068
0.32551,102.48
0.3216,110.1
0.31867,116.36
0.31476,121.45
0.31183,124.77
0.30792,126.73
0.30499,127.31
0.30108,127.12
0.29814,125.95
0.29521,124.19
0.29326,122.23
0.2913,119.88
0.28837,117.34
0.28543,114.41
0.2825,111.47
0.27859,108.15
0.27566,104.43
0.27175,100.52
0.26882,96.415
0.26491,92.308
0.26197,88.396
0.25806,84.681
0.25513,81.747
0.25318,79.205
0.2522,77.054
0.2522,75.293
0.25709,74.12
0.26686,73.142
0.28543,72.555
0.31281,72.164
0.34897,71.969
0.39101,71.773
0.43793,71.773
0.4868,71.578
0.53372,71.578
0.57283,71.578
0.60411,71.382
0.63441,71.186
0.66178,70.991
0.68231,70.795
0.69795,70.6
0.7087,70.404
0.71457,70.013
0.71554,69.622
0.71261,69.035
0.70674,68.644
0.69697,68.057
0.68622,67.471
0.67253,67.08
0.65689,66.493
0.63734,65.906
0.61681,65.515
0.59433,65.124
0.57185,64.537
0.54839,64.146
0.5259,63.559
0.50342,63.168
0.48289,62.582
0.46432,62.19
0.44673,61.604
0.43304,61.017
0.42229,60.626
0.41153,60.039
0.40176,59.648
0.39394,59.061
0.38612,58.475
0.37928,58.083
0.37439,57.497
0.3695,57.106
0.36461,56.715
0.3607,56.519
0.35679,56.323
0.35386,56.519
0.35191,57.301
0.34897,59.257
0.34604,63.364
0.34213,70.013
0.3392,78.422
0.33529,87.614
0.33138,96.415
0.32747,104.63
0.32454,111.86
0.32063,117.93
0.31672,122.43
0.31378,125.36
0.31085,127.12
0.3089,127.51
0.30596,126.92
0.30303,125.55
0.3001,123.79
0.29619,121.45
0.29326,119.1
0.29032,116.56
0.28641,113.82
0.28348,110.69
0.27957,107.37
0.27566,103.85
0.2737,99.935
0.27175,95.828
0.26882,91.721
0.26588,87.81
0.26295,84.289
0.25904,81.356
0.25611,79.009
0.25415,77.054
0.25611,75.489
0.26295,74.316
0.27761,73.533
0.3001,73.142
0.32649,72.751
0.35679,72.555
0.39687,72.555
0.44184,72.555
0.48974,72.555
0.53666,72.555
0.58065,72.555
0.61877,72.555
0.65103,72.555
0.67644,72.36
0.69599,72.164
0.70968,71.969
0.71848,71.578
0.72141,71.186
0.72043,70.6
0.71652,70.209
0.71065,69.818
0.70088,69.231
0.68915,68.644
0.67351,68.253
0.65689,67.666
0.63734,67.275
0.61584,66.884
0.59238,66.493
0.56989,65.906
0.54839,65.515
0.52981,65.124
0.50929,64.537
0.48974,64.146
0.47116,63.755
0.45455,63.168
0.43988,62.777
0.42717,62.19
0.41642,61.799
0.40665,61.408
0.39883,60.821
0.39198,60.43
0.3871,59.844
0.38221,59.452
0.37928,59.061
0.37537,58.67
0.37243,58.475
0.3695,58.475
0.36657,59.061
0.36364,60.821
0.36266,64.537
0.36364,70.6
0.36266,78.814
0.35973,88.201
0.35679,97.588
0.35484,106
0.35288,113.62
0.34995,120.08
0.34702,125.16
0.34409,128.49
0.34115,130.25
0.33822,131.03
0.33529,130.64
0.33333,129.66
0.3304,127.9
0.32747,125.95
0.32454,123.79
0.3216,121.45
0.31965,119.1
0.31769,116.17
0.31574,113.23
0.31281,109.91
0.31085,106.19
