1.5484,91.632
1.5239,107.36
1.4995,123.92
1.48,137.35
1.4555,145.26
1.4291,147.56
1.4018,146.14
1.3754,142.82
1.35,139.16
1.3255,136.23
1.3021,134.22
1.2845,133.05
1.2698,132.07
1.2512,130.76
1.2317,128.61
1.2121,125.72
1.1935,122.16
1.175,118.11
1.1584,114
1.1427,110
1.1271,106.24
1.1085,102.72
1.088,99.349
1.0694,96.076
1.0596,92.804
1.086,89.824
1.1281,87.187
1.2336,85.233
1.3705,84.061
1.5679,83.572
1.7947,83.67
2.0323,84.158
2.2757,84.745
2.4448,85.233
2.6109,85.477
2.7537,85.477
2.8514,85.233
2.912,84.793
2.955,84.256
2.9717,83.67
2.9765,83.133
2.9638,82.547
2.9316,81.863
2.8915,81.179
2.8583,80.3
2.8074,79.421
2.7283,78.444
2.6461,77.467
2.5689,76.539
2.4897,75.757
2.3988,75.073
2.3001,74.438
2.1975,73.901
2.0958,73.51
1.999,73.12
1.911,72.778
1.8338,72.436
1.7683,72.045
1.7146,71.557
1.6725,71.117
1.6422,70.629
1.6207,70.189
1.6002,69.749
1.5826,69.31
1.567,68.87
1.5513,68.382
1.5347,67.942
1.5181,67.844
1.5005,68.919
1.48,72.729
1.4555,80.935
1.4291,94.171
1.3998,110.88
1.3754,127.24
1.3519,139.6
1.3245,146
1.2972,147.07
1.2698,144.68
1.2434,140.87
1.218,137.11
1.1935,134.17
1.1701,132.22
1.1486,131.05
1.13,129.93
1.1124,128.36
1.0997,126.07
1.0899,122.94
1.0792,119.23
1.0674,115.17
1.0538,111.12
1.0381,107.16
1.0186,103.55
0.99511,100.13
0.97263,96.809
0.9609,93.536
0.97263,90.41
1.0215,87.529
1.1202,85.233
1.2434,83.719
1.3998,83.035
1.6119,83.035
1.8583,83.475
2.1114,84.061
2.348,84.598
2.5523,84.94
2.7136,85.038
2.8309,84.94
2.8886,84.598
2.9022,84.305
2.9052,84.012
2.8954,83.719
2.8768,83.426
2.8504,83.035
2.8162,82.595
2.7732,82.009
2.7224,81.228
2.6637,80.349
2.5973,79.469
2.523,78.688
2.4418,78.004
2.3548,77.369
2.263,76.783
2.1681,76.343
2.0821,76.001
2.0029,75.562
1.9198,75.171
1.8407,74.731
1.7703,74.292
1.7107,73.803
1.6618,73.315
1.6227,72.778
1.5924,72.24
1.5699,71.752
1.5523,71.312
1.5386,70.873
1.5288,70.384
1.521,70.091
1.5112,70.531
1.4995,72.924
1.4858,78.932
1.4712,89.922
1.4545,105.31
1.435,122.06
1.4135,136.18
1.39,144.82
1.3666,147.75
1.3431,146.43
1.3206,142.92
1.303,138.91
1.2893,135.49
1.2717,133.2
1.2532,131.78
1.2346,130.85
1.216,129.63
1.1994,127.63
1.1848,124.85
1.172,121.28
1.1603,117.32
1.1486,113.12
1.1349,109.12
1.1232,105.36
1.1114,101.79
1.0958,98.421
1.0831,95.099
1.0831,91.729
1.1085,88.554
1.172,85.819
1.2805,83.816
1.436,82.693
1.6305,82.498
1.8504,82.937
2.0753,83.67
2.2864,84.354
2.4497,84.842
2.5728,84.989
2.6784,84.793
2.7576,84.403
2.8094,84.012
2.8387,83.621
2.8504,83.279
2.8475,83.035
2.8328,82.791
2.8074,82.498
2.7713,82.009
2.7253,81.374
2.6745,80.69
2.6197,79.909
2.5543,79.176
2.478,78.492
2.3949,77.858
2.3069,77.32
2.2151,76.783
2.1222,76.294
2.0303,75.806
1.9433,75.366
1.8641,74.927
1.7957,74.487
1.7429,74.097
1.7009,73.755
1.6637,73.364
1.6325,73.071
1.608,72.68
1.5885,72.387
1.5718,71.996
1.5572,71.508
1.5425,70.922
1.5298,70.482
1.5161,70.726
1.5024,72.973
1.4868,78.981
1.4741,89.971
1.4614,105.36
1.4448,122.16
1.4262,136.42
1.4057,145.26
1.3842,148.39
1.3617,147.26
1.3382,144.04
1.3138,140.33
1.2913,137.06
1.2708,134.86
1.2512,133.44
1.2366,132.32
1.2248,130.85
1.2111,128.61
1.1984,125.63
1.1867,121.91
1.1769,117.81
1.1672,113.61
1.1544,109.61
1.1388,105.85
1.1183,102.43
1.0948,99.105
1.0762,95.881
1.0714,92.657
1.086,89.727
1.129,87.187
1.218,85.379
1.3548,84.305
1.5357,84.061
1.7458,84.305
1.9677,84.842
2.1808,85.428
2.3695,85.721
2.5239,85.868
2.6393,85.673
2.7204,85.282
2.7664,84.842
2.7879,84.403
2.7957,84.061
2.7898,83.719
2.7722,83.377
2.7449,82.937
2.7067,82.351
2.6598,81.667
2.6051,80.935
2.5425,80.104
2.4731,79.372
2.3969,78.688
2.3148,78.053
2.2375,77.418
2.1613,76.881
2.0762,76.294
1.9873,75.757
1.9022,75.171
1.8231,74.634
1.7537,74.097
1.6931,73.608
1.6432,73.12
1.6031,72.68
1.5709,72.289
1.5464,71.996
1.5308,71.654
1.5191,71.312
1.5064,70.824
1.4927,70.238
1.478,69.603
1.4633,69.31
1.4467,70.042
1.4282,73.315
1.4096,80.739
1.3891,93.195
1.3675,109.36
1.347,125.87
1.3265,138.77
1.3099,146
1.2952,147.95
1.2776,146.29
1.2581,143.16
1.2375,139.94
1.217,137.25
1.1955,135.44
1.175,134.13
1.1544,132.81
1.1329,130.95
1.1114,128.31
1.0919,124.99
1.0782,121.04
1.0684,116.93
1.0557,112.78
1.042,108.87
1.0264,105.16
1.0068,101.6
0.98729,98.128
0.97458,94.611
0.97654,91.29
1.0059,88.31
1.0753,85.819
1.1916,84.061
1.3539,83.035
1.522,82.791
1.695,83.035
1.8954,83.572
2.0948,84.158
2.2737,84.598
2.4203,84.842
2.5318,84.842
2.609,84.696
2.6569,84.403
2.6823,84.061
2.6911,83.67
2.6872,83.279
2.6725,82.84
2.6491,82.351
2.6168,81.716
2.5738,80.984
2.522,80.251
2.4604,79.421
2.39,78.541
2.3138,77.809
2.2307,77.027
2.1417,76.441
2.0518,75.855
1.9619,75.318
1.8749,74.731
1.8016,74.243
1.741,73.657
1.6804,73.071
1.6256,72.436
1.5797,71.752
1.5415,71.068
1.5112,70.433
1.4878,69.945
1.4702,69.407
1.4565,68.919
1.4448,68.479
1.433,67.991
1.4233,67.503
1.4135,67.405
1.4008,68.675
1.3842,72.778
1.3656,81.472
1.346,95.099
1.3255,111.85
1.303,127.97
1.2805,139.94
1.2571,146.14
1.2326,147.17
1.2082,145.16
1.1838,141.99
1.1652,138.77
1.1486,136.23
1.129,134.42
1.1183,133.1
1.1124,131.63
1.0987,129.53
1.0831,126.7
1.0674,123.14
1.0518,119.03
1.0362,114.88
1.0196,110.68
1.001,106.82
0.98631,103.16
0.97165,99.74
0.9521,96.369
0.93744,93.048
0.93646,89.873
0.96285,86.991
1.0303,84.696
1.1457,83.182
1.3069,82.449
1.5044,82.351
1.7224,82.742
1.9404,83.279
2.1398,83.914
2.2923,84.354
2.4047,84.598
2.4985,84.696
2.566,84.598
2.607,84.403
2.6256,84.256
2.6276,84.061
2.6168,83.816
2.5953,83.475
2.564,83.035
2.523,82.449
2.4741,81.716
2.4242,80.984
2.3705,80.104
2.3069,79.323
2.2356,78.541
2.1574,77.858
2.0743,77.32
1.9883,76.783
1.9032,76.294
1.8201,75.855
1.741,75.415
1.6696,75.073
1.607,74.536
1.5552,73.999
1.5181,73.413
1.4907,72.778
1.4682,72.24
1.4497,71.752
1.435,71.215
1.4233,70.873
1.4135,70.482
1.4037,70.482
1.393,71.557
1.3812,75.073
1.3685,82.742
1.3539,95.441
1.3412,111.76
1.3294,128.07
1.3138,140.62
1.2972,147.41
1.2796,149.07
1.261,147.31
1.2414,143.99
1.2209,140.48
1.2014,137.59
1.1818,135.49
1.1642,133.88
1.1486,132.17
1.1378,130.07
1.131,127.14
1.1202,123.48
1.1085,119.37
1.0948,115.08
1.0792,110.83
1.0616,106.87
1.0411,103.26
1.0196,99.935
1.001,96.76
0.9912,93.634
0.99804,90.557
1.0332,87.675
1.0909,85.379
1.1799,83.719
1.3167,82.986
1.4927,82.937
1.6911,83.279
1.8954,83.865
2.088,84.305
2.2532,84.549
2.3832,84.598
2.478,84.403
2.5406,84.158
2.5767,83.865
2.5904,83.67
2.5894,83.572
2.5787,83.475
2.5591,83.426
2.5318,83.182
2.4966,82.693
2.4545,82.058
2.4047,81.277
2.347,80.495
2.2835,79.665
2.2141,78.883
2.1398,78.053
2.0626,77.369
1.9922,76.734
1.9267,76.099
1.8553,75.562
1.784,75.073
1.7185,74.536
1.6608,74.048
1.6119,73.559
1.5728,73.12
1.5435,72.68
1.523,72.387
1.5093,72.045
1.4995,71.752
1.4956,71.361
1.4946,70.873
1.4927,70.433
1.4888,70.384
1.4839,71.752
1.478,76.246
1.4712,85.379
1.4633,99.349
1.4536,116.05
1.4418,131.68
1.4282,142.87
1.4125,148.39
1.3949,149.27
1.3812,147.31
1.3685,144.38
1.3519,141.35
1.3333,139.01
1.3138,137.2
1.2933,135.54
1.2717,133.69
1.2512,131.05
1.2336,127.68
1.217,123.67
1.2023,119.37
1.1896,115.08
1.1818,110.88
1.175,106.97
1.1623,103.45
1.1466,100.13
1.13,96.858
1.1183,93.634
1.1232,90.41
1.1554,87.626
1.2239,85.379
1.3343,83.914
1.4839,83.377
1.6618,83.572
1.8543,84.158
2.0225,84.94
2.1662,85.624
2.306,85.917
2.4252,85.966
2.5171,85.721
2.5826,85.282
2.6237,84.793
2.6442,84.403
2.6491,84.11
2.6403,83.865
2.6188,83.621
2.5865,83.182
2.5494,82.693
2.5064,82.009
2.4536,81.228
2.393,80.446
2.3245,79.616
2.2512,78.932
2.174,78.297
2.0938,77.76
2.0117,77.174
1.9306,76.685
1.8543,76.05
1.7859,75.464
1.7273,74.927
1.6843,74.292
1.653,73.803
1.6246,73.315
1.6012,72.924
1.5816,72.533
1.565,72.094
1.5494,71.605
1.5327,70.97
1.5161,70.287
1.4995,69.749
1.4829,69.749
1.4663,71.508
1.4536,76.539
1.4428,86.405
1.4311,100.91
1.4194,117.67
1.4066,132.76
1.3939,143.06
1.3803,147.8
1.3656,148.29
1.349,146.43
1.3304,143.8
1.3109,141.31
1.2903,139.3
1.2688,137.69
1.2532,136.08
1.2414,133.98
1.2258,131.24
1.2092,127.73
1.1926,123.72
1.1769,119.37
1.1623,114.98
1.1476,110.73
1.13,106.82
1.1114,103.11
1.0919,99.544
1.0762,96.174
1.0714,92.95
1.0821,89.824
1.1153,87.04
1.1828,84.94
1.2903,83.475
1.437,82.791
1.6139,82.791
1.8055,83.23
1.9971,83.865
2.173,84.5
2.3216,84.94
2.4399,85.135
2.5269,84.989
2.5806,84.745
2.6109,84.403
2.6295,84.061
2.6354,83.719
2.6295,83.426
2.6119,83.035
2.5855,82.547
2.5494,81.912
2.5054,81.228
2.4545,80.446
2.3969,79.616
2.3333,78.737
2.2727,78.004
2.2121,77.32
2.1408,76.685
2.0626,76.099
1.9814,75.562
1.9022,75.073
1.827,74.536
1.7586,74.048
1.6999,73.559
1.653,73.071
1.6598,72.485
1.697,71.947
1.7077,71.312
1.7116,70.677
1.7126,70.042
1.7097,69.359
1.7038,68.675
1.696,67.991
1.6862,67.698
1.6745,68.626
1.6598,72.387
1.6422,80.495
1.6217,93.781
1.5982,110.63
1.5738,127.19
1.5543,139.6
1.5367,146.24
1.5171,147.75
1.4956,146.14
1.4731,143.26
1.4506,140.23
1.4282,137.74
1.4066,135.88
1.3861,134.22
1.3656,132.37
1.346,129.88
1.3265,126.6
1.3128,122.84
1.3021,118.74
1.2864,114.49
1.2688,110.44
1.2502,106.63
1.2278,103.06
1.2033,99.691
1.1789,96.369
1.1603,92.999
1.1574,89.824
1.1857,86.796
1.2561,84.403
1.3754,82.791
1.5142,81.912
1.6774,81.814
1.8876,82.156
2.1173,82.84
2.3421,83.475
2.5425,84.012
2.7077,84.305
2.8328,84.403
2.9189,84.354
2.9726,84.158
3.001,84.061
3.0098,84.012
3.002,83.816
2.9834,83.572
2.956,83.182
2.9208,82.595
2.8768,81.863
2.8231,81.032
2.7605,80.104
2.6891,79.225
2.61,78.346
2.5239,77.662
2.4311,77.125
2.3343,76.636
2.2366,76.246
2.1515,75.855
2.0772,75.415
2.002,74.976
1.9316,74.438
1.8719,73.803
1.824,73.168
1.7869,72.533
1.7586,71.996
1.737,71.41
1.7224,70.873
1.7107,70.384
1.6989,69.945
1.6911,70.091
1.6843,71.85
1.6755,76.881
1.6657,86.601
1.653,101.01
1.6364,117.76
1.6178,132.86
1.5982,143.11
1.5777,147.56
1.5572,147.51
1.5367,144.87
1.5161,141.45
1.4946,138.13
1.478,135.54
1.4643,133.64
1.4477,131.98
1.4301,130.12
1.4135,127.63
1.3969,124.41
1.3812,120.6
1.3656,116.44
1.35,112.19
1.3324,108.09
1.3118,104.28
1.2893,100.81
1.2717,97.493
1.2571,94.22
1.2444,91.094
1.2473,88.164
1.2796,85.673
1.3568,83.914
1.4858,83.035
1.6637,82.937
1.8807,83.279
2.1193,84.012
2.3568,84.549
2.5748,84.94
2.7595,85.038
2.8915,84.94
2.9824,84.696
3.0538,84.354
3.1007,84.061
3.1271,83.719
3.1359,83.475
3.13,83.133
3.1114,82.693
3.0811,82.107
3.0391,81.374
2.9863,80.544
2.9247,79.665
2.8631,78.883
2.8006,78.004
2.7263,77.223
2.6432,76.49
2.5533,75.806
2.4614,75.122
2.3695,74.487
2.2825,73.999
2.2023,73.51
2.132,73.12
2.0743,72.778
2.0274,72.485
1.9912,72.094
1.9668,71.801
1.9511,71.41
1.9384,70.97
1.9286,70.531
1.9198,70.042
1.913,69.554
1.9042,69.407
1.8944,70.531
1.8837,74.487
1.87,82.937
1.8553,96.467
1.8387,113.22
1.824,129.44
1.8084,141.31
1.7889,147.36
1.7674,148.29
1.7449,146.14
1.7204,142.62
1.696,139.01
1.6735,136.13
1.653,134.08
1.6334,132.51
1.6149,130.8
1.5982,128.61
1.5826,125.72
1.5718,122.16
1.565,118.11
1.5562,113.9
1.5455,109.85
1.5327,106.14
1.5161,102.72
1.4956,99.544
1.4731,96.418
1.4565,93.341
1.4585,90.362
1.4936,87.626
1.5728,85.428
1.6774,84.061
1.8152,83.426
2.0137,83.572
2.2502,84.11
2.5024,84.745
2.7458,85.184
2.9638,85.379
3.1417,85.233
3.2766,84.94
3.3705,84.5
3.4282,84.11
3.4585,83.719
3.4673,83.475
3.4585,83.279
3.437,82.986
3.4057,82.693
3.3656,82.156
3.3148,81.472
3.2532,80.739
3.1828,79.86
3.1026,79.03
3.0156,78.199
2.9208,77.418
2.8211,76.783
2.7175,76.197
2.6246,75.611
2.5406,75.073
2.4526,74.536
2.3685,74.097
2.2933,73.608
2.2297,73.168
2.1769,72.778
2.1339,72.436
2.1007,72.045
2.0762,71.752
2.0557,71.361
2.0381,70.922
2.0205,70.384
2.0059,69.798
1.9922,69.554
1.9756,70.238
1.957,73.51
1.9365,80.788
1.914,93.195
1.8895,109.17
1.8651,125.48
1.8407,138.23
1.8152,145.36
1.7889,147.26
1.7634,145.7
1.7419,142.58
1.7214,139.25
1.696,136.47
1.6686,134.61
1.6413,133.25
1.6149,131.88
1.5904,129.97
1.567,127.39
1.5455,124.06
1.5269,120.06
1.5112,115.81
1.4956,111.56
1.478,107.51
1.4633,103.74
1.4477,100.23
1.4252,97.004
1.4027,93.781
1.393,90.752
1.4106,87.919
1.4692,85.624
1.5806,83.914
1.7478,82.986
1.9629,82.693
2.2111,82.84
2.4702,83.377
2.6901,84.012
2.8729,84.403
3.0469,84.598
3.1926,84.5
3.1818,84.256
3.0772,83.914
3.0332,83.475
3.0108,83.133
2.9932,82.693
2.9726,82.253
2.9453,81.716
2.9091,81.228
2.868,80.544
2.8211,79.86
2.7654,79.127
2.6999,78.297
2.6266,77.564
2.5455,76.881
2.4585,76.246
2.3675,75.66
2.2757,75.171
2.1848,74.683
2.0978,74.292
2.0176,73.852
1.9472,73.364
1.8925,72.875
1.8495,72.387
1.8113,71.85
1.7781,71.41
1.7517,71.068
1.7322,70.629
1.7155,70.189
1.6999,69.652
1.6843,69.114
1.6686,68.968
1.6549,70.042
1.6403,73.901
1.6266,82.156
1.6139,95.197
1.5982,111.22
1.5797,126.8
1.5591,138.38
1.5376,144.24
1.5161,145.16
1.4936,142.92
1.4721,139.45
1.4506,135.88
1.4301,133.05
1.4086,130.76
1.3871,128.12
1.3695,124.31
1.3548,119.67
1.3392,115.81
1.3236,113.61
1.3079,112.68
1.2923,112
1.2766,111.41
1.26,110.88
1.2424,109.95
1.2219,107.55
1.2014,103.06
1.1867,96.76
1.1838,89.727
1.2014,83.621
1.2502,79.03
1.3402,76.246
1.478,75.171
1.6579,75.757
1.8661,77.418
2.085,79.762
2.2962,82.302
2.4839,84.989
2.6364,87.284
2.7507,88.408
2.8299,88.066
2.8739,86.405
2.8935,84.11
2.9013,81.814
2.8964,79.811
2.8807,78.248
2.8543,77.125
2.8192,76.539
2.7732,76.636
2.7185,77.32
2.6549,78.248
2.5826,78.932
2.5044,79.421
2.4291,80.3
2.3548,81.374
2.2708,81.716
2.1818,80.446
2.0919,77.76
2.0049,74.341
1.9238,71.068
1.8514,68.235
1.7908,66.428
1.741,65.353
1.6999,64.67
1.6667,64.718
1.6413,65.94
1.6227,68.04
1.61,70.384
1.5982,72.192
1.5865,73.315
1.5728,74.243
1.5582,76.294
1.5435,81.667
1.5279,91.925
1.5112,106.72
1.4927,123.14
1.4731,136.47
1.4526,143.7
1.435,144.48
1.4184,141.11
1.3988,135.93
1.3783,130.51
1.3568,125.97
1.3353,123.23
1.3148,122.7
1.2952,123.58
1.2766,124.8
1.259,125.68
1.2434,125.43
1.2297,123.82
1.2151,120.69
1.2033,116.54
1.1926,111.95
1.1769,107.07
1.1564,102.13
1.1339,97.102
1.1173,92.511
1.1144,88.359
1.1369,84.94
1.1975,82.253
1.305,80.593
1.4604,80.446
1.6559,81.423
1.8446,83.035
2.0274,84.94
2.2258,86.601
2.4135,87.48
2.5718,86.943
2.694,85.379
2.7781,83.426
2.8309,82.107
2.8583,81.667
2.8651,82.156
2.8563,83.133
2.8358,84.11
2.8065,84.745
2.7713,84.598
2.7292,83.621
2.6784,82.009
2.6197,80.104
2.5533,78.346
2.479,76.978
2.3969,76.05
2.3089,75.464
2.217,75.22
2.1232,75.171
2.0323,74.976
1.9472,74.536
1.8788,73.755
1.8231,72.631
1.7732,71.557
1.7322,70.726
1.6999,70.531
1.6755,70.824
1.6579,71.068
1.6442,70.873
1.6325,69.994
1.6207,68.724
1.609,67.942
1.5973,68.284
1.5855,71.312
1.5738,78.541
1.5621,91.485
1.5474,108.97
1.5308,127.29
1.5122,141.79
1.4917,149.8
1.4712,151.42
1.4516,148.49
1.4311,143.31
1.4115,137.74
1.393,133.25
1.3754,130.36
1.3617,129.09
1.349,128.75
1.3343,128.41
1.3187,127.43
1.3021,125.29
1.2854,121.91
1.2688,117.76
1.2522,113.12
1.2346,108.63
1.2151,104.48
1.1935,100.72
1.172,97.102
1.1564,93.683
1.1535,90.508
1.1701,87.48
1.2199,84.94
1.3138,82.986
1.4565,81.912
1.6432,81.57
1.8602,81.667
2.0909,81.863
2.3138,82.253
2.5122,82.791
2.6735,83.426
2.7957,83.865
2.8729,84.11
2.9159,84.158
2.9423,84.061
2.9541,83.816
2.9521,83.377
2.9374,82.791
2.911,82.156
2.8759,81.716
2.8309,81.374
2.7771,80.886
2.7146,80.251
2.6452,79.567
2.5689,78.786
2.4936,77.906
2.4184,77.125
2.3324,76.343
2.2405,75.757
2.1457,75.318
2.0547,74.927
1.9707,74.536
1.8964,74.097
1.8328,73.657
1.781,73.217
1.739,72.875
1.7067,72.436
1.6843,72.045
1.6676,71.654
1.653,71.166
1.6393,70.677
1.6256,70.238
1.6119,70.531
1.5982,72.68
1.5836,78.297
1.567,88.847
1.5494,104.18
1.5298,121.62
1.5073,136.86
1.4878,146.68
1.4692,150.2
1.4477,148.93
1.4242,145.12
1.4008,140.62
1.3773,136.57
1.3548,133.69
1.3333,132.12
1.3128,131.24
1.2933,130.32
1.2747,128.75
1.2336,126.36
1.1828,123.18
1.1535,119.47
1.1339,115.37
1.1144,111.07
1.0948,106.92
1.0733,103.06
1.0508,99.447
1.0303,95.881
1.0196,92.413
1.0293,89.092
1.0733,86.259
1.1603,84.061
1.2972,82.791
1.4487,82.498
1.6188,82.84
1.8299,83.67
2.0538,84.403
2.2669,84.94
2.4516,85.184
2.5992,85.233
2.7067,85.184
2.7791,84.842
2.8221,84.354
2.8426,83.914
2.8465,83.67
2.8358,83.279
2.8143,82.84
2.783,82.156
2.7419,81.277
2.6911,80.495
2.6315,79.762
2.563,79.127
2.4858,78.444
2.3998,77.76
2.3079,76.978
2.2111,76.099
2.1114,75.22
2.0127,74.438
1.9277,73.657
1.8534,72.973
1.7781,72.485
1.7087,72.094
1.6491,71.801
1.6002,71.361
1.5611,70.677
1.5308,69.652
1.5064,68.528
1.4878,67.551
1.4721,66.819
1.4575,66.379
1.4428,66.428
1.4311,67.796
1.4203,71.752
1.4057,80.104
1.3891,93.488
1.3705,110.53
1.3509,127.63
1.3294,140.67
1.3079,147.51
1.2845,148.63
1.26,145.85
1.2346,141.55
1.2092,137.06
1.1887,133.34
1.172,130.95
1.1505,129.68
1.1271,128.95
1.1017,127.92
1.0762,126.26
1.0518,123.62
1.0293,120.3
1.0078,116.49
0.98729,112.39
0.96579,108.19
0.94233,104.23
0.91593,100.57
0.89443,97.004
0.87977,93.439
0.87195,89.971
0.88563,86.796
0.93451,84.256
1.0313,82.498
1.1808,81.716
1.3763,81.863
1.6041,82.498
1.8436,83.377
2.0733,84.158
2.2766,84.793
2.4272,85.135
2.5347,85.184
2.6217,85.038
2.6813,84.745
2.7165,84.305
2.7312,83.865
2.7283,83.475
2.7126,83.182
2.6862,82.742
2.6491,82.253
2.6012,81.618
2.5445,80.886
2.479,80.007
2.4125,79.03
2.3441,78.248
2.263,77.467
2.172,76.978
2.0753,76.539
1.9746,76.197
1.8749,75.757
1.7791,75.366
1.6901,74.878
1.6119,74.341
1.5455,73.755
1.4907,73.071
1.4526,72.387
1.4252,71.752
1.4027,71.312
1.3861,70.97
1.3734,70.824
1.3636,70.629
1.3548,70.873
1.3441,72.485
1.3324,77.125
1.3196,86.503
1.305,101.01
1.2893,118.5
1.2708,134.91
1.2542,146.48
1.2395,151.56
1.2199,150.98
1.1984,147.07
1.1769,141.79
1.1554,136.86
1.1349,133.1
1.1153,130.8
1.0968,129.53
1.0792,128.7
1.0626,127.53
1.0459,125.63
1.0342,122.75
1.0254,119.18
1.0137,114.98
1,110.68
0.98436,106.43
0.96579,102.38
0.9433,98.567
0.92082,95.002
0.9042,91.778
0.90616,89.043
0.93939,86.747
1.0156,85.135
1.1427,84.256
1.2893,84.11
1.4575,84.5
1.6686,85.184
1.8964,85.819
2.1163,86.112
2.3099,86.161
2.4663,85.917
2.5816,85.477
2.6598,84.94
2.7077,84.354
2.7302,83.865
2.7341,83.475
2.7234,83.133
2.7019,82.693
2.6716,82.107
2.6325,81.423
2.5855,80.593
2.5298,79.811
2.4663,78.883
2.3949,78.004
2.3167,77.32
2.2317,76.734
2.1427,76.246
2.0518,75.806
1.9609,75.415
1.8837,75.073
1.8172,74.634
1.7517,74.194
1.694,73.657
1.6442,73.168
1.6041,72.729
1.5728,72.289
1.5503,71.801
1.5337,71.312
1.522,70.922
1.5103,70.531
1.4985,70.287
1.4888,70.384
1.479,71.752
1.4663,75.855
1.4516,84.5
1.435,98.323
1.4174,115.47
1.4008,132.37
1.3842,144.87
1.3675,150.98
1.3509,151.51
1.3324,148.29
1.3128,143.55
1.2952,138.86
1.2796,135.2
1.26,132.86
1.2395,131.68
1.219,130.95
1.1975,129.93
1.1779,128.17
1.1603,125.48
1.1457,121.82
1.1329,117.62
1.1202,113.22
1.1065,108.97
1.0899,105.01
1.0762,101.16
1.0645,97.542
1.0518,94.074
1.0489,90.801
1.0694,87.871
1.1271,85.575
1.2317,84.11
1.3851,83.572
1.5806,83.67
1.8045,84.305
2.0362,85.038
2.2561,85.673
2.4282,86.063
2.5601,85.966
2.6745,85.721
2.7595,85.282
2.8172,84.94
2.8504,84.549
2.8631,84.256
2.8592,83.914
2.8416,83.67
2.8113,83.377
2.7713,82.937
2.7214,82.351
2.6618,81.618
2.6012,80.788
2.5376,79.909
2.4624,79.127
2.3783,78.346
2.2874,77.662
2.1916,77.125
2.0948,76.49
2,75.904
1.911,75.415
1.8299,74.927
1.7605,74.487
1.7009,74.097
1.6559,73.755
1.6217,73.413
1.5914,73.168
1.566,72.875
1.5445,72.533
1.5611,72.094
1.5963,71.508
1.607,70.873
1.6041,70.482
1.5953,71.312
1.5846,74.731
1.5709,82.547
1.5562,95.539
1.5425,112.44
1.5308,129.53
1.5152,143.02
1.4976,150.29
1.478,151.61
1.4575,148.97
1.436,144.63
1.4125,139.99
1.3871,136.23
1.3617,133.69
1.3363,132.32
1.3118,131.49
1.2952,130.56
1.2815,128.85
1.2669,126.26
1.2532,122.75
1.2414,118.69
1.2326,114.44
1.2248,110.19
1.216,106.19
1.2043,102.43
1.1906,98.909
1.1789,95.49
1.1789,92.218
1.2023,89.287
1.2473,86.796
1.3236,85.135
1.4506,84.256
1.6246,84.11
1.8338,84.549
2.0596,85.233
2.2815,85.917
2.4819,86.405
2.6471,86.601
2.7752,86.405
2.8671,85.966
2.9277,85.477
2.9589,84.989
2.9707,84.5
2.9726,84.061
2.9638,83.572
2.9443,83.035
2.914,82.498
2.8739,81.863
2.8231,81.179
2.7634,80.349
2.696,79.469
2.6197,78.688
2.5376,78.004
2.4497,77.369
2.3666,76.881
2.2864,76.343
2.1984,75.855
2.1095,75.366
2.0254,74.927
1.9501,74.438
1.8866,73.901
1.8338,73.51
1.7928,73.071
1.7615,72.68
1.738,72.387
1.7195,72.045
1.7048,71.654
1.6931,71.117
1.6794,70.433
1.6637,69.994
1.6471,70.433
1.6276,73.168
1.608,79.86
1.5875,91.778
1.565,108.04
1.5435,125.63
1.521,140.13
1.4985,148.73
1.4751,151.07
1.4575,148.93
1.4418,144.48
1.4223,139.69
1.4008,135.64
1.3803,132.81
1.3597,131.24
1.3392,130.36
1.3177,129.44
1.2972,127.83
1.2776,125.19
1.26,121.67
1.2444,117.47
1.2346,113.07
1.2278,108.68
1.218,104.48
1.2053,100.62
1.1887,97.004
1.173,93.488
1.1642,90.166
1.174,87.138
1.217,84.598
1.303,82.84
1.437,81.912
1.6188,81.716
1.8348,82.058
2.0352,82.742
2.2199,83.475
2.4135,84.061
2.5894,84.403
2.7341,84.549
2.8436,84.403
2.9198,84.11
2.9668,83.719
2.9902,83.377
2.9951,82.986
2.9844,82.595
2.9609,82.107
2.9277,81.618
2.8856,80.984
2.8328,80.3
2.7713,79.616
2.6999,78.932
2.6217,78.248
2.5376,77.564
2.4467,76.929
2.3519,76.343
2.2551,75.855
2.1574,75.415
2.0645,74.927
1.9795,74.438
1.911,73.901
1.8553,73.364
1.8025,72.875
1.7576,72.289
1.7214,71.85
1.6931,71.361
1.6716,70.97
1.6549,70.482
1.6413,69.994
1.6295,69.407
1.6178,69.31
1.6051,70.384
1.5943,74.243
1.5836,82.547
1.5689,96.076
1.5503,113.17
1.5288,130.22
1.5054,143.06
1.48,149.37
1.4536,149.76
1.4272,146.29
1.4008,141.35
1.3744,136.42
1.349,132.56
1.3255,130.12
1.3079,128.95
1.2933,128.17
1.2757,127.24
1.2571,125.38
1.2395,122.55
1.2219,118.94
1.2063,114.88
1.1906,110.53
1.175,106.38
1.1584,102.43
1.1388,98.812
1.1173,95.295
1.1017,91.925
1.0968,88.75
1.1095,85.917
1.1554,83.865
1.2483,82.791
1.392,82.693
1.5826,83.377
1.8045,84.403
2.0401,85.575
2.2669,86.356
2.4682,86.796
2.6325,86.796
2.7458,86.503
2.8192,85.917
2.8729,85.282
2.9052,84.745
2.9189,84.305
2.9169,84.061
2.9013,83.719
2.8729,83.426
2.8348,82.84
2.7859,82.253
2.7283,81.57
2.6637,80.739
2.5904,79.909
2.5191,79.127
2.4457,78.346
2.3607,77.76
2.2688,77.125
2.173,76.539
2.0782,76.001
1.9902,75.464
1.911,74.976
1.8426,74.487
1.7869,73.901
1.7429,73.364
1.7107,72.778
1.6891,72.289
1.6755,71.752
1.6637,71.117
1.6549,70.433
1.6471,69.798
1.6393,69.554
1.6295,70.726
1.6197,74.878
1.607,83.67
1.5934,97.932
1.5777,115.76
1.5591,133.1
1.5386,145.75
1.521,151.51
1.5034,151.22
1.4819,147.31
1.4594,141.99
1.4379,137.01
1.4164,133.25
1.3959,131.1
1.3773,130.32
1.3607,129.93
1.3441,129.19
1.3265,127.43
1.3099,124.7
1.2972,121.04
1.2864,116.93
1.2717,112.68
1.2542,108.53
1.2346,104.67
1.2102,101.06
1.1848,97.591
1.1632,94.22
1.1544,91.045
1.172,88.066
1.2307,85.624
1.3392,83.914
1.4985,83.133
1.6696,83.182
1.8524,83.816
2.0723,84.598
2.2972,85.428
2.5034,85.917
2.6755,86.112
2.8065,85.966
2.8974,85.721
2.955,85.282
2.9853,84.94
2.9961,84.549
2.9863,84.11
2.9629,83.67
2.9326,83.182
2.8974,82.547
2.8534,81.863
2.8006,81.032
2.739,80.153
2.6696,79.323
2.5934,78.541
2.5093,77.858
2.4174,77.32
2.3206,76.783
2.2199,76.343
2.1183,75.904
2.0303,75.415
1.9531,74.976
1.8749,74.487
1.8045,74.048
1.7458,73.608
1.6989,73.217
1.6628,72.778
1.6364,72.387
1.6168,71.947
1.6022,71.41
1.5894,70.922
1.5777,70.482
1.5679,70.873
1.5582,73.217
1.5445,79.372
1.5279,90.606
1.5093,106.53
1.4888,124.16
1.4663,139.25
1.4418,148.53
1.4164,151.51
1.39,149.85
1.3646,145.8
1.3402,141.16
1.3157,137.2
1.2962,134.52
1.2805,133.05
1.262,132.32
1.2424,131.44
1.2229,129.88
1.2043,127.29
1.1867,123.87
1.1711,119.81
1.1564,115.47
1.1417,111.17
1.1251,107.12
1.1036,103.35
1.086,99.74
1.0704,96.321
1.0547,92.999
1.0528,89.922
1.0792,87.236
1.1476,85.282
1.2659,84.11
1.435,83.719
1.6442,84.012
1.8768,84.598
2.1124,85.379
2.3294,85.966
2.5132,86.356
2.6452,86.503
2.7331,86.308
2.7986,85.868
2.8407,85.379
2.8612,84.842
2.8641,84.354
2.8524,83.865
2.8289,83.279
2.7957,82.742
2.7546,82.009
2.7048,81.228
2.6471,80.446
2.5875,79.567
2.523,78.737
2.4467,78.053
2.3607,77.369
2.2669,76.734
2.1672,76.197
2.0674,75.757
1.9707,75.318
1.8798,74.878
1.7977,74.438
1.7273,73.901
1.6676,73.51
1.6178,73.071
1.5826,72.631
1.5572,72.24
1.5357,71.947
1.52,71.508
1.5073,70.97
1.4966,70.433
1.4848,69.994
1.4721,70.384
1.4575,72.729
1.4418,78.883
1.4233,89.971
1.4027,105.7
1.3851,123.18
1.3695,138.18
1.349,147.56
1.3265,150.54
1.305,148.93
1.2835,144.87
1.261,140.23
1.2375,136.32
1.2151,133.64
1.1926,132.17
1.1701,131.39
1.1486,130.36
1.129,128.7
1.1153,126.07
1.1036,122.6
1.0899,118.54
1.0762,114.2
1.0616,109.85
1.045,105.8
1.0264,101.99
1.0068,98.47
0.98729,95.099
0.97556,91.778
0.98338,88.75
1.0235,86.161
1.088,84.354
1.1867,83.377
1.3392,83.182
1.5347,83.572
1.7566,84.305
1.9853,85.135
2.2004,85.721
2.3861,86.063
2.5337,85.917
2.6422,85.624
2.7155,85.135
2.7605,84.5
2.7791,83.816
2.7791,83.133
2.7683,82.449
2.7458,81.716
2.7136,80.984
2.6735,80.153
2.6246,79.372
2.566,78.541
2.4985,77.76
2.4242,76.929
2.3421,76.099
2.2532,75.415
2.1593,74.78
2.0753,74.194
1.9961,73.608
1.911,73.071
1.827,72.631
1.7488,72.192
1.6784,71.752
1.6188,71.215
1.5709,70.824
1.5318,70.287
1.5015,69.945
1.479,69.505
1.4614,69.066
1.4497,68.479
1.4409,67.844
1.4291,67.356
1.4145,67.551
1.3988,69.603
1.3812,75.122
1.3617,85.624
1.3402,101.06
1.3167,118.89
1.2923,134.91
1.2678,145.56
1.2424,149.61
1.218,148.63
1.1994,144.82
1.1838,140.33
1.1652,136.23
1.1466,133.34
1.129,131.63
1.1114,130.66
1.0948,129.83
1.0802,128.31
1.0655,125.92
1.0518,122.55
1.0381,118.59
1.0235,114.34
1.0137,110.19
1.0059,106.24
0.99218,102.47
0.97263,99.007
0.95015,95.49
0.93157,92.071
0.92669,88.847
0.94819,86.063
1.0098,84.061
1.1193,82.937
1.2776,82.693
1.4761,83.035
1.6989,83.719
1.8993,84.5
2.0772,84.989
2.2542,85.184
2.4076,85.038
2.5279,84.745
2.6149,84.354
2.6696,83.914
2.6989,83.572
2.7077,83.182
2.6999,82.84
2.6774,82.498
2.6442,82.009
2.6061,81.423
2.5611,80.69
2.5054,79.86
2.4399,79.03
2.3666,78.248
2.2864,77.467
2.2004,76.881
2.1095,76.343
2.0156,76.001
1.9218,75.66
1.8319,75.366
1.7488,75.073
1.6755,74.731
1.6188,74.438
1.5767,73.999
1.5396,73.51
1.5093,72.924
1.4848,72.289
1.4673,71.752
1.4536,71.166
1.4428,70.677
1.4311,70.384
1.4194,70.629
1.4076,72.485
1.3939,77.662
1.3832,87.822
1.3734,102.82
1.3607,120.35
1.346,136.32
1.3294,147.12
1.3118,151.61
1.2933,150.98
1.2727,147.36
1.2522,142.62
1.2326,138.13
1.2131,134.61
1.1945,132.22
1.1769,130.66
1.1642,129.24
1.1535,127.43
2.8592,82.693
2.8495,82.547
2.828,82.351
2.7977,82.107
2.7586,81.618
2.7107,80.935
2.6559,80.104
2.5934,79.372
2.5239,78.59
2.4487,77.906
2.3763,77.223
2.305,76.636
2.2239,76.001
2.1398,75.415
2.0567,74.927
1.9775,74.487
1.9062,73.999
1.8446,73.657
1.7937,73.364
1.7527,73.12
1.7204,72.924
1.697,72.631
1.6804,72.387
1.6716,72.094
1.6667,71.752
1.6637,71.361
1.6598,71.068
1.654,71.508
1.6471,73.803
1.6393,79.811
1.6285,90.752
1.6149,106.24
1.5992,123.43
1.5826,138.33
1.564,147.75
1.5484,151.17
1.5337,150
1.5171,146.24
1.4985,141.79
1.479,137.74
1.4604,134.76
1.4418,132.81
1.4223,131.49
1.4027,130.22
1.3842,128.56
1.3666,126.07
1.35,122.84
1.3343,119.18
1.3226,115.17
1.3128,111.07
1.3011,107.12
1.2854,103.31
1.2669,99.691
1.2463,96.174
1.2317,92.804
1.2317,89.629
1.26,86.991
1.3284,85.135
1.4448,84.061
1.609,83.865
1.7801,84.256
1.958,84.94
2.1662,85.673
2.3744,86.259
2.563,86.503
2.7195,86.405
2.8368,86.112
2.9189,85.673
2.9717,85.184
2.999,84.696
3.0078,84.256
3.002,83.816
2.9824,83.279
2.9541,82.742
2.9159,82.009
2.869,81.032
2.8123,80.104
2.7468,79.225
2.6725,78.444
2.5904,77.662
2.5034,77.027
2.4135,76.441
2.3206,75.855
2.2268,75.366
2.1359,74.927
2.0577,74.438
1.9912,73.852
1.9257,73.364
1.868,72.875
1.8211,72.485
1.784,72.045
1.7566,71.557
1.737,71.166
1.7234,70.824
1.7126,70.384
1.7019,69.798
1.6911,69.261
1.6804,69.163
1.6706,70.531
1.6579,74.878
1.6413,83.816
1.6227,97.786
1.6041,115.17
1.5855,131.93
1.567,144.04
1.5474,149.66
1.5269,149.66
1.5044,146.24
1.4809,141.55
1.4565,137.11
1.436,133.74
1.4164,131.73
1.3939,130.66
1.3705,129.93
1.347,128.75
1.3255,126.7
1.3079,123.67
1.2923,119.86
1.2786,115.61
1.2659,111.17
1.2522,106.92
1.2356,103.01
1.2209,99.349
1.2072,95.881
1.1896,92.511
1.1779,89.238
1.1867,86.308
1.2297,83.865
1.3177,82.253
1.4545,81.472
1.6373,81.57
1.8534,82.156
2.0841,83.182
2.3099,84.11
2.5122,84.793
2.6647,85.135
2.7761,84.989
2.871,84.598
2.9423,84.012
2.9902,83.377
3.0156,82.742
3.0235,82.107
3.0137,81.472
2.9892,80.886
2.9521,80.104
2.9032,79.323
2.8446,78.346
2.7849,77.467
2.7214,76.539
2.6461,75.757
2.563,75.122
2.4712,74.634
2.3734,74.243
2.2717,73.852
2.1691,73.559
2.0714,73.217
1.9804,72.875
1.9013,72.533
1.8348,72.094
1.781,71.654
1.7429,71.117
1.7165,70.629
1.695,70.042
1.6794,69.505
1.6676,68.919
1.6559,68.284
1.6442,67.747
1.6325,67.356
1.6197,67.942
1.6041,70.629
1.5865,77.223
1.567,89.043
1.5494,105.31
1.5327,122.99
1.5112,137.89
1.4868,146.87
1.4604,149.66
1.433,147.85
1.4066,143.6
1.3822,138.81
1.3597,134.57
1.3382,131.39
1.3177,129.44
1.2991,128.07
1.2825,126.56
1.2717,124.55
1.263,121.62
1.2522,117.91
1.2405,113.81
1.2268,109.56
1.2121,105.36
1.1945,101.35
1.174,97.737
1.1505,94.416
1.1261,91.387
1.1075,88.359
1.1075,85.575
1.129,83.182
1.1818,81.618
1.2835,80.788
1.437,80.739
1.6344,81.228
1.8612,82.107
2.0987,83.035
2.3255,83.914
2.523,84.549
2.6813,85.038
2.7977,85.477
2.8749,85.575
2.9198,85.379
2.9374,85.135
2.9355,84.989
2.9238,84.793
2.9022,84.11
2.8719,83.035
2.8338,81.912
2.7869,80.935
2.7322,79.909
2.6686,78.883
2.5953,77.858
2.5132,77.027
2.4233,76.539
2.3392,76.099
2.2581,75.66
2.1672,75.122
2.0743,74.292
1.9844,73.315
1.9032,72.436
1.8338,72.094
1.7761,72.289
1.7302,72.729
1.696,73.071
1.6725,73.217
1.6579,73.12
1.6334,72.485
1.6051,71.508
1.5885,70.629
1.5758,70.922
1.5621,73.852
1.5464,81.032
1.5288,93.439
1.5083,110.05
1.4868,127.43
1.4643,141.35
1.4409,149.17
1.4184,150.88
1.3949,148.05
1.3773,143.02
1.3627,137.74
1.3451,133.88
1.3265,131.49
1.3079,129.88
1.2884,128.56
1.2688,127.39
1.2502,126.12
1.2317,124.41
1.2131,122.06
1.1955,119.37
1.1789,116.64
1.1623,114
1.1496,110.97
1.1369,107.31
1.1173,102.57
1.0958,97.053
1.0782,91.485
1.0772,86.601
1.1056,82.937
1.1769,80.544
1.2991,79.323
1.4721,78.981
1.6872,79.567
1.9267,80.788
2.1388,82.156
2.3236,83.279
2.5054,84.012
2.6598,84.305
2.7781,84.5
2.8583,84.5
2.9052,84.403
2.9257,84.5
2.9277,84.5
2.9169,84.354
2.8944,84.012
2.8622,83.23
2.8201,82.351
2.7742,81.228
2.7224,80.007
2.6598,78.541
2.5875,77.174
2.5064,76.001
2.4174,74.976
2.3226,74.243
2.2239,73.755
2.1251,73.755
2.0293,74.487
1.9413,75.66
1.8631,76.636
1.8016,76.636
1.7537,75.757
1.7107,74.487
1.6755,72.973
1.65,70.824
1.6315,67.942
1.6197,65.402
1.6129,64.377
1.607,65.158
1.6012,67.942
1.5943,72.924
1.5855,80.788
1.5748,92.218
1.564,106.87
1.5533,122.55
1.5386,135.98
1.52,144.68
1.4995,148
1.478,147.07
1.4565,143.55
1.434,139.3
1.4125,135.64
1.392,133.1
1.3724,131.54
1.3529,130.07
1.3372,128.61
1.3245,127.24
1.3099,126.07
1.2942,124.5
1.2776,122.31
1.262,119.23
1.2463,115.57
1.2297,111.36
1.2111,106.72
1.1906,101.79
1.1691,96.76
1.1496,91.778
1.1398,87.284
1.1476,83.621
1.1808,81.032
1.2542,79.762
1.3763,79.811
1.5484,80.739
1.7595,81.863
1.9922,82.547
2.2258,82.742
2.4409,82.351
2.6197,81.618
2.7576,80.886
2.8534,80.446
2.9081,80.544
2.9326,81.423
2.9404,82.791
2.9335,84.158
2.9159,85.038
2.8895,85.135
2.8524,84.5
2.8074,83.377
2.7537,82.058
2.6901,80.788
2.6188,80.007
2.5396,79.762
2.4643,79.909
2.3891,80.446
2.303,80.788
2.2121,80.788
2.1183,80.104
2.0264,78.688
1.9394,76.685
1.8612,74.634
1.7937,72.729
1.737,71.215
1.6911,70.189
1.6549,69.554
1.6276,69.359
1.609,69.359
1.5963,69.407
1.5855,69.359
1.5758,69.114
1.565,69.114
1.5523,70.238
1.5386,73.999
1.523,82.058
1.5044,95.099
1.4839,111.66
1.4614,127.87
1.437,139.99
1.4164,146.19
1.3988,147.12
1.3783,144.87
1.3558,141.26
1.3333,137.79
1.3118,135.2
1.2903,133.64
1.2698,132.81
1.2502,131.88
1.2307,130.22
1.2111,127.68
1.1926,124.26
1.176,120.16
1.1652,115.86
1.1584,111.61
1.1476,107.75
1.1339,104.14
1.1183,100.67
1.1007,97.249
1.0831,94.123
1.0733,91.436
1.0802,89.043
1.1183,87.04
1.1984,85.575
1.3284,84.696
1.4741,84.354
1.6393,84.549
1.8475,85.135
2.0704,85.819
2.2845,86.405
2.4712,86.601
2.6207,86.161
2.7292,85.135
2.8016,83.572
2.8436,81.814
2.8602,80.153
2.8592,78.883
2.8426,78.004
2.8172,77.467
2.784,77.32
2.7419,77.32
2.6911,77.369
2.6334,77.369
2.5689,77.32
2.4966,77.223
2.4174,77.125
2.3304,76.978
2.2385,76.783
2.1437,76.49
2.0489,75.904
1.9677,75.073
1.8954,74.048
1.8221,72.973
1.7556,72.045
1.697,71.361
1.6481,70.97
1.608,70.922
1.5767,71.068
1.5533,71.361
1.5357,71.557
1.52,71.41
1.5054,71.117
1.4897,71.068
1.477,72.436
1.4643,76.929
1.4487,86.259
1.4301,100.33
1.4096,116.98
1.3881,132.17
1.3675,142.48
1.346,146.92
1.3245,146.53
1.303,143.46
1.2805,139.5
1.2581,135.88
1.2414,133.25
1.2278,131.63
1.2111,130.51
1.1935,129.24
1.1769,127.43
1.1623,124.75
1.1496,121.18
1.1369,117.03
1.1251,112.68
1.1124,108.43
1.0978,104.43
1.0811,100.86
1.0596,97.542
1.0411,94.416
1.0264,91.29
1.0156,88.31
1.0215,85.575
1.0577,83.475
1.1388,82.253
1.2688,81.863
1.4457,82.107
1.6579,82.791
1.8856,83.621
2.1075,84.256
2.305,84.598
2.4536,84.745
2.5591,84.696
2.6422,84.5
2.6989,84.256
2.7312,84.012
2.7429,83.719
2.7468,83.426
2.7419,83.133
2.7195,82.742
2.6843,82.253
2.6393,81.716
2.5855,81.032
2.5249,80.349
2.4633,79.616
2.3998,78.883
2.3255,78.102
2.2434,77.467
2.1535,76.978
2.0596,76.636
1.9668,76.294
1.8778,76.05
1.7957,75.66
1.7234,75.22
1.6628,74.731
1.6129,74.194
1.5777,73.608
1.5543,72.973
1.5347,72.387
1.5191,71.752
1.5064,71.215
1.4946,71.068
1.4839,71.996
1.4721,75.464
1.4604,83.182
1.4487,95.783
1.435,111.85
1.4194,127.92
1.4037,140.18
1.393,146.73
1.3822,148.19
1.3675,146.24
1.35,142.82
1.3304,139.3
1.3099,136.42
1.2893,134.37
1.2708,132.86
1.2522,131.29
1.2346,129.29
1.218,126.7
1.2014,123.28
1.1896,119.47
1.1808,115.37
1.1701,111.32
1.1574,107.51
1.1417,103.84
1.1232,100.62
1.1017,97.493
1.0802,94.513
1.0665,91.632
1.0694,88.945
1.1026,86.796
1.1769,85.282
1.2737,84.598
1.4018,84.598
1.5806,85.135
1.7937,85.721
2.0186,86.308
2.2346,86.601
2.4242,86.552
2.5777,86.259
2.6911,85.673
2.7674,85.135
2.8133,84.549
2.8358,84.11
2.8407,83.816
2.8319,83.426
2.8143,83.133
2.7889,82.742
2.7546,82.156
2.7126,81.472
2.6637,80.69
2.6061,79.811
2.5406,78.981
2.4673,78.248
2.3881,77.613
2.3021,77.027
2.2131,76.539
2.1329,76.05
2.0606,75.611
1.9863,75.122
1.9159,74.634
1.8534,74.194
1.8025,73.657
1.7634,73.217
1.7331,72.875
1.7097,72.485
1.6931,72.045
1.6794,71.605
1.6676,71.166
1.6579,71.068
1.6491,71.947
1.6422,75.122
1.6325,82.498
1.6207,94.855
1.609,111.07
1.5963,127.63
1.5797,140.82
1.5611,148.24
1.5415,150.29
1.5191,148.68
1.4956,145.36
1.4702,141.7
1.4497,138.67
1.4311,136.47
1.4076,134.91
1.3842,133.34
1.3597,131.39
1.3363,128.7
1.3138,125.19
1.2933,121.13
1.2737,116.79
1.2561,112.49
1.2405,108.48
1.2239,104.87
1.2053,101.45
1.1887,98.177
1.174,94.904
1.1593,91.729
1.1554,88.799
1.1779,86.308
1.2375,84.5
1.3431,83.426
1.4966,83.133
1.6911,83.426
1.9101,84.012
2.1349,84.696
2.346,85.233
2.5112,85.477
2.6344,85.477
2.739,85.282
2.8172,84.94
2.868,84.549
2.8944,84.256
2.9022,83.865
2.8935,83.475
2.871,82.986
2.8377,82.449
2.7947,81.814
2.7439,81.13
2.6843,80.446
2.6237,79.811
2.5601,79.225
2.4858,78.737
2.4008,78.444
2.3089,78.199
2.2131,77.809
2.1163,77.223
2.0215,76.49
1.9316,75.562
1.8504,74.536
1.7791,73.559
1.7195,72.729
1.6745,72.094
1.6422,71.801
1.6158,71.752
1.5943,71.752
1.5767,71.654
1.5611,71.508
1.5464,71.312
1.5318,71.557
1.5161,73.51
1.4985,78.883
1.48,89.043
1.4614,103.6
1.4418,119.91
1.4262,134.13
1.4125,143.55
1.3969,147.61
1.3793,147.7
1.3587,145.51
1.3363,142.48
1.3128,139.69
1.2864,137.45
1.2581,135.64
1.2297,133.78
1.2023,131.49
1.1769,128.51
1.1593,124.8
1.1486,120.69
1.1378,116.3
1.1281,112.1
1.1183,108.24
1.1085,104.82
1.0958,101.6
1.0792,98.616
1.0596,95.539
1.0411,92.511
1.0332,89.434
1.0479,86.747
1.0987,84.5
1.174,82.986
1.2825,82.107
1.4428,81.863
1.6413,82.009
1.8602,82.351
2.0782,82.742
2.2776,83.035
2.4448,83.23
2.5718,83.23
2.6608,83.23
2.7155,83.133
2.7429,82.986
2.7468,82.84
2.737,82.595
2.7185,82.253
2.6911,81.716
2.6559,81.032
2.6119,80.3
2.5611,79.421
2.5034,78.59
2.4379,77.858
2.3646,77.125
2.2835,76.49
2.1965,75.904
2.1046,75.415
2.0215,74.927
1.9443,74.487
1.8622,73.999
1.782,73.559
1.7087,73.071
1.6442,72.485
1.5904,71.947
1.5474,71.41
1.5132,70.873
1.4868,70.433
1.4663,69.847
1.4497,69.359
1.4389,68.919
1.4301,68.968
1.4194,70.531
1.4076,75.122
1.3949,84.256
1.3812,98.128
1.3666,114.69
1.3519,130.17
1.3363,141.26
1.3196,146.48
1.303,147.12
1.2854,144.87
1.2659,141.55
1.2512,138.38
1.2395,135.88
1.2229,134.08
1.2023,132.61
1.1808,130.95
1.1593,128.61
1.1369,125.48
1.1153,121.82
1.0958,117.67
1.0772,113.51
1.0587,109.51
1.0391,105.75
1.0225,102.23
1.0059,98.86
0.98338,95.539
0.95894,92.315
0.94037,89.189
0.93842,86.405
0.96579,84.354
1.0362,83.133
1.1554,82.595
1.3216,82.84
1.5259,83.377
1.7498,84.012
1.9746,84.549
2.1593,84.793
2.306,84.842
2.437,84.793
2.5376,84.598
2.6061,84.403
2.6471,84.256
2.6647,84.11
2.6637,84.012
2.6491,83.67
2.6227,83.279
2.5855,82.742
2.5386,82.107
2.4897,81.277
2.437,80.544
2.3734,79.811
2.3021,79.127
2.2239,78.492
2.1398,77.906
2.0518,77.418
1.9609,76.978
1.871,76.539
1.784,76.099
1.7028,75.611
1.6295,74.976
1.5738,74.438
1.5308,73.803
1.4917,73.168
1.4604,72.68
1.436,72.094
1.4184,71.605
1.4057,71.215
1.3969,71.312
1.39,72.875
1.3832,77.418
1.3744,86.747
1.3656,100.91
1.3548,117.76
1.347,133.34
1.3392,144.24
1.3265,149.32
1.3118,149.61
1.2952,147.12
1.2776,143.7
1.259,140.33
1.2395,137.69
1.2199,135.74
1.1994,134.13
1.1799,132.32
1.1623,129.97
1.1505,126.99
1.1427,123.38
1.131,119.37
1.1193,115.22
1.1065,111.17
1.0929,107.41
1.0772,103.94
1.0577,100.62
1.0362,97.346
1.0156,94.123
1.0039,90.997
1.0127,88.164
1.0538,85.917
1.1193,84.5
1.217,83.865
1.3666,84.012
1.5572,84.549
1.7732,85.233
1.9932,85.868
2.1984,86.308
2.3744,86.356
2.5122,86.259
2.6109,85.966
2.6755,85.673
2.7116,85.428
2.7243,85.184
2.7214,84.842
2.7116,84.549
2.6931,84.061
2.6667,83.426
2.6315,82.693
2.5885,81.863
2.5367,81.032
2.478,80.251
2.4115,79.469
2.3382,78.786
2.259,78.199
2.175,77.613
2.0987,77.174
2.0274,76.734
1.9511,76.294
1.8768,75.855
1.8074,75.415
1.7458,74.976
1.695,74.634
1.653,74.194
1.6188,73.803
1.5934,73.364
1.5748,72.875
1.5621,72.289
1.5552,71.801
1.5513,71.801
1.5464,73.364
1.5396,78.004
1.5298,87.284
1.5181,101.35
1.5034,118.11
1.4868,133.69
1.4692,144.73
1.4497,150.1
1.4291,150.83
1.4086,148.73
1.3881,145.7
1.3715,142.67
1.3578,140.23
1.3412,138.33
1.3226,136.57
1.303,134.61
1.2835,131.98
1.2639,128.7
1.2463,124.8
1.2287,120.55
1.2121,116.25
1.1945,112.05
1.176,108.09
1.1632,104.48
1.1515,101.11
1.1329,97.786
1.1124,94.562
1.0978,91.436
1.0987,88.603
1.1281,86.405
1.1955,84.94
1.3099,84.256
1.4692,84.158
1.6628,84.549
1.8729,85.038
2.0831,85.624
2.2551,85.966
2.393,86.112
2.5161,86.112
2.6129,85.868
2.6813,85.624
2.7234,85.233
2.7449,84.94
2.7478,84.549
2.738,84.158
2.7175,83.719
2.6843,83.182
2.6422,82.498
2.5973,81.716
2.5474,80.935
2.4897,80.104
2.4233,79.372
2.349,78.688
2.2688,78.102
2.1848,77.564
2.0987,76.978
2.0127,76.441
1.9296,75.904
1.8534,75.366
1.7849,74.78
1.7243,74.292
1.6784,73.755
1.6442,73.217
1.6139,72.778
1.5875,72.289
1.566,71.752
1.5484,71.166
1.5318,70.629
1.5171,70.531
1.5024,71.947
1.4878,76.099
1.4741,84.842
1.4614,98.372
1.4516,114.78
1.4428,130.51
1.4291,142.04
1.4135,148
1.3969,149.27
1.3783,147.56
1.3568,144.73
1.3343,141.94
1.3118,139.55
1.2893,137.69
1.2669,135.98
1.2454,133.98
1.2248,131.44
1.2102,128.12
1.1975,124.31
1.1818,120.11
1.1652,115.81
1.1476,111.61
1.13,107.6
1.1114,103.79
1.0909,100.18
1.0684,96.662
1.0469,93.097
1.0323,89.727
1.0342,86.698
1.0547,84.158
1.1036,82.498
1.1955,81.618
1.3324,81.472
1.5073,81.912
1.7087,82.693
1.9169,83.426
2.1153,84.061
2.2893,84.354
2.4301,84.5
2.5347,84.305
2.607,84.061
2.652,83.719
2.6725,83.475
2.6764,83.182
2.6696,82.791
2.653,82.351
2.6266,81.863
2.5924,81.179
2.5503,80.446
2.5005,79.616
2.4409,78.786
2.3734,78.004
2.2981,77.32
2.216,76.685
2.1388,76.197
2.0635,75.757
1.9804,75.366
1.8954,74.976
1.8143,74.683
1.74,74.243
1.6745,73.755
1.6188,73.168
1.5758,72.533
1.5435,71.947
1.52,71.312
1.5044,70.677
1.4946,70.091
1.4888,69.749
1.4839,70.042
1.477,72.289
1.4702,78.053
1.4633,88.701
1.4545,103.79
1.4741,120.69
1.5083,135.44
1.5171,145.07
1.5132,148.97
1.5024,148.68
1.4848,146.14
1.4692,142.72
1.4536,139.6
1.433,137.06
1.4096,135.1
1.3851,133.25
1.3617,131.1
1.3392,128.41
1.3167,125.14
1.2952,121.23
1.2757,117.18
1.2561,112.98
1.2366,108.97
1.2229,105.26
1.2102,101.69
1.1916,98.177
1.1672,94.806
1.1417,91.632
1.1222,88.701
1.1222,86.308
1.1564,84.598
1.2346,83.719
1.3627,83.67
1.5386,84.061
1.7488,84.696
1.9756,85.282
2.174,85.721
2.3441,86.063
2.5083,86.112
2.6452,86.063
2.7478,85.917
2.8182,85.819
2.8602,85.624
2.8817,85.428
2.8856,85.184
2.8749,84.793
2.8514,84.256
2.8172,83.572
2.7781,82.791
2.7312,81.912
2.6735,81.032
2.607,80.153
2.5327,79.421
2.4516,78.737
2.3646,78.102
2.2747,77.613
2.1818,77.125
2.0899,76.636
2.002,76.197
1.9218,75.66
1.8514,75.171
1.7996,74.683
1.7615,74.194
1.7283,73.657
1.7019,73.217
1.6823,72.729
1.6686,72.24
1.6579,71.85
1.6491,72.192
1.6393,74.341
1.6285,80.104
1.6168,90.801
1.6041,106.14
1.5943,123.14
1.5846,137.79
1.5709,147.17
1.5552,150.73
1.5376,150.05
1.521,147.12
1.5034,143.46
1.4839,140.04
1.4633,137.35
1.4438,135.44
1.4242,133.74
1.4047,131.88
1.3861,129.39
1.3734,126.31
1.3646,122.6
1.3539,118.54
1.3431,114.49
1.3324,110.53
1.3206,106.92
1.305,103.55
1.2854,100.33
1.263,97.102
1.2405,93.927
1.2287,90.801
1.2405,87.968
1.2757,85.819
1.3451,84.5
1.4663,84.11
1.6393,84.354
1.8524,85.038
2.088,85.819
2.3255,86.503
2.5474,86.796
2.739,86.943
2.8915,86.796
3.0059,86.552
3.085,86.259
3.1369,85.917
3.1613,85.575
3.1662,85.233
3.1613,84.793
3.1457,84.305
3.1193,83.621
3.0831,82.791
3.0391,82.009
2.9863,81.13
2.9247,80.251
2.8553,79.421
2.7771,78.737
2.6921,78.199
2.6119,77.662
2.5347,77.223
2.4487,76.783
2.3617,76.343
2.2766,76.001
2.1984,75.464
2.129,74.976
2.0704,74.536
2.0215,74.048
1.9834,73.559
1.956,73.071
1.9374,72.533
1.9238,72.045
1.914,71.654
1.9062,72.192
1.8983,74.683
1.8895,80.935
1.8768,92.12
1.8622,107.6
1.8456,124.5
1.826,138.77
1.8035,147.7
1.7791,150.93
1.7517,150.1
1.7234,147.17
1.7009,143.7
1.6804,140.48
1.6579,138.03
1.6354,136.23
1.6129,134.57
1.5924,132.56
1.5728,129.97
1.5533,126.75
1.5347,123.04
1.5171,119.03
1.4995,114.98
1.4819,111.12
1.4624,107.41
1.4457,103.94
1.4291,100.57
1.4057,97.102
1.3803,93.732
1.3627,90.557
1.3656,87.724
1.4037,85.673
1.4897,84.5
1.6285,84.11
1.8182,84.354
2.0479,84.989
2.2972,85.673
2.5142,86.308
2.6999,86.747
2.8817,86.943
3.0371,86.796
3.1564,86.503
3.2395,86.112
3.2923,85.673
3.3196,85.233
3.3265,84.745
3.3167,84.256
3.2942,83.621
3.259,82.937
3.2131,82.156
3.1613,81.374
3.1036,80.495
3.0362,79.762
2.9589,78.981
2.8739,78.346
2.7801,77.809
2.6794,77.369
2.5767,76.929
2.4731,76.539
2.3715,76.05
2.2757,75.611
2.1896,75.073
2.1212,74.487
2.0684,73.999
2.0215,73.51
1.9824,72.973
1.9511,72.436
1.9277,71.85
1.9091,71.215
1.8935,70.824
1.8798,71.068
1.8671,73.168
1.8534,78.883
1.8387,89.385
1.8221,104.43
1.8074,121.28
1.7928,136.08
1.7732,145.7
1.7517,149.56
1.7273,149.07
1.7009,146.24
1.6735,142.67
1.6461,139.45
1.6188,137.01
1.5924,135.2
1.567,133.64
1.5425,131.88
1.5249,129.53
1.5122,126.56
1.4976,122.99
1.4819,118.98
1.4663,114.93
1.4497,110.92
1.433,107.16
1.4135,103.6
1.3891,100.18
1.3617,96.809
1.3353,93.341
1.3187,90.117
1.3206,87.138
1.3509,84.793
1.4233,83.279
1.5494,82.595
1.7292,82.693
1.956,83.182
2.2131,83.865
2.4751,84.5
2.7214,84.94
2.9345,85.038
3.1056,84.842
3.2317,84.549
3.3177,84.158
3.3656,83.719
3.3851,83.377
3.392,82.986
3.3851,82.498
3.3666,81.912
3.3363,81.179
3.2942,80.349
3.2395,79.469
3.173,78.688
3.0978,77.858
3.0127,77.125
2.9189,76.539
2.828,76.05
2.6608,75.611
2.4477,75.22
2.2923,74.878
2.1681,74.487
2.0616,74.097
1.9707,73.608
1.8935,73.168
1.8309,72.631
1.7801,72.094
1.74,71.605
1.7077,71.117
1.6823,70.629
1.6647,70.091
1.651,69.749
1.6373,69.994
1.6237,71.996
1.61,77.369
1.5963,87.529
1.5826,102.47
1.567,119.57
1.5494,134.76
1.5298,144.92
1.5103,149.12
1.4897,148.68
1.4712,145.51
1.4526,141.45
1.4311,137.59
1.4066,134.76
1.3822,132.81
1.3587,131.29
1.3353,129.83
1.3138,127.87
1.2952,125.19
1.2776,121.87
1.261,118.11
1.2434,114.1
1.2258,110.19
1.2121,106.48
1.1994,103.01
1.1799,99.691
1.1554,96.418
1.13,93.243
1.1095,90.215
1.1065,87.626
1.1349,85.673
1.2063,84.598
1.3265,84.305
1.4966,84.598
1.7048,85.233
1.9032,85.868
2.0919,86.356
2.2952,86.698
2.4839,86.796
2.6413,86.698
2.7615,86.503
2.8446,86.259
2.8964,85.917
2.9228,85.673
2.9286,85.282
2.9198,84.94
2.8983,84.354
2.8671,83.67
2.8289,82.937
2.783,82.107
2.7283,81.277
2.6647,80.495
2.5934,79.762
2.5152,79.127
2.4301,78.541
2.3392,78.102
2.2444,77.76
2.1496,77.32
2.0577,76.929
1.9717,76.441
1.9013,75.806
1.8436,75.22
1.7908,74.634
1.7458,73.999
1.7097,73.51
1.6823,72.924
1.6618,72.436
1.6461,72.094
1.6334,72.485
1.6217,74.731
1.609,80.593
1.5963,91.436
1.5826,106.72
1.5718,123.62
1.5611,138.03
1.5474,147.12
1.5318,150.44
1.5142,149.41
1.4936,146.14
1.4712,142.04
1.4467,138.47
1.4223,135.88
1.3969,134.13
1.3724,132.76
1.35,131.24
1.3333,129.24
1.3196,126.56
1.304,123.23
1.2884,119.47
1.2747,115.57
1.26,111.76
1.2444,108.04
1.2268,104.62
1.2063,101.25
1.1828,97.932
1.1613,94.611
1.1496,91.387
1.1584,88.554
1.1896,86.405
1.2532,85.184
1.3666,84.793
1.5288,85.184
1.7312,85.917
1.958,86.698
2.1877,87.382
2.4008,87.675
2.5826,87.724
2.7253,87.626
2.828,87.284
2.8954,86.845
2.9306,86.503
2.9423,86.063
2.9433,85.624
2.9326,85.135
2.913,84.549
2.8847,83.816
2.8475,82.986
2.8006,82.107
2.7458,81.179
2.6833,80.349
2.6129,79.665
2.5347,79.127
2.4497,78.59
2.3695,78.199
2.2903,77.809
2.2023,77.418
2.1124,76.978
2.0254,76.539
1.9462,76.05
1.8768,75.562
1.8182,75.073
1.7722,74.536
1.737,74.048
1.7107,73.559
1.6911,72.973
1.6774,72.485
1.6676,72.387
1.6579,73.413
1.6471,77.223
1.6334,85.428
1.6168,98.665
1.5973,115.37
1.5767,131.88
1.5543,144.29
1.5308,150.93
1.5073,152.2
1.4819,150
1.4565,146.29
1.437,142.58
1.4194,139.55
1.3988,137.54
1.3773,136.18
1.3558,134.86
1.3343,133.1
1.3138,130.61
1.2942,127.43
1.2757,123.67
1.259,119.62
1.2424,115.47
1.2258,111.61
1.2131,107.99
1.2014,104.58
1.1818,101.16
1.1574,97.884
1.1339,94.562
1.1222,91.534
1.1339,89.043
1.1828,87.284
1.2776,86.405
1.4213,86.161
1.609,86.503
1.826,87.138
2.0538,87.675
2.2463,88.115
2.4066,88.31
2.5572,88.164
2.6804,87.871
2.7693,87.431
2.828,86.943
2.8602,86.405
2.8719,85.917
2.869,85.428
2.8534,84.94
2.826,84.256
2.7889,83.572
2.7468,82.693
2.6979,81.863
2.6403,80.984
2.5738,80.153
2.4985,79.469
2.4174,78.883
2.3304,78.346
2.2375,77.906
2.1427,77.564
2.0479,77.174
1.957,76.734
1.8719,76.246
1.8045,75.806
1.7507,75.318
1.7009,74.878
1.6579,74.438
1.6237,73.901
1.5982,73.51
1.5787,72.924
1.563,72.436
1.5484,72.24
1.5337,73.168
1.5191,76.783
1.5034,84.793
1.4858,97.884
1.4692,114.44
1.4545,130.95
1.436,143.6
1.4154,150.54
1.393,152.25
1.3695,150.49
1.346,147.17
1.3226,143.6
1.3001,140.67
1.2776,138.57
1.2561,136.91
1.2356,135.35
1.2209,133.34
1.2082,130.76
1.1926,127.43
1.175,123.67
1.1593,119.62
1.1447,115.47
1.13,111.56
1.1134,107.8
1.0948,104.23
1.0743,100.81
1.0518,97.444
1.0323,94.123
1.0264,91.045
1.0381,88.408
1.0772,86.503
1.1574,85.379
1.2845,84.94
1.4575,85.038
1.6647,85.477
1.8895,86.063
2.1153,86.503
2.3226,86.698
2.4936,86.601
2.6227,86.308
2.7136,85.819
2.7674,85.233
2.7937,84.745
2.8065,84.256
2.8055,83.816
2.7937,83.279
2.7703,82.742
2.738,82.107
2.697,81.423
2.6461,80.593
2.5855,79.811
2.5161,78.981
2.4389,78.248
2.3558,77.564
2.2766,76.978
2.1984,76.49
2.1085,76.05
2.0156,75.66
1.9247,75.318
1.8387,74.878
1.7605,74.341
1.6911,73.852
1.6325,73.364
1.5836,72.924
1.5445,72.485
1.5142,72.094
1.4936,71.752
1.479,71.361
1.4653,71.117
1.4516,71.41
1.4389,73.315
1.4252,78.444
1.4096,88.359
1.393,103.06
1.3744,120.25
1.3548,135.93
1.3333,146.68
1.3118,151.61
1.2884,151.81
1.2688,149.27
1.2512,145.56
1.2297,141.94
1.2072,139.01
1.1848,136.91
1.1632,135.3
1.1427,133.64
1.1232,131.44
1.1046,128.61
1.087,125.19
1.0714,121.28
1.0567,117.23
1.0469,113.17
1.0391,109.31
1.0254,105.6
1.0088,102.04
0.98827,98.616
0.96579,95.246
0.94721,92.071
0.9433,89.287
0.96676,87.187
1.0293,85.966
1.1417,85.624
1.304,85.917
1.5064,86.552
1.6999,87.382
1.8866,88.066
2.088,88.408
2.2757,88.603
2.433,88.554
2.5513,88.359
2.6325,88.115
2.6813,87.822
2.7048,87.529
2.7087,87.187
2.697,86.698
2.6725,86.112
2.6413,85.428
2.6041,84.598
2.5572,83.719
2.5015,82.84
2.437,81.912
2.3646,81.032
2.2864,80.3
2.2023,79.616
2.1124,79.03
2.0186,78.59
1.9247,78.199
1.8338,77.809
1.7478,77.418
1.6774,76.978
1.6207,76.49
1.567,75.904
1.522,75.366
1.4858,74.78
1.4594,74.292
1.4409,73.803
1.4301,73.364
1.4223,72.973
1.4154,73.168
1.4086,74.927
1.4008,80.007
1.3949,89.922
1.3881,105.01
1.3773,122.55
1.3646,138.47
1.3509,149.37
1.3353,154.2
1.3177,154.1
1.2991,151.32
1.2786,147.36
1.2571,143.55
1.2356,140.57
1.2151,138.47
1.1955,136.91
1.1808,135.35
1.1681,133.3
1.1535,130.61
1.1388,127.29
1.1251,123.58
1.1124,119.57
1.1007,115.61
1.088,111.8
1.0733,108.19
1.0557,104.67
1.0352,101.25
1.0147,97.786
1.0029,94.416
1.0039,91.436
1.0235,88.994
1.0792,87.431
1.1818,86.845
1.3333,86.991
1.5279,87.626
1.7507,88.359
1.9824,89.043
2.2023,89.482
2.393,89.678
2.5445,89.531
2.6559,89.238
2.7243,88.847
2.7615,88.506
2.783,88.164
2.7908,87.822
2.7869,87.431
2.7722,86.943
2.7478,86.308
2.7146,85.624
2.6735,84.793
2.6246,83.914
2.566,82.986
2.5005,82.107
2.436,81.277
2.3685,80.593
2.2893,80.007
2.2043,79.469
2.1163,79.03
2.0293,78.59
1.9453,78.199
1.868,77.662
1.8006,77.174
1.7449,76.685
1.7009,76.197
1.6667,75.757
1.6422,75.318
1.6266,74.878
1.6129,74.438
1.6012,74.048
1.5914,73.901
1.5826,74.878
1.5728,78.199
1.5611,85.673
1.5484,98.323
1.5337,114.78
1.5181,131.73
1.5024,145.26
1.4858,153.08
1.4721,155.37
1.4585,154.01
1.4409,150.73
1.4203,147.17
1.3978,144.04
1.3744,141.75
1.35,140.04
1.3265,138.57
1.305,136.62
1.2854,134.08
1.2669,130.85
1.2493,127.14
1.2366,123.18
1.2268,119.18
1.217,115.37
1.2053,111.66
1.1916,108.09
1.175,104.62
1.1554,101.01
1.1369,97.444
1.1271,94.123
1.1378,91.241
1.1818,89.189
1.2708,87.919
1.4086,87.529
1.5601,87.822
1.7273,88.359
1.9335,88.994
2.1505,89.482
2.3548,89.824
2.5308,89.824
2.6696,89.531
2.7683,89.238
2.8338,88.799
2.8729,88.359
2.8905,87.871
2.8925,87.431
2.8807,86.845
2.8583,86.259
2.827,85.575
2.7879,84.696
2.74,83.816
2.6843,82.84
2.6207,82.009
2.5503,81.179
2.4721,80.495
2.3871,79.86
2.2972,79.323
2.2043,78.786
2.1105,78.346
2.0283,77.858
1.956,77.369
1.8847,76.929
1.8192,76.441
1.7634,76.001
1.7165,75.611
1.6784,75.22
1.6481,74.78
1.6246,74.341
1.607,73.852
1.5914,73.364
1.5767,73.168
1.564,73.999
1.5523,77.369
1.5376,84.989
1.521,97.591
1.5024,114.1
1.4829,131
1.4624,144.29
1.4418,152
1.4203,154.25
1.3988,152.88
1.3783,149.66
1.3578,146.19
1.3363,143.06
1.3177,140.72
1.3216,139.06
1.3304,137.45
1.3226,135.49
1.3089,132.95
1.2933,129.73
1.2776,126.07
1.2639,122.16
1.2522,118.2
1.2405,114.25
1.2287,110.44
1.2151,106.68
1.2023,103.06
1.1887,99.447
1.1711,95.93
1.1584,92.804
1.1642,90.166
1.2014,88.359
1.2835,87.284
1.4145,86.991
1.5924,87.236
1.8055,87.724
2.0352,88.359
2.262,88.799
2.4663,89.092
2.6197,89.092
2.7312,88.994
2.8231,88.75
2.8886,88.408
2.9316,87.968
2.955,87.529
2.9629,87.04
2.957,86.503
2.9394,85.868
2.911,85.135
2.8719,84.158
2.8231,83.133
2.7703,82.058
2.7116,80.935
2.6413,79.86
2.563,78.932
2.477,78.053
2.3851,77.223
2.2903,76.539
2.1935,76.001
2.0987,75.415
2.0108,74.927
1.9306,74.487
1.8612,74.097
1.8045,73.657
1.7634,73.315
1.7341,72.924
1.7097,72.485
1.6901,72.094
1.6764,71.654
1.6647,71.215
1.653,70.922
1.6403,71.215
1.6256,73.315
1.609,78.786
1.5904,89.092
1.5689,104.23
1.5503,121.43
1.5347,136.91
1.5142,147.36
1.4907,152
1.4663,152
1.4418,149.27
1.4154,145.41
1.3881,141.75
1.3617,138.81
1.3343,136.62
1.3069,135.01
1.2815,133.34
1.2571,131.39
1.2385,128.7
1.2239,125.48
1.2082,121.87
1.1916,118.06
1.176,114.2
1.1603,110.39
1.1457,106.68
1.13,103.06
1.1134,99.495
1.0948,95.979
1.0831,92.657
1.088,89.824
1.1134,87.675
1.1701,86.405
1.2737,85.966
1.4272,86.308
1.6266,86.943
1.8563,87.626
2.0968,88.261
2.3255,88.603
2.5259,88.75
2.6872,88.701
2.8065,88.506
2.8866,88.164
2.9355,87.871
2.956,87.48
2.957,87.04
2.9482,86.503
2.9306,85.868
2.9042,85.135
2.868,84.256
2.824,83.279
2.7713,82.351
2.7097,81.472
2.6403,80.69
2.5621,79.909
2.477,79.323
2.3959,78.737
2.3157,78.248
2.2248,77.858
2.132,77.467
2.0401,77.125
1.9531,76.685
1.8768,76.246
1.8123,75.757
1.7595,75.171
1.7185,74.731
1.6872,74.243
1.6667,73.803
1.653,73.413
1.6442,73.12
1.6373,73.217
1.6285,74.683
1.6178,78.883
1.6061,87.626
1.5924,101.35
1.5767,118.3
1.5572,134.61
1.5357,146.63
1.5122,152.64
1.4878,153.52
1.4624,151.07
1.4428,147.12
1.4252,143.06
1.4037,139.79
1.3812,137.54
1.3597,135.93
1.3382,134.42
1.3187,132.61
1.3011,130.17
1.2845,127.14
1.2688,123.48
1.2542,119.62
1.2395,115.61
1.2297,111.76
1.2209,108.04
1.2082,104.58
1.1916,101.06
1.173,97.591
1.1554,94.318
1.1486,91.241
1.1652,88.847
1.219,87.284
1.3206,86.698
1.4731,86.747
1.6696,87.284
1.8983,87.919
2.1075,88.408
2.2962,88.75
2.4907,88.75
2.6628,88.554
2.7986,88.164
2.8974,87.822
2.9619,87.48
2.999,87.138
3.0137,86.747
3.0108,86.259
2.9961,85.624
2.9717,84.94
2.9404,84.11
2.9022,83.182
2.8553,82.302
2.7986,81.423
2.7341,80.69
2.6618,80.007
2.5806,79.469
2.4907,78.981
2.3949,78.59
2.2972,78.248
2.1994,77.858
2.1065,77.467
2.0215,77.125
1.9541,76.636
1.9013,76.197
1.8534,75.757
1.8143,75.318
1.782,74.927
1.7566,74.634
1.738,74.292
1.7243,73.901
1.7126,73.608
1.7009,73.657
1.6882,74.976
1.6755,79.127
1.6647,87.675
1.654,101.25
1.6393,118.06
1.6207,134.37
1.6012,146.53
1.5797,152.78
1.5562,153.66
1.5337,151.17
1.5112,147.12
1.4888,143.02
1.4663,139.69
1.4457,137.5
1.4262,136.08
1.4106,134.81
1.3978,133.2
1.3822,131
1.3656,127.97
1.349,124.41
1.3333,120.5
1.3196,116.54
1.3069,112.68
1.2942,108.97
1.2805,105.41
1.2639,101.99
1.2454,98.616
1.2326,95.295
1.2297,92.364
1.2424,89.971
1.2864,88.506
1.3744,87.822
1.5132,87.871
1.6999,88.359
1.9218,88.994
2.1603,89.629
2.393,89.922
2.6012,89.971
2.7732,89.727
2.9042,89.238
2.9873,88.701
3.0342,88.115
3.0626,87.529
3.0743,86.991
3.0723,86.405
3.0577,85.868
3.0332,85.184
2.999,84.354
2.956,83.572
2.9052,82.595
2.8456,81.716
2.7761,80.935
2.7077,80.153
2.6354,79.469
2.5494,78.883
2.4555,78.346
2.3568,77.906
2.2561,77.418
2.1593,76.978
2.0684,76.49
1.9677,76.05
1.868,75.562
1.7947,75.073
1.74,74.683
1.6999,74.292
1.6725,73.999
1.654,73.559
1.6373,73.071
1.6217,72.485
1.607,71.996
1.5934,72.094
1.5787,73.803
1.5621,78.688
1.5445,88.31
1.5239,102.82
1.5015,119.86
1.478,135.74
1.4575,146.83
1.4389,151.95
1.4164,152.05
1.393,149.17
1.3695,145.16
1.346,141.45
1.3226,138.62
1.2991,136.86
1.2757,135.69
1.2522,134.52
1.2297,132.76
1.2092,130.32
1.1896,127.19
1.175,123.43
1.1642,119.42
1.1515,115.42
1.1398,111.56
1.1271,107.85
1.1124,104.28
1.0929,100.72
1.0723,97.249
1.0547,93.781
1.0508,90.752
1.0733,88.261
1.1359,86.601
1.2248,85.917
1.348,85.966
1.5269,86.552
1.7458,87.431
1.9834,88.261
2.218,88.75
2.4301,88.994
2.608,88.799
2.7439,88.408
2.8397,87.871
2.9013,87.284
2.9345,86.698
2.9482,86.063
2.9443,85.477
2.9286,84.842
2.9042,84.158
2.871,83.426
2.8289,82.547
2.7781,81.667
2.7175,80.788
2.6471,80.007
2.5689,79.225
2.4819,78.59
2.3871,78.053
2.2884,77.564
2.1994,77.125
2.1163,76.734
2.0274,76.294
1.9394,75.806
1.8573,75.366
1.7859,74.878
1.7273,74.341
1.6804,73.901
1.6442,73.51
1.6178,73.071
1.5982,72.533
1.5826,71.996
1.5689,71.312
1.5582,70.677
1.5494,70.531
1.5376,71.947
1.523,76.539
1.5073,85.819
1.4888,100.03
1.4682,117.03
1.4457,133
1.4213,144.43
1.3969,149.85
1.3715,150.24
1.3451,147.41
1.3236,143.31
1.304,139.3
1.2825,136.23
1.26,134.22
1.2375,132.95
1.217,131.68
1.1965,129.97
1.1769,127.63
1.1584,124.55
1.1408,120.89
1.1261,116.88
1.1124,112.73
1.0987,108.82
1.089,105.01
1.0802,101.35
1.0645,97.786
1.043,94.22
1.0205,90.85
1.0078,87.919
1.0176,85.673
1.0645,84.354
1.1593,84.012
1.3069,84.305
1.5015,84.989
1.7302,85.917
1.9413,86.698
2.1329,87.187
2.3314,87.382
2.5103,87.236
2.654,86.943
2.7595,86.503
2.8299,86.063
2.871,85.575
2.8886,85.135
2.8886,84.549
2.8749,83.914
2.8485,83.23
2.8143,82.351
2.7732,81.472
2.7224,80.69
2.6608,79.811
2.5904,78.981
2.5112,78.346
2.4233,77.809
2.3275,77.369
2.2258,77.027
2.1212,76.685
2.0176,76.343
1.9189,76.05
1.8289,75.66
1.7566,75.22
1.6989,74.683
1.6452,74.194
1.6002,73.608
1.565,73.12
1.5376,72.631
1.5181,72.192
1.5034,71.752
1.4907,71.41
1.478,71.508
1.4643,72.68
1.4497,76.49
1.4379,84.5
1.4262,97.493
1.4096,114
1.39,130.56
1.3675,143.31
1.3451,150.05
1.3206,151.22
1.2952,148.68
1.2698,144.29
1.2454,139.74
1.2219,136.08
1.1994,133.54
1.1789,131.98
1.1632,130.85
1.1515,129.44
1.1369,127.29
1.1222,124.41
1.1085,120.94
1.0958,117.03
1.0831,113.07
1.0704,109.12
1.0557,105.41
1.0391,101.99
1.0196,98.665
0.99804,95.49
0.9824,92.511
0.97654,89.922
0.98338,87.919
1.0196,86.796
1.0997,86.503
1.2297,86.796
1.4106,87.431
1.6295,88.066
1.87,88.554
2.1105,88.75
2.3294,88.554
2.5122,88.261
2.653,87.724
2.7439,87.284
2.7977,86.845
2.8328,86.405
2.8504,85.966
2.8514,85.428
2.8407,84.696
2.8201,83.914
2.7889,82.986
2.7478,82.058
2.6979,81.13
2.6403,80.153
2.5738,79.372
2.5073,78.59
2.4379,78.004
2.3558,77.369
2.2659,76.881
2.1711,76.343
2.0762,75.904
1.9863,75.464
1.9032,75.122
1.8309,74.78
1.7693,74.487
1.7185,74.194
1.6774,73.901
1.6461,73.608
1.6246,73.315
1.609,72.973
1.5963,72.68
1.5855,72.289
1.5738,72.045
1.5621,72.533
1.5484,74.878
1.5337,80.69
1.5171,91.485
1.4995,106.82
1.48,123.87
1.4594,138.77
1.4418,148.24
1.4272,151.81
1.4076,150.68
1.3861,146.97
1.3646,142.48
1.3421,138.42
1.3196,135.64
1.2981,133.93
1.2776,132.86
1.259,131.68
1.2414,129.97
1.2258,127.43
1.2121,124.11
1.2033,120.3
1.1984,116.25
1.1935,112.29
1.1877,108.48
1.1789,105.01
1.1672,101.6
1.1535,98.323
1.1378,95.051
1.1261,92.071
1.129,89.482
1.1593,87.675
1.2307,86.698
1.3275,86.503
1.4575,86.845
1.653,87.48
1.8925,88.164
2.1417,88.603
2.3812,88.799
2.5943,88.603
2.7693,88.261
2.9032,87.724
2.9971,87.187
3.0557,86.552
3.089,86.063
3.1007,85.575
3.0948,85.038
3.0753,84.5
3.0469,83.816
3.0098,83.035
2.9638,82.253
2.9081,81.423
2.8436,80.593
2.7713,79.909
2.6921,79.323
2.6051,78.786
2.5112,78.297
2.4125,77.858
2.3236,77.467
2.2414,77.125
2.1544,76.685
2.0714,76.246
1.9961,75.855
1.9306,75.415
1.8768,74.976
1.8338,74.634
1.7996,74.243
1.7722,73.852
1.7498,73.413
1.7302,72.924
1.7116,72.485
1.697,72.436
1.6833,73.755
1.6657,77.858
1.6471,86.356
1.6256,99.74
1.6031,116.3
1.5787,132.37
1.5523,144.38
1.5249,150.54
1.4976,151.42
1.4712,148.88
1.4448,144.82
1.4233,140.72
1.4057,137.54
1.3851,135.49
1.3627,134.22
1.3402,133.1
1.3187,131.63
1.2972,129.39
1.2766,126.36
1.259,122.7
1.2444,118.69
1.2317,114.64
1.2199,110.73
1.2063,107.07
1.1945,103.55
1.1828,100.18
1.1642,96.858
1.1437,93.732
1.13,90.948
1.1349,88.603
1.174,87.04
1.2581,86.308
1.3959,86.308
1.5836,86.796
1.8104,87.48
2.0557,88.164
2.2688,88.554
2.4516,88.701
2.6285,88.408
2.7781,88.066
2.8925,87.529
2.9707,87.04
3.0196,86.601
3.045,86.112
3.0518,85.624
3.044,84.989
3.0235,84.305
2.9912,83.572
2.9511,82.742
2.9052,81.863
2.8495,80.984
2.784,80.153
2.7097,79.469
2.6266,78.786
2.5357,78.248
2.4389,77.76
2.3382,77.223
2.2385,76.881
2.1417,76.441
2.0508,76.001
1.9687,75.562
1.9042,75.122
1.8534,74.683
1.8074,74.243
1.7683,73.852
1.7361,73.413
1.7116,72.973
1.6931,72.485
1.6764,71.996
1.6608,71.654
1.6452,72.24
1.6295,74.927
1.6119,81.277
1.5963,92.608
1.5806,107.99
1.5611,124.41
1.5376,138.03
1.5122,146.43
1.4868,149.27
1.4604,147.85
1.435,144.24
1.4096,140.04
1.3832,136.47
1.3568,133.98
1.3324,132.42
1.3079,131.29
1.2893,129.97
1.2747,128.07
1.2581,125.38
1.2405,122.06
1.2239,118.25
1.2082,114.25
1.1945,110.29
1.1808,106.48
1.1652,102.82
1.1466,99.251
1.1261,95.734
1.1046,92.413
1.0919,89.385
1.0929,86.943
1.1134,85.184
1.1701,84.256
1.2747,84.061
1.4311,84.5
1.6334,85.184
1.8661,85.917
2.1085,86.503
2.3421,86.747
2.5484,86.747
2.7165,86.503
2.8416,86.063
2.9198,85.624
2.9638,85.184
2.9912,84.745
3.002,84.256
2.999,83.719
2.9824,83.182
2.955,82.498
2.9179,81.716
2.8719,80.935
2.8172,80.153
2.7517,79.372
2.6774,78.688
2.6031,78.004
2.5249,77.369
2.434,76.881
2.3353,76.49
2.2317,76.099
2.1271,75.757
2.0274,75.366
1.9355,74.976
1.8543,74.536
1.7869,74.048
1.7322,73.559
1.6891,73.071
1.6569,72.533
1.6344,72.094
1.6178,71.801
1.6022,71.508
1.5865,71.361
1.5709,71.752
1.5552,73.803
1.5396,79.127
1.522,89.092
1.5034,103.7
1.4839,120.35
1.4624,135.25
1.4389,145.12
1.4194,149.07
1.4018,148.29
1.3783,144.82
1.3529,140.33
1.3275,136.18
1.3021,133.1
1.2776,131.2
1.2542,129.93
1.2326,128.8
1.2131,127.29
1.1935,124.99
1.176,121.91
1.1593,118.3
1.1486,114.34
1.1408,110.44
1.13,106.63
1.1173,103.01
1.1026,99.593
1.085,96.369
1.0645,93.292
1.0469,90.606
1.0411,88.408
1.0596,86.943
1.1173,86.308
1.2239,86.356
1.3539,86.845
1.5122,87.529
1.7243,88.066
1.9638,88.408
2.2063,88.506
2.4301,88.31
2.6188,88.066
2.7654,87.675
2.868,87.236
2.9335,86.845
2.9707,86.503
2.9844,86.063
2.9804,85.477
2.9638,84.842
2.9365,84.11
2.9003,83.23
2.8553,82.449
2.8025,81.618
2.7419,80.788
2.6725,80.104
2.5924,79.469
2.5044,78.883
2.4096,78.346
2.3099,77.809
2.2092,77.32
2.1212,76.881
2.042,76.343
1.9609,75.904
1.8866,75.415
1.824,74.878
1.7742,74.341
1.7351,73.803
1.7058,73.217
1.6843,72.68
1.6686,72.192
1.6559,71.752
1.6452,71.41
1.6344,71.85
1.6266,74.194
1.6178,80.251
1.6061,91.29
1.5904,106.97
1.5718,124.26
1.5513,138.91
1.5288,148.05
1.5064,151.12
1.4731,149.61
1.434,145.6
1.4027,140.87
1.3763,136.76
1.3568,133.88
1.3412,132.22
1.3226,131.29
1.305,130.32
1.2884,128.85
1.2727,126.56
1.2561,123.48
1.2405,119.81
1.2258,115.86
1.2141,112
1.2033,108.29
1.1916,104.87
1.1769,101.6
1.1642,98.421
1.1525,95.246
1.1408,92.218
1.1378,89.531
1.1574,87.626
1.2131,86.503
1.3167,86.161
1.4721,86.503
1.6735,87.187
1.9071,87.871
2.1535,88.408
2.391,88.701
2.5777,88.701
2.7204,88.359
2.8456,87.919
2.9404,87.431
3.0039,86.943
3.042,86.503
3.0606,85.966
3.0626,85.477
3.0528,84.842
3.0323,84.158
3.001,83.377
2.9599,82.547
2.9081,81.716
2.8524,80.935
2.7908,80.251
2.7175,79.616
2.6334,79.03
2.5406,78.492
2.4428,78.053
2.3431,77.613
2.2444,77.174
2.1486,76.734
2.0596,76.294
1.9814,75.855
1.915,75.366
1.8651,74.878
1.828,74.438
1.7967,73.999
1.7703,73.51
1.7498,73.071
1.7322,72.533
1.7175,72.192
1.7038,72.387
1.6891,74.243
1.6735,79.372
1.6559,89.238
1.6383,103.79
1.6237,120.6
1.609,135.79
1.5894,145.95
1.5679,150.2
1.5455,149.56
1.521,146.14
1.4946,141.75
1.4682,137.79
1.4418,135.01
1.4164,133.44
1.392,132.56
1.3685,131.73
1.346,130.36
1.3294,128.12
1.3157,125.04
1.3011,121.28
1.2864,117.23
1.2727,113.17
1.259,109.31
1.2454,105.75
1.2287,102.38
1.2102,99.105
1.1896,95.881
1.1711,92.657
1.1632,89.873
1.172,87.529
1.2072,86.112
1.2845,85.477
1.4125,85.673
1.5894,86.308
1.8065,87.187
2.045,87.871
2.2845,88.359
2.5034,88.408
2.6891,88.164
2.8348,87.675
2.9394,87.04
3.0088,86.356
3.045,85.673
3.0577,85.038
3.0596,84.403
3.0508,83.816
3.0303,83.133
3,82.351
2.9589,81.57
2.9081,80.69
2.8485,79.86
2.7791,79.03
2.6999,78.346
2.6129,77.76
2.5288,77.223
2.4438,76.881
2.349,76.49
2.2493,76.197
2.1496,75.806
2.0547,75.415
1.9687,74.976
1.8935,74.536
1.8319,74.097
1.783,73.608
1.7458,73.168
1.7185,72.778
1.6979,72.387
1.6833,71.85
1.6706,71.41
1.6569,71.361
1.6422,72.533
1.6256,76.441
1.6061,84.549
1.5846,97.591
1.5611,113.86
1.5367,129.83
1.5103,141.75
1.4839,147.85
1.4565,148.68
1.433,146
1.4115,141.79
1.3871,137.59
1.3627,134.42
1.3382,132.42
1.3157,131.29
1.2942,130.32
1.2737,128.95
1.2542,126.8
1.2366,123.87
1.2209,120.25
1.2063,116.3
1.1926,112.24
1.1828,108.39
1.174,104.82
1.1613,101.35
1.1447,97.981
1.1241,94.758
1.1036,91.485
1.0899,88.554
1.0919,86.161
1.1251,84.549
1.2033,83.719
1.3324,83.719
1.5112,84.256
1.694,84.989
1.8837,85.721
2.1046,86.259
2.3265,86.405
2.5279,86.308
2.694,85.966
2.8211,85.575
2.9101,85.038
2.9668,84.549
2.998,84.061
3.0078,83.572
3.002,82.986
2.9834,82.351
2.955,81.618
2.9169,80.788
2.87,80.007
2.8133,79.127
2.7468,78.297
2.6716,77.613
2.5875,76.978
2.4946,76.441
2.3949,76.001
2.2903,75.562
2.1848,75.171
2.0811,74.731
1.9922,74.341
1.9169,73.901
1.8446,73.413
1.7801,72.924
1.7263,72.387
1.6843,71.85
1.652,71.361
1.6276,70.922
1.608,70.482
1.5914,70.189
1.5767,70.238
1.564,71.508
1.5503,75.415
1.5376,83.67
1.5249,96.907
1.5083,113.51
1.4878,129.63
1.4643,141.5
1.4389,147.26
1.4125,147.56
1.3851,144.38
1.3578,139.69
1.3304,135.2
1.303,131.68
1.2776,129.68
1.2571,128.7
1.2405,128.07
1.2209,127.04
1.2014,125.29
1.1818,122.7
1.1623,119.33
1.1447,115.47
1.1281,111.51
1.1114,107.6
1.0948,103.94
1.0762,100.47
1.0557,97.053
1.0323,93.732
1.0166,90.508
1.0088,87.529
1.0108,85.233
1.0401,83.865
1.1105,83.572
1.2307,84.11
1.4027,85.184
1.6178,86.308
1.8583,87.284
2.1036,87.871
2.3314,87.968
2.5259,87.724
2.6833,87.382
2.7879,86.845
2.8495,86.308
2.8915,85.819
2.915,85.282
2.9228,84.793
2.9159,84.11
2.8974,83.377
2.87,82.547
2.8328,81.716
2.7859,80.886
2.7292,80.055
2.6618,79.323
2.5934,78.59
2.522,78.053
2.4252,77.564
2.3138,77.125
2.2063,76.734
2.1017,76.441
2.001,76.197
1.9071,75.806
1.8221,75.366
1.7507,74.878
1.694,74.292
1.651,73.657
1.6217,73.12
1.6031,72.631
1.5885,72.094
1.5777,71.654
1.5689,71.557
1.5601,72.631
1.5503,76.246
1.5396,84.256
1.5269,97.346
1.5112,113.9
1.4936,130.22
1.4741,142.43
1.4536,148.44
1.436,148.93
1.4194,145.8
1.3988,141.26
1.3754,136.76
1.3509,133.44
1.3255,131.54
1.3021,130.76
1.2805,130.17
1.26,129.29
1.2395,127.63
1.2209,124.99
1.2053,121.62
1.1945,117.76
1.1867,113.81
1.176,109.95
1.1642,106.28
1.1515,102.87
1.1369,99.593
1.1173,96.369
1.0968,93.243
1.0811,90.41
1.0811,88.164
1.1114,86.747
1.1838,86.112
1.2805,86.161
1.4096,86.698
1.5924,87.382
1.8104,87.919
2.0411,88.31
2.263,88.408
2.4594,88.261
2.6197,87.871
2.741,87.382
2.825,86.845
2.8788,86.405
2.9081,85.966
2.9189,85.477
2.913,84.842
2.8964,84.158
2.8729,83.426
2.8407,82.595
2.8006,81.814
2.7527,80.984
2.696,80.153
2.6295,79.567
2.5543,78.981
2.4702,78.492
2.3803,78.102
2.2864,77.76
2.2004,77.369
2.1202,76.978
2.0371,76.539
1.957,76.099
1.8837,75.66
1.8201,75.22
1.7674,74.78
1.7253,74.292
1.6931,73.852
1.6676,73.364
1.6471,72.924
1.6285,72.729
1.6109,73.364
1.5963,76.05
1.5826,82.595
1.566,94.171
1.5474,109.85
1.5269,126.6
1.5044,140.43
1.48,148.53
1.4545,150.73
1.4291,148.73
1.4037,144.68
1.3783,140.33
1.3529,136.86
1.3314,134.76
1.3128,133.74
1.2913,133.2
1.2708,132.32
1.2502,130.66
1.2307,128.17
1.2131,124.85
1.1975,121.04
1.1818,116.98
1.1662,113.07
1.1505,109.31
1.1339,105.75
1.1153,102.23
1.0997,98.86
1.0841,95.49
1.0674,92.413
1.0714,89.824
1.088,87.919
1.1222,86.845
1.2063,86.601
1.3421,86.943
1.522,87.529
1.7331,88.164
1.957,88.603
2.172,88.799
2.3431,88.701
2.4761,88.31
2.5934,87.724
2.6843,87.187
2.7458,86.601
2.784,86.063
2.8035,85.477
2.8074,84.94
2.7986,84.256
2.7791,83.572
2.7498,82.742
2.7107,81.912
2.6618,81.13
2.609,80.349
2.5513,79.665
2.4809,79.03
2.4018,78.492
2.3148,78.004
2.2209,77.613
2.1241,77.174
2.0274,76.783
1.9326,76.343
1.8456,76.001
1.7683,75.562
1.7019,75.171
1.652,74.731
1.6149,74.341
1.5826,73.901
1.5562,73.51
1.5347,72.973
1.5161,72.485
1.4995,72.24
1.4829,72.924
1.4643,76.001
1.4438,83.133
1.4213,95.246
1.3969,111.22
1.3715,127.87
1.3509,141.11
1.3324,148.63
1.3089,150.64
1.2835,148.68
1.2571,145.02
1.2297,141.11
1.2033,138.13
1.1789,136.23
1.1564,135.2
1.1359,134.37
1.1163,133.1
1.0978,131.1
1.086,128.26
1.0772,124.7
1.0665,120.74
1.0538,116.69
1.0411,112.73
1.0283,108.97
1.0147,105.41
0.99902,101.89
0.97947,98.372
0.95894,95.002
0.94233,91.876
0.93842,89.385
0.95992,87.626
1.0039,86.698
1.0802,86.405
1.2063,86.601
1.3783,86.991
1.5816,87.382
1.7996,87.48
2.0127,87.284
2.2043,86.943
2.3627,86.308
2.4839,85.721
2.5709,85.135
2.6285,84.598
2.6579,84.158
2.6696,83.719
2.6716,83.279
2.6657,82.742
2.65,82.156
2.6246,81.472
2.5894,80.788
2.5455,80.055
2.4907,79.323
2.4272,78.59
2.3529,77.906
2.2717,77.418
2.1848,76.929
2.1046,76.49
2.0274,76.05
1.9433,75.66
1.8583,75.22
1.7771,74.78
1.7028,74.292
1.6373,73.852
1.5816,73.51
1.5347,73.12
1.4966,72.729
1.4663,72.387
1.4409,71.996
1.4223,71.605
1.4057,71.508
1.3861,72.485
1.3656,75.855
1.3441,83.475
1.3226,96.125
1.3011,112.44
1.2796,129.05
1.2571,141.99
1.2346,149.07
1.2131,150.49
1.1916,148.24
1.1711,144.29
1.1554,140.33
1.1427,137.2
1.1241,135.2
1.1036,134.08
1.0831,133.05
1.0616,131.68
1.0352,129.53
1.0127,126.6
0.99707,123.04
0.9824,119.13
0.96676,115.13
0.9521,111.17
0.9433,107.51
0.93646,103.94
0.92375,100.47
0.90616,97.102
0.88465,93.927
0.86608,91.094
0.85924,88.945
0.87586,87.529
0.92962,86.991
1.0626,87.187
1.2571,87.724
1.4594,88.359
1.6432,88.847
1.8162,89.189
2.001,89.189
2.173,88.945
2.3187,88.554
2.4311,88.115
2.5112,87.675
2.563,87.284
2.5924,86.943
2.6041,86.503
2.6031,85.917
2.5914,85.233
2.5718,84.5
2.5464,83.67
2.5142,82.84
2.4721,82.107
2.4223,81.423
2.3646,80.788
2.2991,80.251
2.2268,79.811
2.1486,79.372
2.0665,79.03
1.9834,78.737
1.9022,78.444
1.826,78.053
1.7634,77.613
1.7126,77.027
1.6657,76.539
1.6246,76.001
1.5914,75.415
1.565,74.976
1.5455,74.487
1.5288,74.097
1.5142,74.097
1.5005,75.318
1.4868,79.323
1.4741,87.675
1.4604,101.11
1.4487,117.81
1.4379,133.98
1.4242,145.8
1.4076,151.66
1.39,152.3
1.3724,149.76
1.3539,145.8
1.3333,141.94
1.3138,139.01
1.2962,137.06
1.2796,135.79
1.263,134.66
1.2502,133.1
1.2414,130.76
1.2297,127.68
1.218,124.02
1.2053,120.01
1.1935,116
1.1808,112.1
1.1681,108.53
1.1535,105.11
1.1369,101.79
1.1183,98.421
1.1007,95.197
1.0899,92.315
1.0919,89.922
1.1134,88.408
1.1642,87.822
1.2542,87.871
1.3851,88.359
1.5513,88.994
1.741,89.531
1.9365,89.873
2.1212,89.922
2.2815,89.727
2.4096,89.434
2.5044,88.994
2.565,88.554
2.6002,88.164
2.6237,87.724
2.6354,87.284
2.6373,86.796
2.6315,86.161
2.6168,85.428
2.5943,84.549
2.5621,83.67
2.521,82.84
2.4721,82.058
2.4145,81.374
2.3509,80.69
2.2913,80.055
2.2307,79.567
2.1603,79.127
2.086,78.688
2.0108,78.248
1.9384,77.809
1.871,77.369
1.8113,76.881
1.7625,76.441
1.7224,75.904
1.6921,75.415
1.6686,74.976
1.654,74.536
1.6432,74.194
1.6325,74.048
1.6207,74.731
1.608,77.662
1.5953,84.5
1.5806,96.369
1.566,112.29
1.5503,129.09
1.5327,142.92
1.5103,151.22
1.4897,153.86
1.4741,152.64
1.4604,149.41
1.4477,145.95
1.4301,142.92
1.4106,140.87
1.39,139.45
1.3685,138.18
1.349,136.57
1.3304,134.22
1.3128,131.1
1.2962,127.39
1.2805,123.23
1.2659,119.03
1.2571,115.08
1.2502,111.22
1.2395,107.7
1.2268,104.14
1.2111,100.67
1.1926,97.249
1.176,94.123
1.1681,91.436
1.1799,89.482
1.2239,88.506
1.3069,88.261
1.4321,88.554
1.5934,89.092
1.7517,89.678
1.9081,90.117
2.0811,90.313
2.2463,90.166
2.3881,89.824
2.5005,89.287
2.5826,88.799
2.6373,88.31
2.6706,87.871
2.6872,87.382
2.6911,86.845
2.6843,86.259
2.6686,85.575
2.6452,84.745
2.6139,83.914
2.5748,83.035
2.5288,82.156
2.4751,81.423
2.4135,80.739
2.3451,80.153
2.2717,79.665
2.1945,79.176
2.1153,78.737
2.0362,78.297
1.9599,77.858
1.8964,77.369
1.8426,76.881
1.7898,76.294
1.7419,75.806
1.7019,75.318
1.6696,74.878
1.6442,74.341
1.6246,73.852
1.609,73.364
1.5953,73.168
1.5816,73.999
1.5679,77.174
1.5562,84.549
1.5455,96.907
1.5308,113.22
1.5142,130.07
1.4966,143.5
1.479,151.22
1.4594,153.52
1.4399,152.05
1.4213,148.88
1.4018,145.41
1.3822,142.62
1.3627,140.62
1.3431,139.3
1.3284,138.03
1.3157,136.32
1.3001,133.88
1.2835,130.76
1.2669,127.04
1.2512,123.04
1.2366,119.03
1.2239,115.13
1.2121,111.36
1.1994,107.75
1.1848,104.18
1.1672,100.62
1.1525,97.102
1.1427,93.781
1.1369,90.997
1.1447,88.847
1.1808,87.675
1.2551,87.382
1.3715,87.675
1.5259,88.359
1.7067,89.189
1.8983,89.824
2.085,90.117
2.2512,90.069
2.3881,89.727
2.4839,89.238
2.5474,88.75
2.5953,88.164
2.6276,87.675
2.6442,87.138
2.6481,86.552
2.6422,85.966
2.6285,85.233
2.607,84.403
2.5767,83.621
2.5376,82.693
2.4917,81.814
2.4438,80.935
2.3939,80.153
2.3333,79.567
2.2649,79.03
2.1906,78.541
2.1124,78.102
2.0332,77.76
1.957,77.32
1.8847,76.881
1.8201,76.441
1.7644,75.904
1.7185,75.366
1.6843,74.683
1.6569,73.999
1.6364,73.217
1.6237,72.436
1.6129,71.752
1.6031,71.117
1.5924,71.117
1.5797,72.631
1.566,77.32
1.5503,86.796
1.5327,101.35
1.5152,118.74
1.4966,135.01
1.4819,146.53
1.4682,152
1.4506,152.44
1.4291,149.95
1.4047,146.39
1.3783,143.02
1.3529,140.38
1.3275,138.47
1.303,137.06
1.2796,135.54
1.259,133.49
1.2385,130.66
1.2229,127.29
1.2111,123.48
1.1975,119.47
1.1828,115.42
1.1662,111.56
1.1476,107.85
1.1261,104.28
1.1007,100.86
1.0723,97.346
1.044,94.074
1.0225,91.045
1.0205,88.701
1.0508,87.187
1.1095,86.552
1.2043,86.601
1.3568,87.187
1.5591,87.871
1.7957,88.554
2.045,88.994
2.2854,89.092
2.4985,89.043
2.6735,88.75
2.8065,88.359
2.8983,87.871
2.957,87.382
2.9863,86.845
2.9932,86.308
2.9902,85.721
2.9775,84.989
2.955,84.256
2.9228,83.377
2.8817,82.547
2.8309,81.716
2.7722,81.032
2.7038,80.495
2.6256,80.007
2.5376,79.567
2.4409,79.225
2.35,78.981
2.262,78.737
2.1652,78.444
2.0674,78.053
1.9756,77.564
1.8944,76.929
1.826,76.197
1.7713,75.415
1.7312,74.731
1.7009,74.048
1.6784,73.559
1.6618,73.12
1.651,73.12
1.6432,74.097
1.6334,77.418
1.6207,84.745
1.6051,97.102
1.5865,113.32
1.566,129.97
1.5415,143.26
1.5161,150.73
1.4907,152.64
1.4653,150.83
1.4399,147.12
1.4154,143.16
1.3969,139.94
1.3812,137.69
1.3627,136.18
1.3431,134.91
1.3226,133.3
1.303,131.1
1.2854,128.26
1.2688,124.75
1.2473,120.99
1.2278,117.03
1.2141,113.17
1.1984,109.51
1.1867,105.8
1.175,102.23
1.1544,98.812
1.131,95.441
1.1124,92.413
1.1036,90.117
1.1134,88.603
1.1623,88.066
1.3187,88.261
1.567,88.799
1.7576,89.531
1.9198,90.117
2.1574,90.41
2.3646,90.508
2.5142,90.313
2.6696,89.971
2.8152,89.531
2.9218,89.043
2.9814,88.554
3.0196,88.066
3.0401,87.431
3.0459,86.698
3.0391,85.819
3.0215,84.842
2.9834,83.914
2.9277,82.937
2.8856,82.058
2.8475,81.228
2.7693,80.495
2.6657,79.811
2.5904,79.323
2.5279,78.786
2.4194,78.346
2.3118,78.004
2.2336,77.662
2.1496,77.32
2.0674,76.929
1.9941,76.49
1.9384,76.001
1.8964,75.464
1.8563,74.976
1.8221,74.536
1.8025,74.097
1.7908,73.657
1.7781,73.315
1.7674,73.364
1.7586,74.683
1.7488,78.786
1.737,87.48
1.7243,101.16
1.7136,118.2
1.7019,134.61
1.6852,146.68
1.6657,152.64
1.6442,153.32
1.6207,150.64
1.5963,146.68
1.5709,142.82
1.5445,139.89
1.5181,137.98
1.4927,136.81
1.4692,135.64
1.4477,133.98
1.433,131.54
1.4223,128.31
1.4106,124.5
1.3978,120.45
1.3861,116.35
1.3744,112.54
1.3617,108.92
1.348,105.5
1.3314,102.13
1.306,98.812
1.2815,95.637
1.2698,92.755
1.2688,90.41
1.3216,88.945
1.3949,88.31
1.479,88.359
1.6276,88.945
1.9022,89.531
2.1799,90.069
2.3832,90.362
2.6031,90.313
2.8377,89.971
3.0254,89.482
3.1457,88.945
3.2336,88.359
3.2757,87.871
3.2942,87.431
3.2972,86.845
3.2874,86.308
3.2659,85.624
3.2454,84.842
3.2082,84.061
3.1457,83.182
3.0782,82.302
3.0029,81.57
2.9189,80.788
2.8368,80.153
2.7546,79.567
2.6618,78.981
2.5621,78.444
2.4848,77.906
2.3978,77.418
2.2845,76.978
2.1916,76.539
2.1153,76.099
2.0547,75.806
2.0059,75.464
1.9746,75.122
1.9501,74.78
1.9257,74.487
1.9062,74.048
1.8895,73.657
1.8729,73.413
1.8553,73.901
1.8377,76.343
1.8192,82.498
1.7967,93.634
1.7713,109.07
1.7439,125.87
1.7146,140.18
1.6833,149.07
1.6569,152.2
1.6325,151.07
1.6041,147.7
1.5758,143.75
1.5484,140.38
1.521,138.13
1.4946,136.81
1.4692,135.88
1.4467,134.76
1.4252,132.81
1.4057,130.12
1.3871,126.75
1.3734,122.84
1.3617,118.89
1.347,114.93
1.3324,111.17
1.3157,107.6
1.2962,104.18
1.2747,100.67
1.2542,97.2
1.2414,93.781
1.2483,90.85
1.2903,88.603
1.3812,87.284
1.5279,86.943
1.6911,87.284
1.8759,88.115
2.1065,89.043
2.3519,89.824
2.5875,90.117
2.7937,89.971
2.9599,89.531
3.0831,88.799
3.1681,88.066
3.2219,87.284
3.2522,86.601
3.263,85.966
3.2561,85.379
3.2375,84.745
3.2102,84.012
3.173,83.182
3.1251,82.302
3.0684,81.423
3.001,80.593
2.9228,79.86
2.8338,79.176
2.737,78.59
2.5826,78.102
2.4027,77.76
2.2659,77.369
2.1623,76.978
2.0802,76.636
2.0029,76.197
1.9335,75.806
1.8749,75.415
1.828,74.976
1.7918,74.634
1.7634,74.194
1.741,73.755
1.7224,73.315
1.7067,72.924
1.6911,72.436
1.6774,72.045
1.6647,72.24
1.6491,73.999
1.6305,78.786
1.608,88.164
1.5836,102.04
1.5582,118.2
1.5327,133
1.5073,143.26
1.4819,147.95
1.4565,147.85
1.4301,144.92
1.4047,141.06
1.3842,137.45
1.3675,134.76
1.348,133.1
1.3275,132.07
1.3079,130.95
1.2893,129.39
1.2717,126.99
1.2561,123.87
1.2414,120.11
1.2287,116.05
1.216,112
1.2023,108.09
1.1916,104.43
1.1818,100.91
1.1662,97.542
1.1476,94.171
1.132,91.045
1.1281,88.31
1.1496,86.259
1.2063,85.038
1.3079,84.598
1.4555,84.842
1.6432,85.477
1.8553,86.259
2.0723,86.845
2.2542,87.187
2.4037,87.187
2.5435,86.943
2.6569,86.405
2.74,85.819
2.7947,85.233
2.825,84.696
2.8368,84.158
2.8348,83.67
2.8201,83.182
2.7967,82.547
2.7644,81.863
2.7273,81.13
2.6843,80.3
2.6305,79.469
2.5679,78.688
2.4956,77.906
2.4145,77.32
2.3255,76.783
2.2326,76.294
2.1388,75.904
2.0469,75.562
1.9599,75.22
1.8807,74.878
1.8113,74.487
1.7586,74.048
1.7175,73.559
1.6813,72.973
1.651,72.436
1.6256,71.947
1.6041,71.557
1.5865,71.215
1.5709,70.97
1.5543,70.97
1.5376,71.85
1.52,74.878
1.5024,81.667
1.4868,93.341
1.4731,109.07
1.4555,125.58
1.435,138.91
1.4145,146.73
1.393,148.73
1.3705,146.68
1.347,142.62
1.3245,138.03
1.3021,134.32
1.2796,131.78
1.2571,130.41
1.2356,129.49
1.2199,128.36
1.2082,126.6
1.1935,124.02
1.1789,120.6
1.1652,116.74
1.1535,112.73
1.1417,108.73
1.129,105.01
1.1144,101.5
1.0968,98.128
1.0772,95.002
1.0596,92.12
1.0518,89.629
1.0606,87.626
1.0938,86.405
1.1652,86.063
1.2854,86.308
1.4526,86.943
1.6569,87.626
1.8817,88.115
2.1075,88.31
2.3138,88.261
2.4868,87.919
2.6207,87.431
2.7155,86.943
2.7713,86.356
2.7996,85.819
2.8123,85.233
2.8123,84.696
2.7996,84.012
2.7771,83.23
2.7458,82.449
2.7067,81.472
2.6598,80.544
2.6041,79.665
2.5406,78.883
2.4702,78.053
2.4018,77.418
2.3314,76.783
2.2502,76.294
2.1623,75.855
2.0733,75.415
1.9873,75.073
1.9071,74.683
1.8368,74.292
1.7781,73.852
1.7322,73.51
1.6979,73.071
1.6725,72.68
1.654,72.387
1.6432,71.996
1.6354,71.605
1.6266,71.166
1.6158,70.873
1.6031,71.117
1.5885,73.071
1.5718,78.444
1.5552,88.75
1.5376,103.79
1.52,120.99
1.5015,136.13
1.4809,145.95
1.4624,149.56
1.4467,148.44
1.4272,144.68
1.4066,140.13
1.3861,136.18
1.3666,133.44
1.347,131.93
1.3284,131.05
1.3109,130.12
1.2942,128.61
1.2786,126.26
1.2649,123.04
1.2551,119.23
1.2483,115.13
1.2405,111.12
1.2326,107.31
1.2248,103.74
1.2141,100.42
1.2004,97.249
1.1848,94.123
1.173,91.192
1.176,88.701
1.2082,86.943
1.2825,85.966
1.4057,85.819
1.5464,86.161
1.7087,86.796
1.9159,87.382
2.1427,87.724
2.3636,87.871
2.5611,87.724
2.7224,87.284
2.8426,86.747
2.9257,86.161
2.9775,85.624
3.0049,85.135
3.0137,84.598
3.0068,84.11
2.9892,83.475
2.9638,82.791
2.9306,82.009
2.8886,81.179
2.8368,80.349
2.7771,79.616
2.7077,78.883
2.6305,78.248
2.5455,77.76
2.4536,77.32
2.3587,76.881
2.2649,76.441
2.1828,76.05
2.1095,75.611
2.0362,75.171
1.9697,74.683
1.913,74.194
1.8661,73.755
1.828,73.315
1.7986,72.973
1.7761,72.631
1.7576,72.24
1.74,71.801
1.7243,71.361
1.7107,71.068
1.6989,71.557
1.6843,74.194
1.6686,80.544
1.652,91.778
1.6344,107.16
1.6139,123.72
1.5924,137.45
1.5699,145.56
1.5464,148.05
1.522,146.48
1.4976,142.87
1.4731,138.91
1.4536,135.69
1.437,133.64
1.4194,132.56
1.3998,131.78
1.3793,130.8
1.3597,129
1.3421,126.31
1.3255,122.79
1.3099,118.89
1.2962,114.73
1.2835,110.73
1.2717,106.97
1.262,103.5
1.2522,100.13
1.2356,96.858
1.217,93.683
1.1945,90.801
1.1838,88.359
1.2072,86.698
1.2737,85.721
1.39,85.575
1.5543,85.868
1.7566,86.503
1.9814,87.187
2.2082,87.675
2.3949,87.871
2.5445,87.724
2.6823,87.382
2.7928,86.796
2.8729,86.161
2.9228,85.575
2.9492,84.989
2.957,84.354
2.9511,83.816
2.9326,83.182
2.9042,82.498
2.8661,81.716
2.8221,80.935
2.7732,80.104
2.7136,79.372
2.6442,78.59
2.566,78.004
2.478,77.369
2.3842,76.881
2.2864,76.343
2.1867,75.904
2.089,75.464
1.998,75.122
1.9169,74.683
1.8475,74.243
1.7957,73.852
1.7566,73.413
1.7234,72.973
1.696,72.485
1.6735,71.85
1.6549,71.166
1.6393,70.384
1.6227,69.603
1.6061,69.261
1.5894,70.238
1.5709,74.048
1.5523,82.253
1.5357,95.295
1.521,111.51
1.5015,127.24
1.479,138.86
1.4545,144.63
1.4301,145.12
1.4047,142.28
1.3803,138.23
1.3578,134.32
1.3372,131.44
1.3167,129.73
1.2962,128.85
1.2766,127.97
1.263,126.7
1.2512,124.55
1.2366,121.62
1.2209,118.01
1.2043,114.05
1.1896,110.05
1.175,106.19
1.1593,102.47
1.1417,99.056
1.1202,95.734
1.0958,92.511
1.0733,89.434
1.0626,86.747
1.0694,84.696
1.1036,83.426
1.1789,83.035
1.304,83.279
1.477,84.012
1.6882,84.745
1.9189,85.379
2.1476,85.721
2.3558,85.819
2.5318,85.575
2.6676,85.184
2.7654,84.745
2.8221,84.256
2.8514,83.816
2.8671,83.377
2.869,82.791
2.8592,82.156
2.8387,81.423
2.8084,80.593
2.7693,79.811
2.7204,78.981
2.6618,78.297
2.5934,77.613
2.5152,77.125
2.4389,76.636
2.3597,76.246
2.2678,75.855
2.1691,75.562
2.0684,75.318
1.9717,74.976
1.8817,74.731
1.8006,74.438
1.7312,73.999
1.6755,73.51
1.6315,72.875
1.5982,72.24
1.5738,71.654
1.5572,71.117
1.5455,70.629
1.5357,70.384
1.5249,70.873
1.5132,73.168
1.4995,78.981
1.4839,89.531
1.4653,104.48
1.4457,120.99
1.4242,135.1
1.4018,143.8
1.3783,146.48
1.3578,144.68
1.3402,140.57
1.3187,136.08
1.2962,132.32
1.2737,129.88
1.2532,128.56
1.2346,127.83
1.218,126.85
1.2033,125.29
1.1896,122.75
1.1769,119.42
1.1642,115.57
1.1496,111.41
1.1398,107.41
1.132,103.74
1.1202,100.23
1.1036,97.004
1.0831,93.878
1.0626,90.997
1.0479,88.408
1.0479,86.503
1.0743,85.379
1.1427,84.989
1.261,85.282
1.4291,86.063
1.6051,86.796
1.7889,87.382
2.0049,87.626
2.2239,87.529
2.4203,87.187
2.5816,86.698
2.7028,86.112
2.7859,85.477
2.8358,84.94
2.8592,84.305
2.8631,83.67
2.8514,83.035
2.8289,82.302
2.7986,81.472
2.7605,80.69
2.7146,79.909
2.6598,79.176
2.5953,78.492
2.523,77.906
2.4438,77.369
2.3568,76.881
2.2649,76.343
2.1691,75.904
2.0733,75.415
1.9814,75.073
1.9042,74.683
1.8397,74.341
1.7801,73.999
1.7302,73.559
1.6921,73.12
1.6637,72.68
1.6442,72.24
1.6295,71.801
1.6178,71.41
1.608,71.068
1.5982,70.873
1.5865,71.361
1.5758,73.657
1.565,79.616
1.5503,90.313
1.5337,105.41
1.5152,122.06
1.4946,136.23
1.4731,145.02
1.4506,147.8
1.4272,146.19
1.4047,142.28
1.3832,137.89
1.3607,134.17
1.3402,131.63
1.3255,130.17
1.3138,129.19
1.2991,127.97
1.2845,126.12
1.2698,123.38
1.2561,119.91
1.2434,115.91
1.2317,111.85
1.2199,107.95
1.2082,104.28
1.1955,100.91
1.1799,97.884
1.1672,94.855
1.1564,91.973
1.1457,89.434
1.1457,87.382
1.1701,85.966
1.2326,85.428
1.3441,85.477
1.5054,85.966
1.7087,86.601
1.9394,87.138
2.176,87.431
2.3978,87.48
2.5904,87.382
2.7283,86.991
2.824,86.503
2.8983,85.966
2.9462,85.477
2.9707,84.989
2.9756,84.403
2.9658,83.914
2.9433,83.279
2.9101,82.595
2.869,81.863
2.8182,81.032
2.7595,80.251
2.6999,79.421
2.6354,78.737
2.5601,78.199
2.4761,77.613
2.3851,77.125
2.2893,76.685
2.1926,76.246
2.0987,75.855
2.0108,75.366
1.9316,74.878
1.8631,74.341
1.8074,73.803
1.7625,73.315
1.7302,72.875
1.7067,72.485
1.6862,72.094
1.6696,71.752
1.654,71.312
1.6373,70.922
1.6217,71.166
1.6051,73.071
1.5875,78.248
1.5689,88.066
1.5435,102.38
1.5132,118.79
1.4907,133.49
1.4712,143.26
1.4487,146.97
1.4242,146.04
1.3978,142.48
1.3715,138.33
1.3451,134.66
1.3206,132.22
1.2981,130.85
1.2776,130.12
1.2581,129.29
1.2385,127.83
1.2199,125.43
1.2063,122.26
1.1955,118.5
1.1818,114.44
1.1681,110.39
1.1544,106.53
1.1408,103.01
1.1241,99.691
1.1046,96.467
1.0841,93.341
1.0665,90.557
1.0616,88.066
1.0841,86.259
1.131,85.184
1.2121,84.842
1.347,85.184
1.5298,85.721
1.7488,86.356
1.9834,86.845
2.2121,87.04
2.4174,86.943
2.5885,86.552
2.7204,85.966
2.8143,85.379
2.8749,84.696
2.9091,84.11
2.9189,83.572
2.911,82.986
2.8935,82.351
2.8671,81.667
2.8309,80.984
2.7849,80.251
2.7292,79.469
2.6647,78.786
2.5914,78.053
2.5103,77.467
2.4223,76.978
2.3294,76.49
2.2434,76.099
2.1603,75.806
2.0694,75.415
1.9795,75.122
1.8944,74.731
1.8182,74.341
1.7537,73.901
1.6989,73.51
1.6549,73.071
1.6207,72.631
1.5943,72.094
1.5728,71.654
1.5543,71.166
1.5396,70.677
1.5269,70.531
1.5122,71.801
1.4956,75.904
1.477,84.354
1.4565,97.493
1.435,113.51
1.4115,128.7
1.3871,139.69
1.3627,144.92
1.3372,145.07
1.3109,142.04
1.2913,137.79
1.2747,133.78
1.2551,130.85
1.2356,129.05
1.216,127.97
1.1975,127.04
1.1808,125.68
1.1652,123.48
1.1515,120.55
1.1378,116.98
1.1241,113.12
1.1114,109.12
1.0987,105.31
1.0899,101.69
1.0811,98.225
1.0665,94.855
1.0479,91.68
1.0283,88.75
1.0186,86.308
1.0283,84.598
1.0714,83.719
1.1593,83.621
1.2972,84.061
1.4809,84.696
1.6979,85.282
1.9003,85.721
2.087,85.917
2.2796,85.868
2.4526,85.624
2.5914,85.184
2.694,84.745
2.7625,84.305
2.8016,83.865
2.8182,83.377
2.8172,82.84
2.8025,82.302
2.7761,81.618
2.7419,80.935
2.7009,80.104
2.651,79.372
2.5914,78.59
2.523,77.858
2.4457,77.223
2.3607,76.734
2.2678,76.343
2.1701,76.05
2.0694,75.757
1.9707,75.415
1.8759,75.122
1.7889,74.731
1.7204,74.292
1.6657,73.803
1.6168,73.315
1.5767,72.729
1.5455,72.24
1.521,71.801
1.5024,71.361
1.4858,71.117
1.4712,71.166
1.4575,72.533
1.4428,76.49
1.4272,84.696
1.4135,97.542
1.4008,113.56
1.3851,129.05
1.3675,140.43
1.347,146
1.3255,146.39
1.303,143.36
1.2796,139.06
1.2551,134.86
1.2297,131.73
1.2053,129.83
1.1828,128.75
1.1623,127.87
1.1476,126.51
1.1378,124.31
1.1261,121.38
1.1144,117.81
1.1036,113.9
1.0929,109.95
1.0811,106.04
1.0684,102.47
1.0538,99.105
1.0362,95.881
1.0156,92.853
0.99707,90.117
0.98925,87.871
0.99804,86.356
1.0342,85.624
1.1114,85.575
1.2375,85.966
1.4125,86.601
1.6266,87.187
1.8622,87.529
2.0968,87.626
2.3118,87.431
2.4927,87.04
2.6334,86.601
2.7331,86.112
2.7908,85.624
2.8192,85.135
2.8319,84.549
2.8299,84.012
2.8162,83.23
2.7918,82.449
2.7586,81.57
2.7155,80.69
2.6637,79.811
2.6031,78.981
2.5337,78.297
2.4555,77.613
2.3803,77.027
2.305,76.49
2.219,76.05
2.1281,75.757
2.0362,75.415
1.9482,75.122
1.8671,74.731
1.7967,74.341
1.738,73.901
1.6901,73.51
1.654,73.12
1.6276,72.68
1.607,72.289
1.5934,71.947
1.5836,71.605
1.5728,71.605
1.5621,72.68
1.5503,76.099
1.5376,83.475
1.523,95.637
1.5064,111.36
1.4868,127.29
1.4653,139.6
1.4428,146.29
1.4184,147.51
1.3978,145.07
1.3803,141.01
1.3597,136.86
1.3392,133.54
1.3177,131.44
1.2972,130.32
1.2766,129.44
1.2571,128.17
1.2395,126.16
1.2239,123.38
1.2102,119.86
1.1984,115.86
1.1877,111.8
1.1799,107.85
1.173,104.18
1.1632,100.72
1.1496,97.493
1.1329,94.367
1.1163,91.436
1.1065,88.945
1.1163,86.991
1.1584,85.819
1.2424,85.379
1.3763,85.575
1.5591,86.063
1.7449,86.601
1.9345,87.04
2.1515,87.284
2.3666,87.236
2.5591,86.991
2.7165,86.552
2.8348,86.063
2.9169,85.624
2.9677,85.184
2.9951,84.793
3.002,84.354
2.9932,83.816
2.9707,83.23
2.9384,82.547
2.8974,81.814
2.8475,80.984
2.7879,80.251
2.7155,79.469
2.6334,78.883
2.5474,78.297
2.4565,77.76
2.3607,77.32
2.263,76.881
2.1662,76.441
2.0723,76.001
1.9932,75.562
1.9267,75.073
1.8641,74.634
1.8074,74.194
1.7615,73.755
1.7253,73.315
1.6979,72.875
1.6764,72.436
1.6588,71.947
1.6432,71.605
1.6295,71.85
1.6158,73.852
1.6012,79.127
1.5885,88.945
1.5758,103.06
1.5582,119.03
1.5367,133.25
1.5142,142.58
1.4897,146.29
1.4633,145.56
1.436,142.38
1.4086,138.47
1.3822,135.05
1.3568,132.66
1.3333,131.39
1.3148,130.61
1.3001,129.68
1.2825,128.12
1.2649,125.68
1.2483,122.45
1.2336,118.69
1.2199,114.73
1.2072,110.88
1.1955,107.12
1.1838,103.6
1.1701,100.18
1.1525,96.907
1.1339,93.732
1.1222,90.85
1.1202,88.359
1.1359,86.601
1.1848,85.673
1.2776,85.477
1.4174,85.819
1.6012,86.356
1.8172,86.991
2.0459,87.48
2.2669,87.675
2.4643,87.626
2.6256,87.236
2.737,86.796
2.8094,86.161
2.8641,85.624
2.8993,84.989
2.9179,84.403
2.9218,83.816
2.912,83.182
2.8915,82.498
2.8602,81.667
2.8182,80.886
2.7664,80.007
2.7048,79.176
2.6334,78.346
2.563,77.662
2.4907,77.027
2.4066,76.636
2.3148,76.197
2.219,75.806
2.1222,75.415
2.0293,75.073
1.9433,74.634
1.8671,74.097
1.8025,73.657
1.7498,73.168
1.7077,72.68
1.6774,72.24
1.6559,71.801
1.6373,71.41
1.6217,71.068
1.608,71.215
1.5934,72.875
1.5787,77.467
1.563,86.503
1.5455,99.935
1.5269,115.76
1.5064,130.36
1.4839,140.62
1.4653,145.26
1.4467,145.12
1.4233,142.14
1.3978,138.18
1.3715,134.52
1.346,131.88
1.3206,130.32
1.2972,129.39
1.2757,128.51
1.2561,127.04
1.2375,124.8
1.219,121.67
1.2014,117.91
1.1906,113.9
1.1828,109.95
1.173,106.04
1.1603,102.38
1.1447,98.86
1.1251,95.49
1.1036,92.315
1.0841,89.385
1.0743,86.943
1.086,85.184
1.1329,84.158
1.2268,83.865
1.3421,84.061
1.4858,84.5
1.6794,84.94
1.9003,85.282
2.1251,85.428
2.3324,85.379
2.5083,85.135
2.6452,84.842
2.7439,84.549
2.8084,84.158
2.8446,83.865
2.8602,83.426
2.8602,82.84
2.8475,82.253
2.826,81.472
2.7957,80.739
2.7576,79.86
2.7107,78.981
2.6549,78.199
2.5894,77.418
2.5152,76.783
2.4321,76.294
2.3412,76.05
2.2454,75.855
2.1466,75.806
2.0596,75.66
1.9804,75.366
1.8983,74.927
1.8211,74.341
1.7517,73.755
1.6931,73.12
1.6461,72.485
1.61,71.85
1.5826,71.361
1.5621,70.922
1.5464,70.824
1.5337,71.361
1.522,73.803
1.5122,79.762
1.5024,90.362
1.4888,105.11
1.4721,121.23
1.4516,134.91
1.4282,143.46
1.4018,146.24
1.3744,144.68
1.346,140.87
1.3177,136.42
1.2893,132.61
1.2639,129.93
1.2454,128.36
1.2297,127.39
1.2121,126.31
1.1955,124.6
1.1789,122.16
1.1632,118.98
1.1476,115.37
1.1329,111.41
1.1193,107.55
1.1065,103.79
1.0929,100.23
1.0762,96.858
1.0567,93.536
1.0411,90.508
1.0313,87.822
1.0283,85.819
1.0469,84.793
1.1007,84.598
1.2004,85.135
1.35,85.917
1.5445,86.698
1.7693,87.138
2.0039,87.187
2.2278,86.943
2.4223,86.503
2.564,85.917
2.6618,85.379
2.738,84.94
2.7889,84.549
2.8162,84.158
2.825,83.816
2.8201,83.23
2.8055,82.595
2.781,81.863
2.7468,81.13
2.7038,80.446
2.651,79.762
2.5894,79.127
2.5259,78.541
2.4594,78.004
2.3822,77.564
2.2972,77.174
2.2082,76.881
2.1183,76.539
2.0313,76.246
1.9501,75.904
1.8778,75.464
1.8143,74.927
1.7615,74.292
1.7185,73.608
1.6872,72.924
1.6647,72.24
1.6442,71.557
1.6256,70.97
1.608,71.068
1.5914,72.875
1.5748,78.053
1.5572,88.115
1.5386,102.82
1.5181,119.62
1.4966,134.52
1.4761,143.94
1.4555,147.12
1.4399,145.41
1.4252,141.26
1.4076,136.57
1.39,132.76
1.3715,130.36
1.3539,129.39
1.3372,129.05
1.3216,128.7
1.3089,127.53
1.2972,125.48
1.2874,122.45
1.2796,118.74
1.2757,114.73
1.2727,110.88
1.2669,107.31
1.2571,103.99
1.2434,100.86
1.2239,97.884
1.1994,94.855
1.1769,92.071
1.1642,89.678
1.175,87.919
1.2229,87.04
1.3196,86.991
1.4702,87.431
1.6354,88.115
1.8172,88.75
2.0381,89.092
2.2678,89.189
2.4819,88.945
2.6637,88.359
2.8055,87.675
2.9071,86.845
2.9736,86.112
3.0127,85.428
3.0303,84.793
3.0323,84.11
3.0205,83.426
2.998,82.595
2.9697,81.814
2.9326,80.935
2.8856,80.055
2.8299,79.225
2.7644,78.492
2.6911,77.809
2.61,77.223
2.521,76.783
2.4252,76.49
2.3255,76.099
2.2258,75.66
2.1388,75.22
2.0635,74.731
1.9892,74.243
1.9228,73.755
1.869,73.315
1.828,72.875
1.7957,72.533
1.7713,72.24
1.7527,72.045
1.738,72.045
1.7243,72.973
1.7107,76.197
1.6979,83.23
1.6862,95.344
1.6716,111.51
1.654,128.17
1.6334,141.45
1.6119,148.73
1.5875,150.1
1.5621,147.56
1.5357,143.26
1.5073,138.91
1.478,135.64
1.4487,133.64
1.4242,132.61
1.4027,131.93
1.3783,130.85
1.3529,129
1.3275,126.31
1.3021,122.79
1.2776,118.89
1.2561,114.78
1.2366,110.88
1.217,107.12
1.1975,103.6
1.1769,100.23
1.1554,96.907
1.1378,93.732
1.1271,90.801
1.1271,88.359
1.1515,86.698
1.217,85.868
1.3333,85.819
1.5034,86.308
1.7204,87.04
1.9668,87.724
2.2199,88.261
2.4594,88.408
2.6667,88.31
2.8172,87.822
2.9228,87.187
3.0078,86.405
3.0665,85.721
3.1017,85.135
3.1163,84.5
3.1144,83.865
3.0987,83.23
3.0723,82.547
3.0352,81.814
2.9883,81.032
2.9316,80.153
2.8641,79.323
2.7937,78.492
2.7185,77.76
2.6295,77.027
2.5308,76.49
2.4262,76.05
2.3187,75.66
2.2131,75.22
2.1134,74.878
2.0235,74.438
1.9453,73.901
1.8807,73.413
1.8289,72.924
1.7908,72.533
1.7634,72.192
1.741,71.801
1.7204,71.41
1.7028,71.41
1.6862,72.533
1.6686,76.294
1.65,84.403
1.6295,97.542
1.607,113.9
1.5836,129.88
1.5591,141.7
1.5337,147.41
1.5122,147.85
1.4917,144.87
1.4673,140.62
1.4399,136.67
1.4125,133.88
1.3851,132.42
1.3568,131.78
1.3294,131.29
1.303,130.17
1.2776,128.12
1.2532,125.14
1.2297,121.38
1.2121,117.32
1.1975,113.32
1.1808,109.51
1.1642,105.94
1.1447,102.47
1.1222,99.056
1.0968,95.637
1.0704,92.218
1.0518,89.189
1.0518,86.698
1.085,84.94
1.1652,84.012
1.2991,83.865
1.4526,84.158
1.6295,84.745
1.8553,85.379
2.0987,85.721
2.3353,85.917
2.5455,85.819
2.7165,85.428
2.8465,84.989
2.9384,84.5
2.998,84.012
3.0332,83.426
3.0489,82.84
3.0469,82.302
3.0323,81.618
3.0108,80.886
2.9804,80.104
2.9404,79.225
2.8886,78.492
2.825,77.76
2.7507,77.027
2.6657,76.441
2.5718,75.806
2.4702,75.22
2.3627,74.78
2.2522,74.438
2.1544,74.097
2.0655,73.755
1.9726,73.364
1.8847,72.924
1.8074,72.436
1.7419,71.85
1.6882,71.361
1.6471,70.824
1.6158,70.287
1.5914,69.847
1.5709,69.749
1.5533,70.482
1.5396,73.217
1.5279,79.811
1.5122,91.192
1.4936,106.72
1.4731,123.28
1.4526,137.01
1.4311,144.92
1.4086,146.97
1.3851,144.73
1.3607,140.48
1.3353,135.98
1.3099,132.42
1.2854,130.22
1.2659,129.24
1.2493,128.75
1.2287,128.07
1.2072,126.6
1.1857,124.26
1.1652,120.99
1.1457,117.23
1.1261,113.17
1.1085,109.26
1.0909,105.55
1.0714,102.04
1.0508,98.812
1.0352,95.637
1.0205,92.608
1.0029,89.922
0.99413,87.871
1.0078,86.552
1.0587,85.966
1.1584,86.063
1.3118,86.503
1.5132,86.991
1.7498,87.382
2,87.48
2.2414,87.284
2.4545,86.991
2.6129,86.503
2.7263,85.917
2.8172,85.379
2.8807,84.842
2.9189,84.354
2.9365,83.865
2.9384,83.279
2.9277,82.693
2.9052,82.009
2.871,81.374
2.828,80.739
2.7742,80.153
2.7165,79.665
2.6549,79.225
2.5797,78.883
2.4946,78.492
2.4027,78.199
2.305,77.809
2.2063,77.418
2.1085,76.978
2.0156,76.539
1.9306,76.05
1.8563,75.415
1.7937,74.878
1.7429,74.243
1.7058,73.755
1.6794,73.217
1.6569,72.729
1.6364,72.387
1.6178,72.387
1.6002,73.608
1.5826,77.564
1.563,85.868
1.5415,99.056
1.5191,115.42
1.4946,131.1
1.4692,142.28
1.4487,147.31
1.4291,146.92
1.4057,143.36
1.3803,138.77
1.3539,134.57
1.3284,131.73
1.305,130.32
1.2835,129.93
1.2639,129.68
1.2454,128.85
1.2287,127.19
1.2141,124.55
1.2004,121.13
1.1916,117.32
1.1857,113.42
1.1799,109.66
1.173,106.19
1.1632,102.87
1.1505,99.691
1.1339,96.565
1.1173,93.536
1.1075,90.948
1.1144,88.945
1.1525,87.675
1.2326,87.236
1.3363,87.431
1.4692,87.919
1.654,88.554
1.871,89.043
2.0978,89.238
2.3138,89.092
2.5015,88.75
2.652,88.164
2.7654,87.431
2.8436,86.698
2.8915,85.966
2.9159,85.282
2.9208,84.598
2.912,83.914
2.8954,83.279
2.87,82.595
2.8368,81.863
2.7957,81.032
2.7468,80.251
2.6891,79.469
2.6227,78.737
2.5474,78.053
2.4643,77.467
2.3754,76.978
2.2825,76.636
2.1984,76.246
2.1212,75.904
2.0411,75.562
1.9638,75.171
1.8944,74.731
1.8348,74.243
1.7859,73.803
1.7478,73.364
1.7185,72.973
1.695,72.631
1.6764,72.24
1.6598,72.045
1.6461,72.485
1.6334,74.78
1.6178,80.593
1.6002,91.241
1.5806,106.38
1.5591,123.04
1.5376,137.35
1.5152,146.19
1.4907,148.93
1.4663,147.31
1.4399,143.36
1.4135,139.11
1.3881,135.74
1.3675,133.74
1.349,132.86
1.3284,132.51
1.3089,131.78
1.2893,130.36
1.2717,127.87
1.2561,124.5
1.2414,120.55
1.2278,116.44
1.2151,112.39
1.2014,108.53
1.1867,105.06
1.175,101.69
1.1623,98.47
1.1437,95.295
1.1222,92.364
1.1075,89.873
1.1134,87.968
1.1535,86.845
1.2385,86.503
1.3724,86.601
1.5523,87.138
1.7644,87.675
1.9912,88.066
2.2121,88.164
2.3881,87.968
2.5249,87.529
2.6461,86.991
2.741,86.308
2.8074,85.673
2.8495,85.038
2.8719,84.5
2.8788,83.914
2.8739,83.279
2.8573,82.595
2.8299,81.912
2.7918,81.179
2.7478,80.495
2.697,79.811
2.6354,79.176
2.565,78.59
2.4848,78.199
2.3969,77.76
2.303,77.369
2.2043,76.929
2.1056,76.539
2.0117,76.099
1.9238,75.66
1.8456,75.22
1.7781,74.731
1.7273,74.243
1.6891,73.755
1.6559,73.217
1.6266,72.729
1.6022,72.289
1.5806,71.801
1.5601,71.361
1.5406,71.557
1.522,73.217
1.5034,78.102
1.4839,87.529
1.4633,101.55
1.4457,117.81
1.4301,132.42
1.4096,142.28
1.3871,146.29
1.3636,145.6
1.3421,142.28
1.3196,138.33
1.2972,134.86
1.2747,132.56
1.2532,131.44
1.2317,130.8
1.2111,130.07
1.1916,128.56
1.1779,126.12
1.1672,122.84
1.1535,118.98
1.1398,114.93
1.1261,110.88
1.1124,106.97
1.0987,103.35
1.0831,99.935
1.0645,96.565
1.043,93.243
1.0235,90.166
1.0117,87.529
1.0156,85.624
1.045,84.5
1.1105,84.158
1.2229,84.403
1.3832,84.989
1.5806,85.624
1.8006,86.063
2.0235,86.308
2.2307,86.259
2.4086,85.917
2.5484,85.477
2.651,84.989
2.7195,84.403
2.7556,83.914
2.7703,83.426
2.7722,82.84
2.7644,82.253
2.7458,81.472
2.7175,80.69
2.6794,79.811
2.6315,78.883
2.5738,78.053
2.5064,77.223
2.4311,76.539
2.348,75.904
2.2698,75.464
2.1906,75.122
2.1007,74.78
2.0068,74.487
1.914,74.194
1.827,73.803
1.7488,73.413
1.6804,72.924
1.6227,72.387
1.5767,71.801
1.5406,71.215
1.5132,70.726
1.4917,70.287
1.477,69.994
1.4653,69.798
1.4516,70.189
1.4379,71.996
1.4233,76.734
1.4066,85.966
1.3881,99.935
1.3685,116.54
1.346,131.88
1.3226,142.38
1.2991,146.73
1.2737,146.04
1.2542,142.58
1.2366,138.18
1.2151,134.32
1.1926,131.68
1.1691,130.32
1.1466,129.53
1.1261,128.8
1.1075,127.39
1.0899,125.04
1.0733,121.91
1.0596,118.11
1.0469,114.05
1.0352,110
1.0283,106.19
1.0225,102.62
1.0108,99.251
0.99316,95.979
0.97263,92.853
0.95112,90.069
0.93646,87.724
0.93939,86.308
0.97361,85.673
1.0499,85.819
1.175,86.308
1.347,86.845
1.5239,87.284
1.7067,87.48
1.9169,87.382
2.1241,86.991
2.3089,86.552
2.4585,85.966
2.5699,85.477
2.6461,85.038
2.6921,84.598
2.7146,84.256
2.7195,83.67
2.7097,83.133
2.6872,82.351
2.6579,81.618
2.6217,80.886
2.5758,80.055
2.521,79.372
2.4585,78.737
2.3871,78.199
2.3069,77.662
2.2199,77.223
2.129,76.783
2.0352,76.343
1.9433,76.001
1.8739,75.611
1.8289,75.171
1.784,74.78
1.7351,74.292
1.6901,73.803
1.653,73.315
1.6227,72.875
1.5992,72.436
1.5806,72.045
1.565,71.752
1.5513,71.752
1.5376,72.68
1.5239,75.904
1.5132,83.279
1.5024,95.686
1.4878,111.76
1.4721,127.97
1.4545,140.43
1.436,146.83
1.4164,147.61
1.3978,144.87
1.3783,140.67
1.3587,136.62
1.3402,133.64
1.3226,131.98
1.305,131.2
1.2923,130.61
1.2815,129.53
1.2688,127.68
1.2551,124.85
1.2405,121.28
1.2268,117.37
1.2141,113.37
1.2033,109.56
1.1926,106.04
1.1808,102.72
1.1681,99.544
1.1525,96.418
1.1408,93.292
1.1339,90.508
1.1329,88.261
1.1525,86.747
1.2063,86.112
1.305,86.161
1.4516,86.601
1.6413,87.236
1.8602,87.724
2.088,87.968
2.306,87.968
2.4966,87.724
2.652,87.236
2.7576,86.747
2.824,86.259
2.8729,85.819
2.9032,85.379
2.9169,84.842
2.9179,84.354
2.9071,83.719
2.8856,82.986
2.8553,82.156
2.8162,81.374
2.7674,80.544
2.7087,79.86
2.6481,79.176
2.5836,78.59
2.5073,78.004
2.4223,77.467
2.3324,77.027
2.2395,76.636
2.1486,76.197
2.0606,75.757
1.9804,75.318
1.9101,74.878
1.8514,74.487
1.8045,74.048
1.7664,73.755
1.74,73.364
1.7214,72.973
1.7058,72.533
1.6911,72.192
1.6755,72.094
1.6598,72.973
1.6442,76.343
1.6276,83.816
1.61,96.125
1.5904,112
1.5699,128.07
1.5494,140.33
1.5327,146.73
1.5171,147.75
1.4976,145.26
1.477,141.35
1.4555,137.59
1.433,135.01
1.4106,133.49
1.3891,132.86
1.3685,132.22
1.348,131.05
1.3284,128.95
1.3099,125.92
1.2923,122.26
1.2796,118.2
1.2708,114.1
1.261,110.24
1.2502,106.63
1.2385,103.26
1.2248,99.984
1.2082,96.76
1.1906,93.683
1.1779,90.85
1.1769,88.603
1.2014,87.138
1.263,86.356
1.348,86.259
1.4633,86.552
1.6315,87.04
1.8348,87.48
2.0557,87.822
2.2737,87.822
2.4692,87.529
2.6315,87.04
2.7566,86.503
2.8446,85.868
2.9003,85.282
2.9306,84.745
2.9413,84.158
2.9365,83.621
2.9198,82.986
2.8954,82.253
2.8641,81.472
2.824,80.69
2.7742,79.909
2.7146,79.127
2.6461,78.492
2.5699,77.858
2.4858,77.369
2.3978,76.881
2.304,76.441
2.219,76.001
2.1398,75.464
2.0557,75.073
1.9756,74.536
1.9022,74.048
1.8387,73.559
1.7849,73.071
1.7419,72.631
1.7077,72.192
1.6813,71.801
1.6598,71.361
1.6422,70.922
1.6246,70.726
1.61,71.361
1.5963,73.999
1.5806,80.349
1.563,91.534
1.5445,106.72
1.5239,122.99
1.5024,136.37
1.4809,144.24
1.4594,146.48
1.437,144.68
1.4145,141.01
1.393,137.11
1.3763,134.08
1.3617,132.22
1.3441,131.39
1.3275,130.61
1.3099,129.49
1.2923,127.53
1.2747,124.75
1.2571,121.18
1.2405,117.13
1.2248,113.07
1.2102,109.12
1.1955,105.36
1.1799,101.89
1.1681,98.421
1.1564,95.099
1.1398,91.876
1.1232,88.945
1.1134,86.503
1.1232,84.842
1.1662,84.012
1.2522,83.816
1.3871,84.11
1.567,84.696
1.7801,85.184
2.0068,85.575
2.2023,85.624
2.3666,85.428
2.5249,85.038
2.6569,84.549
2.7556,84.012
2.8231,83.572
2.8631,83.035
2.8807,82.547
2.8817,82.058
2.87,81.423
2.8475,80.788
2.8143,80.007
2.7713,79.176
2.7243,78.297
2.6725,77.564
2.609,76.881
2.5357,76.294
2.4536,75.855
2.3656,75.562
2.2717,75.22
2.175,74.976
2.0792,74.731
1.9883,74.438
1.9032,74.048
1.828,73.608
1.7713,73.071
1.7283,72.485
1.6891,71.947
1.6569,71.361
1.6315,70.873
1.61,70.433
1.5924,70.042
1.5767,70.042
1.5611,71.117
1.5455,74.536
1.5288,82.107
1.5122,94.562
1.4976,110.53
1.4829,126.51
1.4633,138.62
1.4409,144.82
1.4174,145.51
1.392,142.72
1.3656,138.57
1.3402,134.52
1.3157,131.49
1.2923,129.88
1.2708,129.19
1.2502,128.61
1.2307,127.53
1.217,125.63
1.2063,122.75
1.1935,119.13
1.1818,115.13
1.1701,110.97
1.1584,107.07
1.1466,103.35
1.1339,99.935
1.1183,96.662
1.0987,93.634
1.0772,90.801
1.0616,88.31
1.0587,86.503
1.0753,85.477
1.1232,85.282
1.2141,85.673
1.3548,86.259
1.5415,86.845
1.7605,87.236
1.9951,87.382
2.2248,87.236
2.4301,86.845
2.5973,86.405
2.7224,85.917
2.8074,85.428
2.8543,84.94
2.8759,84.5
2.8837,84.012
2.8788,83.377
2.8631,82.742
2.8377,82.009
2.8025,81.228
2.7586,80.446
2.7058,79.665
2.6432,78.981
2.5709,78.346
2.4897,77.809
2.4115,77.32
2.3333,76.783
2.2434,76.343
2.1486,75.904
2.0538,75.464
1.9648,75.122
1.8847,74.683
1.8162,74.194
1.7605,73.657
1.7165,73.168
1.6813,72.68
1.654,72.192
1.6334,71.654
1.6207,71.215
1.6109,70.97
1.5992,71.361
1.5865,73.755
1.5728,79.665
1.5582,90.655
1.5415,106.04
1.523,122.79
1.5034,136.81
1.4829,145.07
1.4604,147.36
1.4379,145.31
1.4203,141.16
1.4037,136.86
1.3832,133.49
1.3617,131.49
1.3402,130.66
1.3196,130.36
1.3011,129.73
1.2835,128.31
1.2659,125.92
1.2502,122.75
1.2366,118.98
1.2239,115.08
1.2131,111.12
1.2063,107.41
1.2004,103.99
1.1906,100.67
1.175,97.444
1.1544,94.318
1.1339,91.436
1.1212,89.043
1.1281,87.382
1.1691,86.503
1.2571,86.356
1.3978,86.698
1.5865,87.187
1.7771,87.626
1.9697,87.871
2.1887,87.871
2.4008,87.675
2.5855,87.236
2.7331,86.747
2.8407,86.259
2.913,85.721
2.956,85.233
2.9756,84.745
2.9785,84.256
2.9687,83.621
2.9492,82.84
2.9208,82.107
2.8847,81.277
2.8407,80.544
2.7879,79.86
2.7273,79.225
2.6579,78.59
2.5797,78.102
2.4927,77.613
2.3998,77.174
2.303,76.783
2.2053,76.441
2.1105,76.05
2.0313,75.611
1.9638,75.22
1.8983,74.78
1.8397,74.341
1.7908,73.901
1.7517,73.51
1.7204,73.071
1.696,72.68
1.6755,72.387
1.6588,72.387
1.6422,73.559
1.6266,77.369
1.609,85.477
1.5934,98.323
1.5787,114.3
1.5611,129.88
1.5396,141.35
1.5171,146.97
1.4927,147.56
1.4673,144.87
1.4409,141.06
1.4145,137.59
1.3891,135.2
1.3646,133.93
1.3412,133.25
1.3226,132.61
1.3079,131.24
1.2913,129.05
1.2737,125.97
1.2561,122.26
1.2395,118.25
1.2239,114.2
1.2082,110.24
1.1935,106.63
1.1789,103.11
1.1623,99.789
1.1417,96.467
1.1202,93.292
1.1065,90.557
1.1046,88.408
1.1202,86.991
1.1701,86.356
1.2649,86.356
1.4096,86.747
1.5992,87.284
1.8192,87.724
2.0499,87.968
2.2708,87.968
2.4663,87.724
2.6246,87.284
2.7322,86.796
2.8006,86.259
2.8495,85.673
2.8788,85.135
2.8905,84.549
2.8895,83.914
2.8778,83.23
2.8553,82.498
2.8221,81.667
2.7791,80.886
2.7253,80.055
2.6608,79.225
2.5855,78.59
2.5122,78.004
2.437,77.564
2.349,77.125
2.2542,76.734
2.1574,76.343
2.0606,75.904
1.9677,75.464
1.8807,74.976
1.8045,74.487
1.738,73.999
1.6843,73.51
1.6422,72.973
1.6119,72.533
1.5904,72.094
1.5718,71.654
1.5552,71.361
1.5386,71.508
1.521,72.924
1.5024,77.32
1.4829,86.063
1.4633,99.495
1.4428,115.57
1.4213,130.66
1.3988,141.5
1.3744,146.53
1.3558,146.87
1.3382,144.29
1.3167,140.87
1.2933,137.69
1.2678,135.54
1.2434,134.37
1.219,133.54
1.1945,132.61
1.172,131
1.1525,128.51
1.1339,125.19
1.1163,121.43
1.1036,117.37
1.0938,113.32
1.0831,109.31
1.0714,105.5
1.0577,101.79
1.0411,98.128
1.0225,94.562
1.002,91.192
0.98631,88.31
0.98436,86.063
1.0098,84.598
1.0753,84.061
1.1662,84.061
1.2884,84.5
1.4643,85.135
1.6764,85.624
1.9042,85.917
2.1261,85.966
2.3245,85.868
2.4888,85.477
2.6139,85.038
2.7009,84.598
2.7566,84.11
2.7869,83.621
2.7977,82.986
2.7928,82.302
2.7761,81.618
2.7498,80.886
2.7146,80.104
2.6706,79.372
2.6178,78.59
2.5562,77.906
2.4848,77.32
2.4057,76.734
2.3177,76.246
2.2239,75.806
2.1241,75.464
2.0342,75.171
1.9511,74.878
1.8631,74.487
1.7771,74.097
1.6989,73.657
1.6305,73.168
1.5728,72.631
1.5269,72.094
1.4917,71.605
1.4643,71.166
1.4448,70.824
1.4311,70.482
1.4184,70.531
1.4096,71.752
1.4018,75.366
1.39,83.035
1.3773,95.637
1.3617,111.61
1.3441,127.53
1.3245,139.74
1.304,146.04
1.2815,147.17
1.2571,144.92
1.2326,141.26
1.2072,137.59
1.1955,134.86
1.1896,133.1
1.175,132.07
1.1574,131.05
1.1388,129.49
1.1212,127.04
1.1056,123.87
1.0899,120.06
1.0743,115.91
1.0596,111.8
1.0459,107.85
1.0323,104.18
1.0176,100.72
1.0068,97.346
0.99609,94.123
0.97947,91.094
0.96188,88.554
0.9521,86.747
0.96285,85.721
1.0078,85.624
1.0978,85.966
1.2366,86.601
1.4194,87.187
1.6334,87.626
1.8602,87.724
2.0538,87.626
2.2151,87.382
2.3666,86.943
2.4897,86.552
2.5797,86.112
2.6383,85.721
2.6706,85.282
2.6823,84.842
2.6784,84.256
2.6618,83.475
2.6354,82.742
2.6002,82.009
2.5552,81.179
2.5083,80.495
2.4585,79.811
2.3969,79.225
2.3255,78.688
2.2463,78.199
2.1603,77.662
2.0694,77.174
1.9775,76.783
1.8886,76.441
1.8045,76.05
1.7283,75.66
1.6628,75.22
1.6139,74.683
1.5777,74.097
1.5474,73.559
1.5239,72.973
1.5064,72.533
1.4927,72.192
1.4809,71.996
1.4702,72.631
1.4594,75.22
1.4477,81.618
1.435,92.804
1.4194,108.19
1.4027,124.6
1.3891,138.13
1.3773,146.14
1.3617,148.49
1.3441,146.92
1.3245,143.55
1.304,139.94
1.2835,137.01
1.263,135.2
1.2424,134.17
1.2229,133.3
1.2033,131.93
1.1857,129.83
1.173,126.8
1.1642,123.14
1.1515,119.03
1.1388,114.98
1.1271,111.12
1.1153,107.41
1.1036,104.04
1.0909,100.81
1.0753,97.542
1.0577,94.367
1.042,91.436
1.0352,88.994
1.0489,87.284
1.0821,86.503
1.1457,86.356
1.2561,86.796
1.4145,87.431
1.61,87.919
1.826,88.31
2.045,88.359
2.2483,88.261
2.4213,87.919
2.5562,87.48
2.6549,87.138
2.7214,86.747
2.7576,86.356
2.7722,85.917
2.7761,85.428
2.7713,84.793
2.7566,84.012
2.7322,82.986
2.6989,82.058
2.6579,81.13
2.608,80.3
2.5494,79.567
2.4829,78.981
2.4086,78.492
2.3275,78.102
2.2512,77.76
2.1769,77.369
2.0938,77.027
2.0078,76.685
1.9267,76.246
1.8534,75.806
1.7908,75.366
1.738,74.878
1.696,74.487
1.6647,74.097
1.6413,73.657
1.6237,73.315
1.6119,72.973
1.6031,73.168
1.5934,74.78
1.5836,79.421
1.5728,88.603
1.5591,102.43
1.5425,118.79
1.5239,133.93
1.5034,144.48
1.4819,149.27
1.4604,149.27
1.4389,146.68
1.4174,143.26
1.4008,140.23
1.3871,138.13
1.3705,136.91
1.3509,135.98
1.3314,134.86
1.3118,133
1.2923,130.32
1.2737,126.85
1.2571,122.94
1.2424,118.74
1.2287,114.69
1.217,110.73
1.2092,107.07
1.2014,103.55
1.1896,100.13
1.172,96.76
1.1515,93.536
1.1339,90.752
1.129,88.603
1.1486,87.284
1.2053,86.747
1.3069,86.747
1.4565,87.138
1.6452,87.626
1.8573,88.115
2.0469,88.359
2.2141,88.359
2.3822,88.066
2.5279,87.626
2.6413,87.138
2.7224,86.601
2.7742,86.112
2.8035,85.624
2.8162,85.038
2.8162,84.5
2.8045,83.816
2.782,83.035
2.7527,82.302
2.7185,81.472
2.6745,80.69
2.6217,79.909
2.5582,79.225
2.4848,78.688
2.4047,78.199
2.3167,77.809
2.2248,77.369
2.131,76.978
2.0401,76.539
1.9531,76.099
1.8807,75.611
1.8221,75.122
1.7654,74.634
1.7155,74.097
1.6755,73.657
1.6452,73.217
1.6217,72.875
1.6041,72.387
1.5894,72.045
1.5758,72.387
1.5621,74.536
1.5474,80.251
1.5318,90.655
1.5181,105.5
1.5054,122.06
1.4897,136.37
1.4721,145.51
1.4536,148.88
1.433,148
1.4125,145.02
1.392,141.55
1.3705,138.77
1.348,136.86
1.3265,135.74
1.305,134.76
1.2884,133.34
1.2747,131.24
1.2581,128.26
1.2414,124.55
1.2239,120.5
1.2082,116.35
1.1945,112.39
1.1808,108.63
1.1672,105.11
1.1505,101.69
1.132,98.323
1.1105,95.002
1.0899,91.925
1.0782,89.238
1.0792,87.382
1.1017,86.259
1.1593,85.868
1.263,85.966
1.4135,86.356
1.6041,86.698
1.8192,86.747
2.0411,86.601
2.2502,86.259
2.4301,85.721
2.5728,85.233
2.6686,84.745
2.7283,84.305
2.7703,83.865
2.7957,83.377
2.8065,82.84
2.8055,82.302
2.7937,81.618
2.7722,80.935
2.741,80.104
2.6999,79.421
2.6491,78.737
2.5885,78.199
2.5191,77.613
2.4497,77.027
2.3783,76.539
2.2962,76.05
2.2072,75.464
2.1163,74.976
2.0264,74.438
1.9677,73.901
1.9306,73.364
1.8807,72.875
1.8299,72.436
1.784,71.996
1.7449,71.557
1.7155,71.215
1.694,70.873
1.6735,70.531
1.654,70.433
1.6354,70.97
1.6158,73.559
1.5963,79.762
1.5758,90.655
1.5562,105.8
1.5357,122.31
1.5142,136.18
1.4936,144.68
1.4751,147.51
1.4624,146.19
1.4516,143.02
1.4389,139.35
1.4252,136.42
1.4115,134.37
1.3978,133.1
1.3842,132.12
1.3695,130.66
1.3539,128.56
1.3372,125.63
1.3196,122.11
1.3011,118.2
1.2874,114.1
1.2757,110.24
1.261,106.48
1.2444,103.01
1.2248,99.544
1.2033,96.174
1.1779,92.95
1.1525,90.117
1.1359,87.871
1.1369,86.405
1.1691,85.819
1.2444,85.819
1.3695,86.259
1.5142,86.796
1.6794,87.236
1.8895,87.431
2.1193,87.382
2.3421,87.187
2.5376,86.796
2.696,86.356
2.8143,85.917
2.8954,85.428
2.9453,84.989
2.9717,84.5
2.9795,84.012
2.9717,83.475
2.9531,82.937
2.9267,82.302
2.8935,81.667
2.8514,81.13
2.7996,80.495
2.739,79.811
2.6686,79.176
2.5885,78.541
2.5015,78.053
2.4086,77.613
2.3138,77.32
2.2199,76.978
2.1398,76.636
2.0694,76.246
2.001,75.757
1.9394,75.171
1.8866,74.683
1.8436,74.097
1.8084,73.657
1.781,73.217
1.7586,72.924
1.738,72.924
1.7185,73.852
1.6989,77.174
1.6833,84.5
1.6696,96.809
1.652,112.88
1.6325,129.19
1.6119,141.7
1.5914,148.19
1.5718,149.17
1.5523,146.63
1.5308,142.62
1.5093,138.77
1.4868,135.79
1.4643,133.98
1.4418,133
1.4242,132.12
1.4106,130.8
1.3959,128.7
1.3822,125.82
1.3685,122.26
1.3548,118.25
1.3421,114.2
1.3304,110.39
1.3196,106.72
1.3079,103.35
1.2942,100.03
1.2776,96.76
1.2639,93.488
1.2532,90.557
1.2434,88.164
1.2483,86.698
1.2825,86.112
1.3617,86.308
1.4917,86.845
1.6725,87.626
1.8915,88.261
2.131,88.603
2.3685,88.603
2.5836,88.359
2.7625,87.968
2.8866,87.48
2.9687,86.943
3.0303,86.503
3.0694,85.966
3.089,85.428
3.0929,84.842
3.0841,84.158
3.0645,83.426
3.0362,82.693
2.998,81.863
2.9501,81.032
2.8925,80.3
2.8319,79.616
2.7674,78.981
2.6911,78.492
2.6051,78.053
2.5132,77.613
2.4184,77.174
2.3216,76.734
2.2287,76.343
2.1437,75.855
2.0684,75.366
2.0049,74.878
1.9531,74.341
1.9159,73.901
1.8886,73.51
1.8661,73.071
1.8475,72.68
1.8319,72.436
1.8182,72.778
1.8055,75.073
1.7918,80.739
1.7781,91.241
1.7634,106.14
1.7468,122.7
1.7273,136.91
1.7067,145.95
1.6882,149.17
1.6706,148.19
1.6481,145.07
1.6246,141.45
1.6002,138.47
1.5767,136.67
1.5533,135.64
1.5308,134.86
1.5083,133.69
1.4858,131.63
1.4643,128.7
1.4448,125.04
1.4311,120.99
1.4213,116.88
1.4096,112.88
1.3969,109.12
1.3832,105.55
1.3685,102.18
1.3519,98.812
1.3324,95.441
1.3118,92.364
1.2962,89.727
1.2962,87.871
1.3265,86.845
1.3988,86.601
1.4966,86.845
1.6266,87.431
1.8123,87.968
2.0352,88.359
2.2727,88.506
2.5024,88.31
2.7067,87.871
2.8729,87.382
2.9971,86.796
3.0821,86.161
3.1339,85.624
3.1603,85.038
3.1652,84.403
3.1544,83.816
3.1349,83.035
3.1056,82.302
3.0684,81.423
3.0215,80.593
2.9638,79.811
2.8974,79.03
2.8231,78.444
2.739,77.858
2.6481,77.369
2.5503,76.929
2.4487,76.636
2.3568,76.246
2.2727,75.806
2.1848,75.366
2.0997,74.878
2.0225,74.341
1.957,73.852
1.9032,73.413
1.8602,72.924
1.826,72.533
1.7996,72.094
1.7791,71.752
1.7634,71.752
1.7507,72.875
1.739,76.539
1.7243,84.5
1.7077,97.249
1.6891,113.22
1.6676,128.95
1.6442,140.67
1.6207,146.73
1.5963,147.7
1.5699,145.51
1.5435,142.04
1.5171,138.91
1.4907,136.62
1.4702,135.25
1.4526,134.37
1.4321,133.34
1.4125,131.73
1.3939,129.24
1.3754,125.92
1.3578,122.11
1.3412,118.06
1.3255,114
1.3109,110.09
1.2981,106.43
1.2845,102.91
1.2737,99.544
1.263,96.174
1.2463,92.999
1.2268,90.069
1.2141,87.724
1.2199,86.259
1.2581,85.477
1.3412,85.477
1.4761,85.917
1.6588,86.552
1.8788,87.138
2.1163,87.48
2.3509,87.48
2.4976,87.236
2.5816,86.796
2.6813,86.259
2.7674,85.721
2.8309,85.184
2.871,84.598
2.8895,84.11
2.8915,83.475
2.8798,82.84
2.8563,82.107
2.8221,81.277
2.7781,80.446
2.7292,79.616
2.6755,78.883
2.61,78.248
2.5357,77.662
2.4536,77.125
2.3636,76.685
2.2688,76.197
2.1711,75.611
2.0743,74.976
1.9804,74.292
1.8925,73.608
1.8143,72.924
1.7468,72.24
1.697,71.605
1.6598,71.068
1.6266,70.531
1.5992,70.042
1.5767,69.603
1.5582,69.31
1.5425,69.359
1.5279,70.531
1.5132,74.438
1.4985,82.547
1.4829,95.637
1.4653,112
1.4497,128.07
1.435,140.04
1.4164,146.14
1.3949,146.87
1.3724,144.38
1.349,140.67
1.3255,137.06
1.3021,134.37
1.2796,132.66
1.2571,131.63
1.2356,130.61
1.2141,129
1.1916,126.7
1.174,123.62
1.1603,120.01
1.1437,116.05
1.1251,112.05
1.1065,108.19
1.088,104.48
1.0694,100.91
1.0499,97.542
1.0274,94.22
1.0029,91.094
0.98143,88.359
0.97165,86.308
0.97947,84.989
1.0137,84.5
1.088,84.549
1.2121,84.989
1.3871,85.575
1.6022,86.112
1.8407,86.405
2.0811,86.552
2.303,86.405
2.4897,86.112
2.6344,85.673
2.7361,85.233
2.7996,84.793
2.8289,84.305
2.8358,83.719
2.8299,83.133
2.8143,82.351
2.7889,81.618
2.7537,80.788
2.7097,80.007
2.6569,79.176
2.5943,78.492
2.523,77.858
2.4438,77.369
2.3568,76.929
2.2747,76.636
2.1935,76.294
2.1026,76.05
2.0088,75.757
1.9159,75.415
1.828,74.976
1.7488,74.536
1.6804,73.999
1.6246,73.364
1.5816,72.778
1.5494,72.289
1.5259,71.801
1.5083,71.508
1.4976,71.41
1.4897,72.387
1.4809,75.611
1.4712,82.84
1.4604,94.904
1.4487,110.68
1.434,126.95
1.4174,139.69
1.3978,146.68
1.3763,148
1.3539,145.51
1.3304,141.45
1.3118,137.3
1.2962,134.13
1.2776,132.12
1.2571,131
1.2366,130.12
1.217,128.75
1.1994,126.6
1.1828,123.62
1.1672,120.01
1.1535,116
1.1417,111.95
1.132,107.99
1.1261,104.23
1.1202,100.72
1.1105,97.444
1.0958,94.171
1.0782,91.241
1.0587,88.75
1.045,86.943
1.0489,85.966
1.0841,85.819
1.1623,86.161
1.2903,86.796
1.4673,87.284
1.6823,87.626
1.8847,87.529
2.0753,87.187
2.2766,86.698
2.4594,86.063
2.608,85.477
2.7175,84.94
2.7898,84.354
2.8309,83.865
2.8485,83.23
2.8485,82.595
2.8348,81.863
2.8104,81.032
2.7791,80.251
2.741,79.469
2.695,78.737
2.6393,78.102
2.5748,77.613
2.5005,77.125
2.4184,76.734
2.3294,76.343
2.2356,76.001
2.1398,75.611
2.0459,75.22
1.958,74.878
1.8778,74.487
1.8152,74.048
1.7664,73.608
1.7234,73.168
1.6872,72.729
1.6598,72.387
1.6393,71.996
1.6237,71.605
1.61,71.41
1.5982,71.605
1.5855,73.217
1.5718,77.76
1.5562,86.747
1.5425,100.62
1.5288,117.18
1.5112,132.61
1.4917,143.31
1.4702,148
1.4477,147.7
1.4262,144.48
1.4057,140.33
1.3861,136.57
1.3675,133.88
1.3509,132.32
1.3343,131.39
1.3177,130.32
1.305,128.7
1.2942,126.26
1.2815,122.99
1.2688,119.13
1.2561,115.08
1.2434,111.07
1.2326,107.31
1.2229,103.79
1.2131,100.57
1.2014,97.346
1.1857,94.318
1.1681,91.485
1.1554,89.043
1.1525,87.382
1.1652,86.405
1.2092,86.161
1.2962,86.405
1.435,86.943
1.6207,87.431
1.8426,87.724
2.0811,87.822
2.3148,87.626
2.5239,87.236
2.696,86.747
2.826,86.161
2.9081,85.624
2.9541,85.038
2.9824,84.5
2.9932,83.914
2.9892,83.279
2.9736,82.547
2.9472,81.814
2.9101,80.984
2.8651,80.251
2.8104,79.421
2.7468,78.688
2.6735,78.004
2.6012,77.369
2.5279,76.783
2.4438,76.343
2.3529,75.904
2.259,75.562
2.1642,75.122
2.0743,74.683
1.9912,74.243
1.9189,73.803
1.8573,73.364
1.8074,72.924
1.7674,72.533
1.737,72.192
1.7146,71.801
1.6989,71.41
1.6843,70.97
1.6696,70.922
1.654,71.85
1.6373,75.22
1.6197,82.791
1.6002,95.246
1.5787,111.17
1.5572,127.14
1.5347,139.45
1.5103,146
1.4907,147.12
1.4731,144.73
1.4516,140.92
1.4272,137.11
1.4018,134.32
1.3763,132.61
1.3519,131.73
1.3372,131
1.3284,129.68
1.3148,127.53
1.3001,124.5
1.2835,120.79
1.2678,116.74
1.2571,112.63
1.2483,108.68
1.2366,105.01
1.2239,101.55
1.2102,98.323
1.1935,95.099
1.176,91.973
1.1574,89.238
1.1466,87.04
1.1535,85.624
1.1916,84.842
1.2737,84.842
1.3793,85.233
1.5152,85.819
1.7038,86.356
1.9247,86.747
2.1554,86.796
2.3744,86.601
2.564,86.112
2.7155,85.624
2.827,84.989
2.9003,84.403
2.9423,83.865
2.9609,83.23
2.9619,82.595
2.9492,81.912
2.9277,81.179
2.8983,80.446
2.8612,79.616
2.8162,78.737
2.7625,78.004
2.6989,77.223
2.6266,76.685
2.5455,76.197
2.4565,75.757
2.3617,75.366
2.2649,74.976
2.1789,74.683
2.0987,74.292
2.0156,73.901
1.9365,73.51
1.8671,72.973
1.8074,72.485
1.7595,72.045
1.7224,71.654
1.694,71.215
1.6725,70.873
1.6559,70.482
1.6413,70.238
1.6276,70.726
1.6158,73.168
1.6051,79.176
1.5904,89.922
1.5728,104.82
1.5523,120.99
1.5298,134.61
1.5073,143.02
1.4839,145.6
1.4594,144.04
1.435,140.43
1.4115,136.47
1.3891,133.25
1.3705,131.2
1.3548,130.07
1.3363,129.24
1.3167,127.97
1.2972,125.97
1.2776,123.04
1.259,119.42
1.2414,115.37
1.2258,111.17
1.2121,107.26
1.2004,103.5
1.1887,99.935
1.1808,96.467
1.173,93.243
1.1584,90.117
1.1408,87.284
1.1251,85.135
1.1212,83.67
1.1408,82.986
1.1975,82.937
1.3021,83.279
1.4565,83.816
1.652,84.305
1.8749,84.598
2.1056,84.696
2.2981,84.5
2.4555,84.11
2.6031,83.621
2.7234,83.133
2.8104,82.595
2.8671,82.107
2.8974,81.57
2.9071,80.984
2.9013,80.349
2.8827,79.762
2.8534,78.981
2.8133,78.248
2.7674,77.467
2.7155,76.783
2.654,76.099
2.5826,75.562
2.5024,75.073
2.4154,74.683
2.3236,74.292
2.2278,73.901
2.131,73.559
2.0352,73.168
1.9462,72.778
1.8651,72.387
1.7957,71.85
1.7429,71.361
1.7028,70.873
1.6676,70.384
1.6403,69.847
1.6188,69.407
1.6012,69.066
1.5855,69.066
1.5718,69.945
1.5582,72.973
1.5445,79.86
1.5288,91.534
1.5122,107.12
1.4976,123.38
1.4839,136.32
1.4673,143.55
1.4467,145.07
1.4242,142.58
1.4008,138.23
1.3763,133.74
1.3519,130.17
1.3275,127.92
1.305,126.75
1.2835,125.92
1.262,124.94
1.2424,123.18
1.2278,120.5
1.2151,117.13
1.2014,113.17
1.1877,109.07
1.175,105.06
1.1623,101.3
1.1486,97.737
1.1339,94.513
1.1173,91.436
1.0987,88.603
1.0792,86.259
1.0665,84.549
1.0665,83.67
1.089,83.621
1.1447,84.11
1.2463,84.842
1.3978,85.575
1.5924,86.063
1.8162,86.259
2.0499,86.161
2.2717,85.917
2.4653,85.575
2.6197,85.038
2.7322,84.549
2.8065,84.061
2.8436,83.572
2.8553,82.986
2.8534,82.351
2.8397,81.716
2.8162,80.984
2.784,80.153
2.7449,79.421
2.697,78.688
2.6413,78.053
2.5777,77.467
2.5044,76.929
2.4233,76.49
2.3451,76.05
2.2678,75.66
2.1808,75.366
2.0899,75.073
2.001,74.731
1.9189,74.341
1.8465,73.852
1.7849,73.217
1.7351,72.68
1.697,72.094
1.6676,71.605
1.6471,71.215
1.6325,70.873
1.6227,70.726
1.6158,71.557
1.607,74.731
1.5973,82.009
1.5855,94.123
1.5728,110.05
1.5582,126.26
1.5415,138.67
1.5239,145.16
1.5044,146.04
1.4829,143.16
1.4614,138.67
1.4438,134.37
1.4282,131.05
1.4086,129.24
1.3881,128.41
1.3685,127.87
1.35,126.95
1.3333,125.14
1.3187,122.35
1.305,118.94
1.2913,115.13
1.2786,111.12
1.2659,107.36
1.2542,103.79
1.2473,100.57
1.2414,97.444
1.2287,94.367
1.2121,91.436
1.1926,88.75
1.1779,86.601
1.1789,85.233
1.2082,84.745
1.2776,84.842
1.3969,85.379
1.564,85.966
1.7703,86.503
1.9668,86.747
2.1544,86.698
2.3558,86.356
2.5425,85.868
2.697,85.379
2.8123,84.793
2.8915,84.305
2.9404,83.816
2.9648,83.279
2.9697,82.742
2.9619,82.058
2.9423,81.374
2.913,80.544
2.8768,79.762
2.8358,78.981
2.7859,78.346
2.7273,77.76
2.6598,77.223
2.5836,76.783
2.4995,76.343
2.4086,76.001
2.3138,75.611
2.218,75.22
2.1261,74.878
2.0401,74.438
1.9697,73.901
1.9062,73.51
1.8416,72.973
1.7898,72.533
1.7478,72.094
1.7146,71.654
1.6891,71.312
1.6686,71.117
1.652,71.654
1.6354,74.194
1.6188,80.3
1.6022,91.241
1.5855,106.19
1.5709,122.35
1.5562,135.79
1.5376,143.94
1.5171,146.39
1.4936,144.63
1.4702,140.82
1.4457,136.67
1.4213,133.44
1.3969,131.49
1.3734,130.61
1.3509,130.07
1.3304,129.19
1.3148,127.48
1.3011,124.85
1.2854,121.48
1.2688,117.57
1.2522,113.42
1.2375,109.41
1.2239,105.75
1.2102,102.23
1.1965,98.909
1.1799,95.686
1.1613,92.608
1.1417,89.873
1.1281,87.626
1.1261,86.112
1.1447,85.379
1.1955,85.233
1.2913,85.575
1.437,86.112
1.6276,86.601
1.8495,86.991
2.0831,86.991
2.3079,86.747
2.5073,86.308
2.6716,85.673
2.7957,84.989
2.8739,84.354
2.9189,83.719
2.9482,83.133
2.9609,82.449
2.9589,81.814
2.9453,81.13
2.9218,80.349
2.8876,79.567
2.8426,78.786
2.7869,78.053
2.7214,77.369
2.6471,76.734
2.5738,76.246
2.4966,75.806
2.4076,75.415
2.3109,75.122
2.2121,74.731
2.1144,74.341
2.0205,73.901
1.9335,73.51
1.8573,72.973
1.7928,72.485
1.74,72.045
1.697,71.605
1.6628,71.117
1.6373,70.677
1.6197,70.384
1.6031,70.531
1.5865,72.24
1.5689,76.929
1.5513,86.161
1.5327,99.984
1.5122,116.25
1.4907,131.1
1.4682,141.31
1.4448,145.56
1.4203,144.92
1.3998,141.6
1.3812,137.45
1.3587,133.78
1.3353,131.44
1.3109,130.32
1.2874,129.73
1.2639,129.05
1.2414,127.63
1.2199,125.38
1.1994,122.26
1.1808,118.45
1.1642,114.34
1.1496,110.19
1.1408,106.24
1.1349,102.62
1.1261,99.105
1.1144,95.734
1.0978,92.56
1.0782,89.531
1.0596,86.943
1.0479,84.94
1.0567,83.67
1.0997,83.182
1.1887,83.279
1.3294,83.719
1.4858,84.305
1.6598,84.745
1.8749,84.989
2.1026,84.842
2.3196,84.5
2.5073,84.012
2.6559,83.377
2.7644,82.791
2.8358,82.253
2.8778,81.667
2.8974,81.13
2.9013,80.544
2.8915,79.86
2.871,79.127
2.8407,78.346
2.8016,77.613
2.7527,76.881
2.694,76.197
2.6246,75.611
2.5464,75.171
2.4604,74.731
2.3666,74.341
2.2678,74.048
2.1662,73.657
2.0655,73.315
1.9795,72.924
1.9042,72.485
1.8289,71.996
1.7595,71.557
1.6989,71.068
1.6491,70.531
1.609,69.994
1.5777,69.554
1.5533,69.163
1.5318,69.163
1.5132,70.384
1.4956,74.097
1.478,82.058
1.4633,94.855
1.4497,111.07
1.433,126.99
1.4145,138.81
1.3949,144.58
1.3744,144.82
1.3529,141.5
1.3294,136.91
1.306,132.61
1.2825,129.49
1.259,127.83
1.2366,127.04
1.2199,126.51
1.2072,125.43
1.1906,123.48
1.172,120.55
1.1535,116.93
1.1359,112.88
1.1183,108.82
1.1017,104.87
1.087,101.3
1.0743,97.884
1.0606,94.66
1.044,91.68
1.0244,88.847
1.0098,86.552
1.002,84.94
