0.39198,64.537
0.38807,69.035
0.38416,75.88
0.37928,85.072
0.37634,94.85
0.37341,104.43
0.3695,113.23
0.36461,120.67
0.3607,126.92
0.35582,131.42
0.35191,134.35
0.348,135.92
0.34311,136.31
0.3392,135.72
0.33529,134.55
0.33138,132.79
0.32845,130.83
0.32551,128.68
0.3216,126.14
0.31769,123.4
0.31378,120.47
0.30987,117.34
0.30499,113.82
0.30108,110.1
0.29717,106
0.29228,101.69
0.28641,97.393
0.28152,93.481
0.27761,89.765
0.27468,86.636
0.27175,84.094
0.27077,81.943
0.27175,80.378
0.27859,79.205
0.29326,78.422
0.31476,77.836
0.34604,77.445
0.38416,77.249
0.42815,77.054
0.4741,77.054
0.52102,76.858
0.55914,76.858
0.59238,76.662
0.62463,76.662
0.65298,76.467
0.67644,76.076
0.69501,75.88
0.70772,75.293
0.71652,74.902
0.72043,74.511
0.72043,73.924
0.71652,73.338
0.70772,72.751
0.69795,72.164
0.68915,71.773
0.67644,70.991
0.6608,70.6
0.64321,70.013
0.62366,69.426
0.60215,69.035
0.57967,68.449
0.55718,67.862
0.53372,67.275
0.51124,66.688
0.48974,66.297
0.47019,65.711
0.45455,65.124
0.44086,64.537
0.42815,64.146
0.41544,63.364
0.40567,62.973
0.39589,62.386
0.38807,61.995
0.38123,61.408
0.37537,61.017
0.3695,60.626
0.36461,60.235
0.3607,60.235
0.35679,60.43
0.35484,61.408
0.35093,64.146
0.348,68.84
0.34409,76.076
0.34018,85.267
0.33627,95.046
0.33236,104.63
0.32747,113.23
0.32356,120.86
0.31965,126.73
0.31574,131.03
0.31281,133.57
0.30987,134.94
0.30792,135.14
0.30401,134.35
0.30108,132.79
0.29814,130.83
0.29423,128.68
0.29032,126.14
0.28641,123.4
0.28348,120.47
0.27957,117.14
0.27566,113.82
0.27273,110.1
0.26979,106
0.26882,101.89
0.26588,97.588
0.26295,93.286
0.26002,89.57
0.25611,86.05
0.2522,83.312
0.25024,81.16
0.24927,79.4
0.2522,78.227
0.26197,77.249
0.27859,76.662
0.30401,76.271
0.33236,76.076
0.36461,75.88
0.40567,75.88
0.45161,75.685
0.49853,75.685
0.54448,75.685
0.58553,75.489
0.6217,75.293
0.652,75.098
0.67546,74.902
0.69306,74.511
0.70479,74.316
0.71065,73.729
0.71163,73.338
0.71065,72.751
0.70674,72.164
0.6999,71.578
0.69013,70.991
0.67742,70.6
0.66178,70.013
0.64418,69.426
0.62463,69.035
0.60313,68.449
0.58065,68.057
0.55718,67.471
0.53568,67.08
0.51613,66.493
0.4956,65.906
0.47605,65.515
0.4565,64.928
0.43988,64.342
0.42522,63.755
0.41153,63.364
0.40078,62.777
0.39101,62.19
0.38319,61.799
0.37537,61.213
0.37048,60.821
0.36657,60.235
0.36168,59.844
0.35777,59.648
0.35386,59.844
0.34995,60.235
0.34604,61.799
0.34311,64.928
0.3392,70.209
0.33529,77.836
0.33138,86.832
0.32845,96.024
0.32454,104.82
0.3216,112.84
0.31867,119.49
0.31574,124.77
0.31281,128.29
0.3089,130.44
0.30596,131.42
0.30205,131.42
0.29814,130.25
0.29521,128.68
0.2913,126.53
0.28837,124.19
0.28543,121.64
0.2825,118.71
0.28055,115.58
0.27761,112.06
0.27468,108.34
0.27175,104.24
0.26882,100.13
0.26491,95.632
0.26197,91.33
0.25904,87.419
0.25611,84.289
0.25318,81.356
0.25024,79.205
0.24829,77.64
0.24927,76.271
0.25415,75.489
0.26295,74.902
0.27957,74.511
0.30499,74.511
0.33724,74.511
0.37732,74.316
0.42131,74.316
0.46823,74.511
0.51417,74.511
0.55718,74.511
0.59531,74.316
0.62463,74.316
0.64614,74.12
0.66569,73.729
0.68133,73.338
0.69306,72.947
0.6999,72.555
0.70186,71.969
0.6999,71.382
0.69501,70.795
0.68622,70.404
0.67449,69.818
0.65982,69.231
0.64223,68.84
0.62463,68.253
0.60606,67.666
0.58553,67.275
0.56305,66.688
0.53959,66.297
0.51613,65.711
0.49365,65.319
0.47312,64.733
0.45357,64.146
0.43597,63.559
0.42131,62.973
0.4086,62.582
0.39785,61.995
0.39003,61.604
0.38319,61.017
0.37634,60.43
0.37048,60.039
0.36559,59.648
0.36168,59.061
0.35777,58.866
0.35386,58.866
0.35093,59.257
0.34702,60.235
0.34409,62.973
0.34115,67.666
0.33822,74.902
0.33627,83.898
0.33333,93.286
0.3304,102.48
0.32649,110.69
0.32356,118.12
0.31965,123.99
0.31672,128.29
0.31281,130.83
0.3089,132.2
0.30596,132.4
0.30205,131.62
0.3001,130.05
0.29814,128.1
0.29521,125.75
0.29228,123.4
0.28935,120.67
0.28641,117.73
0.2825,114.6
0.27957,111.08
0.27566,107.17
0.27273,103.06
0.26979,98.761
0.26588,94.459
0.26393,90.352
0.26197,86.636
0.25904,83.507
0.25611,80.965
0.25318,79.009
0.2522,77.445
0.25513,76.467
0.26295,75.685
0.27859,75.293
0.30303,75.098
0.33529,74.902
0.37439,74.902
0.42033,75.098
0.46139,75.098
0.50049,75.098
0.54252,75.098
0.58847,75.098
0.63245,75.098
0.66862,74.902
0.69697,74.707
0.7175,74.511
0.73118,74.12
0.73998,73.729
0.74389,73.338
0.74291,72.751
0.73803,72.164
0.73118,71.578
0.72043,70.991
0.70772,70.404
0.69208,70.013
0.67351,69.426
0.652,69.035
0.62952,68.449
0.60508,68.057
0.57967,67.471
0.55523,67.08
0.53079,66.493
0.50831,66.102
0.48876,65.711
0.47214,65.124
0.4565,64.733
0.44184,64.342
0.42815,63.755
0.41544,63.364
0.40469,62.973
0.39785,62.386
0.39198,61.995
0.38514,61.604
0.38025,61.213
0.37634,60.821
0.37439,60.821
0.37146,61.017
0.36852,62.19
0.36559,64.537
0.36266,69.231
0.35973,76.467
0.35582,85.267
0.35288,94.85
0.34897,104.04
0.34506,112.45
0.34213,119.88
0.33822,126.14
0.33431,130.44
0.33138,133.18
0.32942,134.75
0.32649,134.94
0.32356,134.16
0.31965,132.79
0.31672,130.83
0.31378,128.68
0.31085,126.34
0.30792,123.99
0.30499,121.25
0.30205,118.32
0.29912,114.99
0.29717,111.47
0.29619,107.56
0.29423,103.65
0.2913,99.348
0.28935,95.241
0.28641,91.33
0.28348,88.005
0.28055,85.267
0.27859,83.116
0.27859,81.356
0.2825,80.183
0.2913,79.205
0.3089,78.618
0.32942,78.422
0.35582,78.227
0.39198,78.227
0.43597,78.227
0.48387,78.227
0.53275,78.227
0.58065,78.227
0.63245,78.227
0.67449,78.031
0.70088,77.836
0.72336,77.445
0.74194,77.054
0.75269,76.467
0.75855,75.88
0.76051,75.293
0.76051,74.511
0.75562,73.729
0.74878,73.142
0.73803,72.555
0.72532,71.969
0.71457,71.382
0.69892,70.795
0.67449,70.209
0.65005,69.622
0.63245,69.231
0.6129,68.644
0.58847,68.253
0.565,67.666
0.54741,67.275
0.52493,66.688
0.50049,66.102
0.48192,65.515
0.46725,64.928
0.4565,64.342
0.4477,63.755
0.43793,63.168
0.43109,62.777
0.4262,62.19
0.42229,61.604
0.41642,61.213
0.41153,60.821
0.4086,60.626
0.40469,61.017
0.40078,61.995
0.39687,64.733
0.39296,69.818
0.38807,77.445
0.38319,86.832
0.3783,96.806
0.37439,106.39
0.37146,115.19
0.36657,122.82
0.36266,128.88
0.35777,133.18
0.35386,135.92
0.34897,137.09
0.34506,137.29
0.34018,136.31
0.33627,134.75
0.33138,132.79
0.32747,130.64
0.32454,128.29
0.3216,125.55
0.31769,122.62
0.31378,119.69
0.30987,116.36
0.30499,112.84
0.30108,108.93
0.29619,105.02
0.29326,100.72
0.28935,96.415
0.28348,92.308
0.27859,88.983
0.27468,85.854
0.2737,83.312
0.27566,81.356
0.2825,79.987
0.29619,78.814
0.31867,78.031
0.34995,77.64
0.39003,77.249
0.435,77.054
0.48387,77.054
0.53372,77.054
0.58065,76.858
0.62268,76.858
0.65494,76.662
0.67937,76.662
0.70088,76.271
0.71945,76.076
0.73216,75.685
0.73998,75.293
0.74291,74.707
0.74194,74.12
0.73803,73.533
0.73021,72.947
0.72043,72.164
0.70772,71.578
0.69208,70.991
0.67546,70.404
0.65885,69.818
0.6393,69.426
0.61681,68.84
0.59335,68.449
0.56891,67.862
0.54545,67.471
0.52199,66.884
0.49951,66.297
0.47898,65.906
0.46041,65.319
0.44379,64.537
0.43109,64.146
0.42033,63.559
0.41056,62.973
0.40176,62.386
0.39394,61.799
0.38612,61.408
0.38025,61.017
0.37537,60.43
0.37048,60.039
0.36559,59.844
0.36168,59.648
0.35679,60.039
0.35386,61.408
0.35093,64.342
0.348,69.622
0.34409,77.249
0.34018,86.636
0.33529,96.61
0.33138,106
0.32649,114.41
0.32258,121.64
0.31867,127.31
0.31378,131.23
0.30987,133.38
0.30596,134.55
0.30303,134.35
0.30108,133.38
0.29814,131.62
0.29423,129.47
0.2913,127.12
0.28739,124.58
0.28348,121.84
0.27957,118.9
0.27664,115.58
0.27273,112.06
0.26979,108.34
0.26588,104.24
0.26295,100.13
0.261,95.828
0.25806,91.721
0.25513,88.005
0.25122,84.876
0.24829,82.334
0.24829,80.183
0.25122,78.618
0.26002,77.445
0.27664,76.662
0.30205,76.076
0.33627,75.88
0.37928,75.489
0.42033,75.489
0.46041,75.293
0.50635,75.293
0.5523,75.098
0.59531,75.098
0.63343,74.902
0.66471,74.707
0.68915,74.511
0.70772,74.316
0.72043,73.924
0.72727,73.533
0.72923,73.142
0.72727,72.555
0.72239,71.969
0.71554,71.382
0.70479,70.795
0.6911,70.209
0.67546,69.622
0.65787,69.035
0.63734,68.644
0.61486,68.057
0.5914,67.471
0.56598,67.08
0.53959,66.688
0.51515,66.102
0.4956,65.711
0.47801,65.124
0.46041,64.537
0.44379,63.95
0.42913,63.364
0.41642,62.973
0.40469,62.386
0.39492,61.799
0.3871,61.408
0.37928,60.821
0.37341,60.235
0.36852,59.844
0.36364,59.257
0.3607,59.061
0.35777,58.866
0.35386,58.866
0.34995,59.257
0.34702,60.626
0.34311,63.755
0.3392,69.035
0.33529,76.467
0.33236,85.463
0.32845,94.655
0.32454,103.46
0.32063,111.67
0.31769,118.32
0.31574,123.79
0.31281,127.51
0.3089,129.86
0.30596,130.83
0.30205,130.64
0.29912,129.66
0.29521,127.9
0.29228,125.75
0.28935,123.21
0.28543,120.47
0.2825,117.73
0.27957,114.41
0.27859,111.08
0.27566,107.17
0.27273,103.26
0.26979,98.957
0.26686,94.655
0.26295,90.352
0.26002,86.636
0.25709,83.507
0.25318,80.769
0.25122,78.618
0.25122,77.054
0.25513,75.88
0.26295,74.902
0.27664,74.511
0.29814,74.12
0.32747,73.924
0.36559,73.729
0.4086,73.729
0.45455,73.729
0.50244,73.729
0.54741,73.729
0.58749,73.729
0.62268,73.533
0.652,73.533
0.67253,73.338
0.68622,72.947
0.69697,72.751
0.70381,72.36
0.70674,71.773
0.70577,71.382
0.70088,70.795
0.69306,70.209
0.68133,69.622
0.66764,69.035
0.65103,68.449
0.63148,68.057
0.61095,67.471
0.59042,67.08
0.57087,66.493
0.54936,65.906
0.52786,65.515
0.50538,64.928
0.48485,64.537
0.4653,63.95
0.44868,63.559
0.43304,62.973
0.41935,62.582
0.40762,61.995
0.39785,61.408
0.39101,61.017
0.38514,60.43
0.37928,60.039
0.37439,59.452
0.3695,59.061
0.36559,58.67
0.36168,58.279
0.35875,58.279
0.35484,58.475
0.35191,59.257
0.34897,61.408
0.34604,65.711
0.34213,72.164
0.34018,80.574
0.33822,89.765
0.33529,98.761
0.33138,107.17
0.32747,114.41
0.32454,120.47
0.32063,124.97
0.31769,127.9
0.31378,129.47
0.31085,130.05
0.30694,129.27
0.30401,127.9
0.30108,125.95
0.29912,123.79
0.29619,121.06
0.29326,118.32
0.29032,115.38
0.28739,112.06
0.28348,108.54
0.28055,104.43
0.27761,100.33
0.27468,96.024
0.27077,91.721
0.26784,87.81
0.26491,84.289
0.26197,81.552
0.261,79.205
0.25904,77.249
0.26002,75.88
0.26491,74.902
0.27664,74.12
0.29521,73.729
0.32258,73.533
0.35777,73.338
0.3998,73.338
0.44575,73.338
0.49365,73.338
0.53372,73.338
0.56891,73.338
0.60411,73.338
0.63539,73.338
0.66276,73.338
0.68426,73.142
0.6999,72.751
0.70968,72.555
0.71457,72.164
0.71554,71.578
0.71261,71.186
0.70577,70.6
0.69599,70.013
0.68426,69.622
0.67058,69.035
0.65396,68.449
0.63441,68.057
0.6129,67.471
0.59042,67.08
0.56696,66.688
0.5435,66.102
0.52004,65.711
0.49853,65.319
0.47801,64.733
0.46041,64.342
0.44477,63.755
0.43304,63.364
0.42131,62.777
0.41056,62.386
0.40176,61.799
0.39296,61.408
0.38612,61.017
0.38025,60.43
0.37537,60.039
0.37146,59.844
0.36755,59.452
0.36364,59.257
0.36168,59.452
0.35973,60.235
0.35679,62.19
0.35386,65.906
0.35093,72.164
0.348,80.574
0.34409,90.157
0.34115,99.544
0.33724,108.15
0.33431,115.97
0.3304,122.43
0.32747,127.12
0.32356,130.44
0.3216,132.2
0.31965,132.79
0.31672,132.2
0.31378,130.83
0.31085,128.88
0.30792,126.92
0.30499,124.38
0.30205,121.84
0.29912,119.1
0.29619,116.17
0.29326,112.65
0.29032,109.13
0.28837,105.22
0.28739,101.11
0.28543,96.806
0.2825,92.699
0.27957,88.983
0.27664,85.854
0.2737,83.312
0.27273,81.16
0.2737,79.596
0.27859,78.422
0.29032,77.64
0.3089,77.249
0.33724,76.858
0.36657,76.858
0.3998,76.858
0.44184,77.054
0.48778,77.054
0.5347,77.249
0.57967,77.249
0.61975,77.054
0.65494,77.054
0.68328,76.858
0.70577,76.662
0.72141,76.271
0.73216,75.88
0.73705,75.293
0.73803,74.707
0.73607,74.12
0.73118,73.533
0.72336,72.947
0.71261,72.36
0.6999,71.969
0.68328,71.382
0.66569,70.795
0.64516,70.404
0.62366,69.818
0.60117,69.426
0.57869,68.84
0.55816,68.253
0.54057,67.862
0.52102,67.275
0.50342,66.688
0.4868,66.102
0.47214,65.515
0.45943,64.928
0.44868,64.342
0.43988,63.755
0.43206,62.973
0.4262,62.386
0.42033,61.799
0.41642,61.408
0.41349,61.017
0.40958,60.626
0.40665,60.43
0.40371,60.626
0.40176,61.408
0.39883,63.95
0.39492,68.449
0.39198,75.489
0.38807,84.485
0.38416,94.459
0.38025,104.04
0.37634,112.84
0.37341,120.67
0.37146,126.92
0.36755,131.42
0.36461,134.16
0.3607,135.53
0.35679,135.92
0.35386,135.14
0.34995,133.77
0.34604,131.81
0.34213,129.66
0.3392,127.31
0.33529,124.77
0.33236,122.03
0.32942,119.1
0.32649,115.78
0.32258,112.26
0.31965,108.34
0.31574,104.24
0.31183,99.935
0.30792,95.828
0.30401,91.917
0.29912,88.396
0.29619,85.463
0.29423,83.116
0.29521,81.16
0.3001,79.791
0.3089,78.618
0.32649,78.031
0.35191,77.64
0.38612,77.249
0.42717,77.249
0.47214,77.054
0.51906,77.054
0.565,77.054
0.60704,76.858
0.64418,76.858
0.67546,76.662
0.69697,76.467
0.71163,76.076
0.72434,75.685
0.73216,75.293
0.73705,74.707
0.73705,74.12
0.73412,73.533
0.72825,72.947
0.71945,72.36
0.70772,71.773
0.69404,71.186
0.67742,70.6
0.65885,70.013
0.64027,69.622
0.6217,69.035
0.6002,68.449
0.57771,68.057
0.55425,67.471
0.53177,66.884
0.51026,66.297
0.48974,65.906
0.47116,65.319
0.45552,64.733
0.44086,64.146
0.42913,63.559
0.41935,62.973
0.41153,62.582
0.40469,61.995
0.39785,61.408
0.39198,61.017
0.3871,60.626
0.38221,60.235
0.37732,59.844
0.37243,60.039
0.36852,60.626
0.36461,62.386
0.3607,65.906
0.35679,72.164
0.35288,80.574
0.34995,90.352
0.34702,100.13
0.34213,109.32
0.33822,117.54
0.33333,124.38
0.32942,129.47
0.32551,132.99
0.3216,134.75
0.31769,135.33
0.31378,134.94
0.30987,133.77
0.30792,132.01
0.30596,130.05
0.30303,127.51
0.3001,124.97
0.29619,122.23
0.29228,119.1
0.28935,115.78
0.28543,112.06
0.28152,108.15
0.27859,104.04
0.27468,99.739
0.27175,95.437
0.26784,91.525
0.26588,88.005
0.26393,84.876
0.26197,82.529
0.26197,80.574
0.26491,79.009
0.2737,78.031
0.28935,77.054
0.31476,76.662
0.348,76.271
0.38905,76.076
0.435,76.076
0.48387,75.88
0.5259,75.88
0.56207,75.88
0.59922,75.685
0.63343,75.489
0.66276,75.293
0.68622,75.098
0.70283,74.902
0.71457,74.316
0.72141,73.924
0.72434,73.533
0.72239,72.947
0.7175,72.36
0.70968,71.773
0.6999,71.186
0.68719,70.6
0.67155,70.013
0.65396,69.426
0.63441,69.035
0.6129,68.449
0.59042,68.057
0.56794,67.471
0.54448,67.08
0.52199,66.493
0.49951,65.906
0.47996,65.515
0.46334,64.928
0.44868,64.342
0.43597,63.755
0.42326,63.364
0.41153,62.777
0.40176,62.19
0.39394,61.799
0.38612,61.213
0.38025,60.821
0.37439,60.235
0.3695,59.844
0.36559,59.648
0.36266,59.452
0.35973,59.844
0.35679,60.626
0.35288,62.973
0.34897,67.275
0.34506,73.924
0.34115,82.529
0.33724,91.917
0.33333,101.11
0.32942,109.32
0.32551,116.75
0.3216,122.62
0.31769,127.12
0.31574,129.86
0.31281,131.23
0.30987,131.42
0.30694,130.64
0.30303,129.07
0.3001,127.12
0.29717,124.77
0.29326,122.23
0.29032,119.3
0.28641,116.17
0.28348,112.84
0.28055,109.32
0.27859,105.41
0.27664,101.11
0.27468,96.806
0.27175,92.503
0.26784,88.592
0.26491,85.267
0.261,82.334
0.25806,79.987
0.25611,78.227
0.25709,76.858
0.26295,76.076
0.27566,75.293
0.29619,74.902
0.31965,74.707
0.34702,74.707
0.38514,74.707
0.42815,74.511
0.4741,74.511
0.52004,74.511
0.56305,74.511
0.60215,74.316
0.63539,74.316
0.66178,74.12
0.68231,73.729
0.69697,73.533
0.70479,73.142
0.70772,72.555
0.70772,72.164
0.70479,71.578
0.69892,70.991
0.68915,70.6
0.67742,70.013
0.66276,69.426
0.64516,68.84
0.62561,68.449
0.60411,67.862
0.58162,67.471
0.55816,66.884
0.53763,66.297
0.51906,65.906
0.49853,65.319
0.47996,64.733
0.46139,64.342
0.44477,63.755
0.43109,63.168
0.41838,62.582
0.40762,62.19
0.39785,61.604
0.39101,61.213
0.38416,60.626
0.37928,60.235
0.37537,59.648
0.37243,59.257
0.36852,58.866
0.36559,58.866
0.36168,59.061
0.35875,59.844
0.35484,61.604
0.35191,65.319
0.348,71.382
0.34506,79.791
0.34115,88.983
0.33822,98.37
0.33529,107.17
0.33236,114.8
0.32942,121.25
0.32649,126.14
0.32258,129.27
0.31965,131.03
0.31574,131.62
0.31281,131.03
0.3089,129.86
0.30596,127.9
0.30108,125.55
0.29717,123.21
0.29423,120.47
0.29228,117.54
0.28935,114.21
0.28641,110.69
0.2825,106.78
0.27957,102.67
0.27664,98.175
0.27273,93.872
0.26979,89.765
0.26588,86.05
0.26197,82.921
0.25904,80.574
0.25709,78.422
0.25709,76.858
0.261,75.88
0.26979,75.098
0.28543,74.707
0.30987,74.511
0.34213,74.316
0.38221,74.316
0.42815,74.316
0.47605,74.316
0.52395,74.511
0.56989,74.511
0.61095,74.316
0.64223,74.316
0.66569,74.12
0.68719,73.924
0.70479,73.533
0.71652,73.142
0.72336,72.751
0.7263,72.36
0.72532,71.773
0.72043,71.186
0.71163,70.6
0.6999,70.013
0.68524,69.622
0.66764,69.035
0.65005,68.449
0.6305,67.862
0.60899,67.275
0.58553,66.884
0.56207,66.297
0.53861,65.906
0.51515,65.319
0.49365,64.733
0.47312,64.342
0.45552,63.755
0.43988,63.168
0.4262,62.777
0.41544,62.19
0.40762,61.799
0.3998,61.408
0.39296,60.821
0.38612,60.43
0.38123,59.844
0.37634,59.452
0.37146,59.257
0.36755,59.257
0.36364,59.452
0.3607,60.235
0.35679,62.19
0.35386,66.102
0.35093,72.36
0.34897,80.769
0.34506,90.157
0.34213,99.348
0.33822,107.95
0.33431,115.78
0.3304,122.23
0.32649,126.92
0.32258,130.05
0.31867,131.62
0.31476,132.01
0.31085,131.62
0.30792,130.25
0.30596,128.49
0.30303,126.34
0.29912,123.79
0.29619,121.06
0.29228,118.12
0.28935,114.8
0.28543,111.28
0.2825,107.37
0.27957,103.26
0.27664,98.957
0.27273,94.85
0.26979,90.743
0.26784,87.419
0.26588,84.289
0.26295,81.943
0.261,79.987
0.261,78.422
0.26491,77.445
0.27468,76.858
0.2913,76.467
0.31672,76.271
0.35093,76.271
0.39198,76.271
0.43793,76.467
0.47996,76.467
0.51808,76.662
0.56012,76.662
0.6002,76.662
0.63636,76.467
0.66667,76.467
0.6911,76.271
0.7087,75.88
0.72141,75.489
0.72923,75.098
0.73216,74.707
0.73021,74.12
0.72532,73.533
0.7175,72.947
0.70674,72.36
0.69306,71.773
0.67644,71.186
0.65787,70.795
0.63734,70.209
0.61486,69.818
0.5914,69.426
0.56794,68.84
0.54448,68.449
0.52297,67.862
0.50244,67.275
0.48485,66.884
0.47116,66.297
0.4565,65.906
0.44379,65.319
0.43304,64.733
0.42326,64.342
0.41544,63.755
0.4086,63.364
0.40274,62.973
0.39883,62.386
0.39492,61.995
0.39101,61.799
0.38807,61.799
0.38612,62.386
0.38416,63.755
0.38123,66.884
0.3783,72.36
0.37537,80.378
0.37243,89.765
0.3695,99.544
0.36559,108.93
0.36266,117.54
0.35875,124.97
0.35582,130.64
0.35288,134.55
0.34995,136.9
0.348,137.68
0.34604,137.48
0.34311,136.51
0.34018,134.75
0.33724,132.59
0.33431,130.44
0.33138,127.9
0.32845,125.36
0.32551,122.43
0.32258,119.1
0.31965,115.58
0.31769,111.86
0.31574,107.95
0.31378,103.85
0.31085,99.544
0.3089,95.241
0.30499,91.525
0.30205,88.396
0.3001,85.854
0.29912,83.703
0.30205,82.138
0.30987,80.965
0.32454,79.987
0.34702,79.596
0.37341,79.205
0.40274,79.009
0.44282,79.009
0.48778,78.814
0.5347,78.814
0.58162,78.814
0.62463,78.618
0.66178,78.422
0.69404,78.227
0.71945,77.836
0.73803,77.445
0.75171,76.858
0.75855,76.467
0.76149,75.685
0.76051,75.098
0.75758,74.511
0.75171,73.924
0.74194,73.338
0.73118,72.751
0.71652,72.164
0.6999,71.578
0.68035,70.991
0.65982,70.6
0.63734,70.013
0.61388,69.426
0.59335,69.035
0.5738,68.449
0.5523,67.862
0.53177,67.275
0.51222,66.688
0.49462,66.102
0.47898,65.515
0.46432,64.928
0.45161,64.342
0.44086,63.755
0.43206,63.364
0.42326,62.777
0.4174,62.386
0.41251,61.799
0.40665,61.408
0.40176,61.213
0.39589,61.213
0.39101,61.799
0.38612,63.755
0.38123,67.471
0.37634,73.533
0.37146,82.138
0.36657,91.917
0.36168,101.89
0.35679,111.28
0.35288,119.49
0.34897,126.53
0.34506,131.62
0.34018,134.94
0.33627,136.7
0.33138,137.29
0.32747,136.9
0.32356,135.72
0.31867,133.96
0.31476,131.81
0.31085,129.47
0.30694,126.92
0.30401,124.19
0.30108,121.25
0.29814,117.93
0.29423,114.41
0.29032,110.5
0.28641,106.19
0.28348,101.89
0.27957,97.393
0.27566,93.286
0.27077,89.57
0.26686,86.441
0.26393,83.898
0.26295,81.943
0.26588,80.183
0.27273,79.205
0.28641,78.227
0.30792,77.836
0.33627,77.64
0.37146,77.445
0.41349,77.249
0.45846,77.249
0.50538,77.249
0.54936,77.249
0.59042,77.054
0.62463,77.054
0.65005,76.858
0.66764,76.662
0.68328,76.271
0.69599,75.88
0.70381,75.489
0.70674,74.902
0.70674,74.316
0.70381,73.729
0.69697,73.142
0.68817,72.555
0.67644,71.969
0.66178,71.382
0.64418,70.795
0.62659,70.209
0.60899,69.622
0.58847,69.035
0.56696,68.644
0.54448,68.057
0.52199,67.471
0.49951,66.884
0.47898,66.297
0.46041,65.711
0.44282,65.124
0.42815,64.537
0.41544,64.146
0.40567,63.559
0.39687,62.973
0.39003,62.582
0.38319,61.995
0.37634,61.604
0.37146,61.213
0.36657,60.821
0.36266,60.626
0.35777,60.626
0.35386,61.213
0.34995,62.777
0.34702,65.906
0.34311,71.382
0.34018,79.4
0.33724,88.788
0.33431,98.37
0.3304,107.76
0.32649,115.97
0.32258,123.01
0.31867,128.49
0.31476,132.01
0.31085,134.16
0.30694,134.94
0.30303,134.75
0.3001,133.57
0.29717,131.81
0.29521,129.66
0.29228,127.12
0.28935,124.58
0.28543,121.64
0.2825,118.51
0.27859,114.99
0.27566,111.47
0.27175,107.37
0.26882,103.06
0.26588,98.566
0.26197,94.263
0.25904,90.352
0.25709,87.027
0.25513,84.094
0.25318,81.747
0.25122,79.987
0.25318,78.618
0.25904,77.64
0.27175,77.054
0.29228,76.662
0.3216,76.467
0.35875,76.271
0.40078,76.271
0.44673,76.271
0.48778,76.271
0.52493,76.076
0.56305,76.076
0.59824,75.88
0.62952,75.88
0.65494,75.489
0.67449,75.293
0.68817,74.902
0.69697,74.511
0.70088,73.924
0.70088,73.533
0.69795,72.947
0.6911,72.164
0.68231,71.773
0.67058,71.186
0.65689,70.6
0.64027,70.013
0.62072,69.622
0.6002,69.035
0.57771,68.449
0.55523,68.057
0.53177,67.471
0.50929,66.884
0.48876,66.297
0.46921,65.711
0.45259,65.124
0.43988,64.537
0.4262,64.146
0.41447,63.559
0.40371,62.973
0.39394,62.582
0.38612,61.995
0.37928,61.604
0.37341,61.017
0.36755,60.626
0.36364,60.235
0.35973,60.039
0.35679,60.039
0.35386,60.626
0.35093,61.995
0.348,64.928
0.34506,70.209
0.34115,77.64
0.33724,86.636
0.33431,96.024
0.3304,105.02
0.32649,113.23
0.32258,120.27
0.31867,125.55
0.31574,129.47
0.31281,131.62
0.31085,132.59
0.30792,132.4
0.30401,131.42
0.30108,129.66
0.29814,127.31
0.29423,124.97
0.2913,122.23
0.28739,119.3
0.28446,116.17
0.28055,112.45
0.27761,108.74
0.27566,104.43
0.2737,100.13
0.27077,95.632
0.26882,91.33
0.26491,87.419
0.26197,84.289
0.25904,81.552
0.25611,79.4
0.25415,77.836
0.25611,76.662
0.26197,75.88
0.27468,75.489
0.29521,75.098
0.31867,75.098
0.34702,75.098
0.38416,75.098
0.4262,75.098
0.47214,75.293
0.51711,75.293
0.55914,75.098
0.59629,75.098
0.62854,75.098
0.65396,74.707
0.67351,74.511
0.68719,74.12
0.69501,73.533
0.69795,73.142
0.69795,72.751
0.69501,72.164
0.68915,71.578
0.68035,70.991
0.66764,70.404
0.65298,69.818
0.63539,69.231
0.61486,68.84
0.59335,68.253
0.57087,67.666
0.54741,67.275
0.52688,66.688
0.50831,66.102
0.48876,65.515
0.46921,64.928
0.45161,64.537
0.43597,63.95
0.42229,63.364
0.40958,62.777
0.3998,62.386
0.39101,61.799
0.38416,61.408
0.3783,60.821
0.37341,60.43
0.3695,59.844
0.36657,59.648
0.36266,59.452
0.35973,59.452
0.35679,59.844
0.35288,61.408
0.34995,64.537
0.34702,70.209
0.34311,78.031
0.34018,87.223
0.33627,96.806
0.33236,106
0.32942,114.21
0.32747,121.25
0.32454,126.92
0.32063,130.64
0.31769,132.99
0.31378,133.77
0.30987,133.57
0.30694,132.4
0.30303,130.64
0.3001,128.49
0.29619,126.14
0.29326,123.4
0.29032,120.67
0.28837,117.34
0.28543,113.82
0.2825,110.1
0.27957,106
0.27566,101.69
0.27273,97.393
0.26979,93.09
0.26588,89.179
0.26295,85.854
0.25904,83.116
0.25611,80.965
0.25513,79.205
0.25709,78.031
0.26197,77.249
0.27273,76.662
0.2913,76.467
0.31867,76.271
0.35386,76.271
0.39492,76.271
0.43988,76.467
0.48778,76.467
0.53372,76.467
0.57576,76.467
0.61388,76.467
0.64223,76.271
0.66276,76.271
0.68133,75.88
0.69599,75.685
0.70577,75.098
0.71163,74.707
0.71359,74.12
0.71065,73.533
0.70479,72.947
0.69501,72.555
0.68328,71.969
0.67449,71.382
0.66667,70.795
0.65298,70.404
0.63636,69.818
0.61486,69.426
0.59238,69.035
0.56794,68.449
0.5435,68.057
0.52102,67.471
0.49951,67.08
0.47996,66.493
0.46237,65.906
0.44673,65.515
0.43402,64.928
0.42424,64.537
0.41642,63.95
0.4086,63.559
0.40274,62.973
0.39687,62.582
0.39101,62.19
0.3871,61.799
0.38319,61.799
0.37928,61.995
0.37634,62.973
0.37243,65.124
0.3695,69.622
0.36657,76.467
0.36364,85.463
0.36168,95.046
0.35875,104.63
0.35582,113.43
0.35191,121.06
0.348,127.51
0.34409,132.01
0.34115,134.94
0.33724,136.51
0.33431,136.9
0.33138,136.11
0.32845,134.75
0.32551,132.79
0.32454,130.44
0.3216,128.1
0.31867,125.55
0.31574,122.82
0.31281,119.69
0.30987,116.36
0.30792,112.65
0.30499,108.74
0.30205,104.43
0.29912,100.13
0.29619,96.024
0.29423,92.112
0.29326,88.788
0.29032,85.854
0.28935,83.703
0.28935,81.943
0.29228,80.769
0.30205,79.791
0.31867,79.4
0.34409,79.205
0.3783,79.009
0.42033,79.009
0.46725,79.009
0.51613,79.205
0.55914,79.205
0.59629,79.009
0.63539,78.814
0.67155,78.618
0.70186,78.227
0.72727,77.836
0.74682,77.249
0.76051,76.662
0.76833,76.076
0.77224,75.489
0.77126,74.902
0.76735,74.12
0.75953,73.533
0.74976,72.947
0.73705,72.36
0.72239,71.773
0.70381,71.382
0.68426,70.795
0.66276,70.404
0.6393,69.818
0.61486,69.231
0.5914,68.644
0.56794,68.057
0.54545,67.471
0.52493,66.884
0.50831,66.297
0.49462,65.906
0.48094,65.124
0.46823,64.537
0.45748,63.95
0.44868,63.364
0.44086,62.973
0.43402,62.386
0.42815,61.995
0.42229,61.604
0.4174,61.213
0.41349,61.213
0.40958,61.604
0.40567,62.973
0.40176,66.102
0.39687,71.773
0.39296,79.987
0.38807,89.765
0.38319,99.935
0.3783,109.71
0.37341,118.51
0.36755,125.95
0.36266,131.62
0.35777,135.53
0.35288,137.87
0.34897,138.85
0.34506,138.66
0.34115,137.48
0.33724,135.53
0.33236,133.38
0.32747,131.03
0.32356,128.49
0.31867,125.75
0.31378,122.82
0.3089,119.69
0.30401,116.36
0.3001,112.65
0.29717,108.54
0.29423,104.24
0.2913,99.935
0.28739,95.632
0.2825,91.721
0.27761,88.201
0.2737,85.463
0.27077,83.116
0.27077,81.356
0.27566,79.987
0.28837,79.009
0.3089,78.422
0.3392,78.031
0.37243,77.836
0.40762,77.64
0.45259,77.64
0.50049,77.64
0.54936,77.64
0.59531,77.445
0.63636,77.445
0.67155,77.249
0.69892,77.054
0.72043,76.662
0.73607,76.271
0.74585,75.685
0.74976,75.293
0.74878,74.707
0.74585,74.12
0.73998,73.533
0.73216,72.947
0.72043,72.164
0.70674,71.578
0.69013,70.991
0.67155,70.404
0.65005,69.818
0.62757,69.426
0.60411,68.84
0.57967,68.253
0.55718,67.862
0.53666,67.275
0.51613,66.688
0.49462,66.102
0.47507,65.515
0.45748,64.928
0.44184,64.342
0.42913,63.755
0.4174,63.168
0.40762,62.777
0.39883,62.19
0.39198,61.799
0.38612,61.408
0.38221,60.821
0.37732,60.626
0.37341,60.43
0.36852,60.43
0.36461,61.408
0.3607,63.559
0.35679,67.862
0.35288,74.707
0.34897,83.507
0.34506,93.481
0.34018,103.26
0.33627,112.06
0.33236,120.08
0.32942,126.34
0.32551,131.03
0.3216,133.96
0.31672,135.53
0.31281,135.92
0.3089,135.14
0.30499,133.57
0.30108,131.62
0.29717,129.27
0.29326,126.73
0.28935,123.99
0.28739,121.06
0.28446,117.73
0.2825,114.21
0.27859,110.5
0.27566,106.39
0.27175,102.09
0.26882,97.588
0.26491,93.481
0.261,89.57
0.25709,86.05
0.25415,83.312
0.25122,81.16
0.25122,79.4
0.25415,78.227
0.26197,77.249
0.27664,76.662
0.29912,76.271
0.3304,76.076
0.37048,76.076
0.4174,76.076
0.46725,76.076
0.51711,76.076
0.565,75.88
0.60899,75.88
0.64614,75.685
0.67351,75.489
0.69306,75.293
0.71065,75.098
0.72336,74.707
0.73118,74.12
0.73509,73.533
0.73412,73.142
0.73021,72.555
0.72239,71.969
0.71261,71.382
0.69892,70.795
0.68231,70.209
0.66276,69.622
0.64321,69.035
0.62463,68.644
0.60215,68.057
0.57771,67.471
0.55327,67.08
0.52981,66.493
0.50635,65.906
0.48485,65.319
0.4653,64.733
0.4477,64.146
0.43304,63.755
0.41935,63.168
0.40958,62.777
0.40176,62.19
0.39394,61.604
0.3871,61.213
0.38025,60.626
0.37439,60.235
0.36755,59.844
0.36168,59.844
0.35777,59.844
0.35386,60.43
0.34995,61.799
0.34702,65.124
0.34311,70.795
0.34115,78.814
0.33822,88.005
0.33529,97.588
0.33236,106.58
0.32845,114.8
0.32454,121.64
0.32063,126.92
0.31672,130.44
0.31281,132.59
0.3089,133.18
0.30596,132.99
0.30205,131.81
0.29912,130.05
0.29717,127.71
0.29423,125.16
0.2913,122.43
0.28837,119.49
0.28543,116.17
0.28152,112.45
0.27859,108.74
0.27468,104.43
0.27175,100.13
0.26882,95.632
0.26491,91.525
0.26295,87.81
0.261,84.485
0.25904,81.943
0.25611,79.791
0.25415,78.031
0.25513,76.858
0.26002,76.076
0.27175,75.685
0.29032,75.293
0.31769,75.293
0.35386,75.098
0.39589,75.098
0.44184,75.098
0.48289,75.098
0.52004,75.098
0.56012,75.098
0.59726,75.098
0.6305,74.902
0.65787,74.511
0.67937,74.12
0.69501,73.729
0.70479,73.338
0.71065,72.751
0.71065,72.36
0.70772,71.773
0.70186,71.186
0.69306,70.6
0.68035,70.013
0.66569,69.426
0.64907,68.84
0.62952,68.449
0.60802,67.862
0.58456,67.471
0.56109,66.884
0.53763,66.297
0.51515,65.906
0.49365,65.319
0.4741,64.733
0.45748,64.342
0.44379,63.755
0.43011,63.168
0.41838,62.777
0.40762,62.19
0.39883,61.604
0.39101,61.213
0.38416,60.626
0.3783,60.039
0.37341,59.648
0.36852,59.257
0.36461,59.061
0.36168,59.061
0.35875,59.648
0.35582,61.017
0.35288,64.146
0.34995,69.622
0.34604,77.249
0.34213,86.636
0.3392,96.219
0.33529,105.22
0.33138,113.62
0.32747,120.67
0.32356,126.34
0.31965,130.05
0.31672,132.2
0.31476,133.18
0.31183,132.99
0.30792,131.81
0.30499,130.25
0.30108,128.1
0.29814,125.75
0.29423,123.01
0.2913,120.08
0.28739,116.95
0.28446,113.43
0.28055,109.91
0.27859,105.8
0.27664,101.5
0.27468,97.001
0.27175,92.894
0.26882,88.983
0.26491,85.658
0.261,82.725
0.25806,80.574
0.25611,78.814
0.25709,77.64
0.26197,76.662
0.2737,76.271
0.29326,76.076
0.31574,75.88
0.34409,76.076
0.38123,76.076
0.42522,76.271
0.47214,76.271
0.51906,76.271
0.56403,76.271
0.60508,76.271
0.6393,76.271
0.66764,76.076
0.69013,75.88
0.70577,75.489
0.71554,75.098
0.71945,74.511
0.72043,73.924
0.71945,73.338
0.71359,72.751
0.70577,72.36
0.69404,71.773
0.68035,71.186
0.66373,70.6
0.64418,70.209
0.62268,69.622
0.6002,69.035
0.57674,68.644
0.55523,68.253
0.53568,67.666
0.51515,67.275
0.4956,66.688
0.47605,66.102
0.45943,65.711
0.44379,65.124
0.43109,64.537
0.42033,64.146
0.41056,63.559
0.40371,63.168
0.39687,62.777
0.39198,62.19
0.38905,61.799
0.38514,61.604
0.38221,61.408
0.3783,61.604
0.37537,62.386
0.37243,64.537
0.3695,68.84
0.36657,75.685
0.36364,84.485
0.3607,94.459
0.35777,104.24
0.35484,113.23
0.35191,121.25
0.34995,127.71
0.34702,132.59
0.34409,135.53
0.34115,137.29
0.33822,137.68
0.33431,136.9
0.33138,135.33
0.32845,133.57
0.32551,131.42
0.32258,129.07
0.32063,126.53
0.31867,123.79
0.31672,120.86
0.31476,117.54
0.31183,114.02
0.30987,110.1
0.30694,106
0.30499,101.89
0.30205,97.588
0.29912,93.677
0.29619,90.157
0.29326,87.223
0.2913,84.876
0.2913,82.921
0.29423,81.356
0.3001,80.378
0.31378,79.791
0.33431,79.4
0.36364,79.009
0.40078,78.814
0.44379,78.618
0.49071,78.618
0.53763,78.422
0.58358,78.422
0.62561,78.227
0.66276,78.031
0.68915,77.64
0.7087,77.249
0.7263,76.858
0.739,76.467
0.74878,75.88
0.75269,75.293
0.75367,74.902
0.75073,74.316
0.74487,73.729
0.73607,73.142
0.72434,72.555
0.70968,71.969
0.69306,71.382
0.67546,70.795
0.65787,70.404
0.63734,69.818
0.61486,69.231
0.59238,68.644
0.56989,68.057
0.54741,67.471
0.52688,66.884
0.50733,66.297
0.49071,65.711
0.47507,64.928
0.46139,64.537
0.45161,63.755
0.44282,63.168
0.435,62.777
0.42717,62.19
0.42033,61.799
0.41447,61.408
0.40958,61.017
0.40469,60.821
0.3998,61.017
0.39492,61.995
0.39003,64.733
0.38612,69.622
0.38123,77.054
0.37732,86.636
0.37439,96.806
0.3695,106.78
0.36559,115.78
0.3607,123.6
0.35582,129.86
0.35093,134.35
0.34604,136.9
0.34115,138.27
0.33724,138.27
0.33236,137.29
0.32649,135.72
0.3216,133.77
0.31769,131.62
0.31378,129.27
0.30987,126.73
0.30596,123.79
0.30108,120.86
0.29717,117.54
0.29326,114.02
0.28935,110.1
0.28446,106
0.28055,101.69
0.27664,97.197
0.27468,93.09
0.27175,89.374
0.26882,86.245
0.26588,83.703
0.26393,81.747
0.26588,80.183
0.27273,79.009
0.28739,78.227
0.30987,77.836
0.34115,77.445
0.38123,77.249
0.42522,77.054
0.47312,77.054
0.51417,77.054
0.55132,76.858
0.58847,76.858
0.62268,76.662
0.65298,76.467
0.67644,76.076
0.69404,75.685
0.70674,75.293
0.71457,74.902
0.71848,74.316
0.7175,73.729
0.71359,73.142
0.70674,72.555
0.69795,71.969
0.68719,71.382
0.67351,70.795
0.65689,70.209
0.63832,69.622
0.61779,69.035
0.59629,68.644
0.5738,68.057
0.55034,67.471
0.52786,66.884
0.50538,66.493
0.48387,65.906
0.46628,65.319
0.45161,64.733
0.43695,64.342
0.42326,63.755
0.41153,63.168
0.40078,62.582
0.39198,62.19
0.38416,61.604
0.37732,61.213
0.37146,60.626
0.36559,60.235
0.3607,59.844
0.35777,59.844
0.35484,60.43
0.35093,61.995
0.34702,65.515
0.34409,71.382
0.34018,79.791
0.33627,89.374
0.33138,99.348
0.32747,108.74
0.32356,116.95
0.31965,123.99
0.31476,129.47
0.31085,132.99
0.30792,135.14
0.30596,135.92
0.30205,135.53
0.29912,134.35
0.29521,132.59
0.29228,130.25
0.28837,127.9
0.28543,125.16
0.28152,122.43
0.27859,119.3
0.27468,115.78
0.27077,112.06
0.26882,108.15
0.26686,104.04
0.26491,99.544
0.26197,95.241
0.25904,91.33
0.25513,87.614
0.2522,84.485
0.24829,82.138
0.24633,80.183
0.24731,78.618
0.2522,77.64
0.26393,76.858
0.28348,76.271
0.30694,76.076
0.33529,75.88
0.37341,75.685
0.4174,75.685
0.4653,75.489
0.51222,75.489
0.55718,75.489
0.59726,75.293
0.63148,75.098
0.65885,74.902
0.68035,74.707
0.69599,74.316
0.70479,73.729
0.7087,73.338
0.70968,72.751
0.70772,72.36
0.70283,71.773
0.69404,71.186
0.68328,70.6
0.6696,70.013
0.65298,69.426
0.63441,68.84
0.61388,68.449
0.5914,67.862
0.56891,67.471
0.54741,66.884
0.52786,66.297
0.50733,65.906
0.4868,65.319
0.46725,64.733
0.44868,64.146
0.43304,63.755
0.41838,63.168
0.40665,62.582
0.39589,62.19
0.38612,61.604
0.3783,61.017
0.37243,60.626
0.36852,60.039
0.36364,59.648
0.35875,59.257
0.35484,59.257
0.35093,59.452
0.34702,60.43
0.34409,62.777
0.34018,67.275
0.33627,74.12
0.33333,83.116
0.32942,92.699
0.32551,102.09
0.32258,110.69
0.32063,118.12
0.31769,124.19
0.31378,128.68
0.30987,131.42
0.30694,132.79
0.30303,132.79
0.29912,132.01
0.29619,130.44
0.29228,128.49
0.28935,126.14
0.28543,123.79
0.28348,121.06
0.28152,117.93
0.27957,114.6
0.27664,111.08
0.27273,107.17
0.26979,103.06
0.26686,98.761
0.26393,94.459
0.26002,90.352
0.25709,86.636
0.25318,83.507
0.25024,80.965
0.24731,79.009
0.24633,77.445
0.24927,76.271
0.25611,75.489
0.26882,75.098
0.28935,74.707
0.31867,74.511
0.35582,74.511
0.39883,74.511
0.44575,74.511
0.49365,74.511
0.53959,74.511
0.58162,74.316
0.61388,74.316
0.6393,74.12
0.66178,73.729
0.68035,73.533
0.69404,73.142
0.70283,72.555
0.70772,72.164
0.70772,71.578
0.70479,70.991
0.69795,70.6
0.68817,70.013
0.67449,69.426
0.65885,69.035
0.64223,68.449
0.62561,67.862
0.60508,67.471
0.5826,66.884
0.55914,66.297
0.53568,65.906
0.5132,65.319
0.49169,64.733
0.47116,64.342
0.45259,63.755
0.43597,63.168
0.42131,62.777
0.41056,62.19
0.40176,61.604
0.39296,61.213
0.38514,60.626
0.3783,60.039
0.37243,59.648
0.36657,59.061
0.36266,58.866
0.35777,58.67
0.35484,58.67
0.35093,59.452
0.34702,61.408
0.34506,65.319
0.34311,71.578
0.34018,80.183
0.33627,89.961
0.33333,99.544
0.32942,108.54
0.32551,116.56
0.3216,123.21
0.31867,128.29
0.31476,131.62
0.31183,133.38
0.30792,133.96
0.30499,133.57
0.30205,132.2
0.3001,130.25
0.29717,128.1
0.29423,125.55
0.2913,123.01
0.28739,120.08
0.28446,116.95
0.28055,113.43
0.27761,109.71
0.2737,105.8
0.27077,101.5
0.26784,97.197
0.26491,92.894
0.26393,88.983
0.261,85.658
0.25709,82.725
0.25415,80.574
0.2522,78.618
0.25415,77.445
0.26197,76.662
0.27468,76.076
0.29619,75.685
0.32649,75.489
0.36461,75.489
0.41056,75.489
0.45357,75.685
0.49462,75.685
0.54057,75.685
0.58651,75.685
0.62854,75.685
0.66471,75.685
0.69501,75.489
0.71848,75.098
0.73509,74.902
0.74682,74.511
0.75269,73.924
0.75464,73.533
0.75171,72.947
0.74585,72.36
0.73705,71.773
0.72532,71.186
0.71065,70.6
0.69306,70.209
0.67351,69.622
0.65103,69.231
0.62757,68.84
0.60313,68.253
0.57869,67.862
0.55327,67.471
0.52981,66.884
0.50929,66.297
0.49267,65.906
0.47507,65.319
0.45846,64.733
0.44477,64.342
0.43206,63.755
0.42131,63.364
0.41251,62.973
0.40469,62.386
0.39785,61.799
0.39296,61.408
0.38807,61.213
0.38416,61.017
0.38123,61.213
0.3783,61.995
0.37537,64.342
0.37243,68.644
0.3695,75.489
0.36657,84.289
0.36364,94.263
0.35973,103.85
0.35679,112.84
0.35288,120.67
0.34995,127.12
0.34604,132.01
0.34311,134.94
0.34115,136.51
0.33822,136.9
0.33529,136.31
0.33236,134.75
0.32942,132.99
0.32649,130.83
0.32356,128.49
0.32063,125.95
0.31769,123.4
0.31476,120.47
0.31183,117.34
0.30987,113.82
0.3089,110.1
0.30694,106
0.30499,101.69
0.30205,97.588
0.29912,93.481
0.29619,89.961
0.29326,87.027
0.29032,84.485
0.28935,82.529
0.29228,80.965
0.3001,79.987
0.31476,79.205
0.33431,78.814
0.35875,78.618
0.39394,78.422
0.43597,78.422
0.48485,78.422
0.5347,78.422
0.58358,78.227
0.62854,78.227
0.66862,78.031
0.70283,77.64
0.73021,77.249
0.75073,76.662
0.76442,76.076
0.77126,75.489
0.77615,74.902
0.77713,74.316
0.77517,73.729
0.76931,73.142
0.76149,72.555
0.74976,71.969
0.73607,71.578
0.71945,70.991
0.70088,70.6
0.67937,70.013
0.65689,69.426
0.63539,69.035
0.61486,68.449
0.59238,67.862
0.56989,67.275
0.54741,66.688
0.52688,66.102
0.50831,65.515
0.49071,64.928
0.47605,64.342
0.46334,63.755
0.45259,63.168
0.44379,62.582
0.43695,61.995
0.43109,61.408
0.42522,61.017
0.42033,60.626
0.41544,60.43
0.41056,60.43
0.40567,61.408
0.40078,63.755
0.39589,68.449
0.39101,75.685
0.3871,85.267
0.38221,95.437
0.37732,105.61
0.37243,114.8
0.3695,122.82
0.36461,129.27
0.35973,133.77
0.35582,136.7
0.35093,138.07
0.34604,138.27
0.34115,137.48
0.33724,136.11
0.33236,134.16
0.32747,132.01
0.32356,129.66
0.31965,127.12
0.31672,124.38
0.31281,121.45
0.3089,118.12
0.30499,114.8
0.3001,110.89
0.29619,106.78
0.29228,102.48
0.28739,98.175
0.2825,93.872
0.27761,89.961
0.2737,86.832
0.26882,84.094
0.26784,81.747
0.26882,79.987
0.2737,78.814
0.28641,77.836
0.30596,77.249
0.33627,76.858
0.37439,76.662
0.41935,76.662
0.46921,76.467
0.51906,76.467
0.56794,76.467
0.6129,76.271
0.64712,76.076
0.67351,75.88
0.69795,75.685
0.7175,75.293
0.73216,74.902
0.74194,74.511
0.7478,73.924
0.74878,73.338
0.74585,72.751
0.73998,72.164
0.73118,71.578
0.71945,70.795
0.70577,70.404
0.69013,69.622
0.67351,69.035
0.65396,68.644
0.63245,68.057
0.60899,67.666
0.58456,67.08
0.56012,66.493
0.53568,65.906
0.51222,65.515
0.49071,64.928
0.47019,64.342
0.45259,63.755
0.43891,63.168
0.42717,62.777
0.41642,62.19
0.40567,61.604
0.39687,61.213
0.38905,60.626
0.38319,60.039
0.37732,59.844
0.37146,59.452
0.36755,59.452
0.36266,59.844
0.35875,61.017
0.35484,63.95
0.35191,69.231
0.34897,77.054
0.34506,86.636
0.34018,96.61
0.33627,106.19
0.33138,114.8
0.32747,122.03
0.32258,127.71
0.31867,131.62
0.31476,133.96
0.30987,135.14
0.30596,134.94
0.30303,133.96
0.30108,132.2
0.29814,130.05
0.29423,127.71
0.2913,125.16
0.28739,122.43
0.28348,119.3
0.27957,115.97
0.27566,112.45
0.27273,108.54
0.26882,104.43
0.26588,100.13
0.26295,95.828
0.261,91.721
0.25806,87.81
0.25513,84.485
0.25122,81.943
0.24829,79.791
0.24731,78.227
0.24927,76.858
0.25806,76.076
0.2737,75.489
0.29912,75.098
0.33333,75.098
0.37537,74.902
0.41642,74.902
0.4565,74.707
0.50342,74.707
0.55034,74.707
0.59433,74.511
0.63245,74.511
0.66569,74.316
0.6911,73.924
0.71065,73.533
0.72434,73.338
0.73314,72.751
0.73607,72.164
0.72825,71.773
0.71457,71.186
0.70283,70.6
0.6911,70.013
0.67742,69.426
0.66276,68.84
0.64614,68.253
0.62659,67.862
0.60606,67.275
0.58358,66.884
0.56012,66.297
0.53763,65.711
0.51515,65.124
0.4956,64.733
0.47801,64.146
0.46139,63.559
0.44477,62.973
0.43011,62.386
0.41642,61.995
0.40469,61.408
0.39492,61.017
0.3871,60.43
0.38025,59.844
0.37341,59.452
0.36852,59.061
0.36461,58.67
0.36168,58.475
0.35777,58.67
0.35484,59.257
0.35093,61.017
0.34702,64.733
0.34409,70.795
0.34018,79.205
0.33724,88.788
0.33333,98.175
0.32942,107.17
0.32551,114.99
0.32258,121.64
0.31965,126.73
0.31672,130.05
0.31378,131.81
0.31085,132.59
0.30694,132.01
0.30401,130.64
0.3001,128.88
0.29717,126.53
0.29423,123.99
0.29032,121.25
0.28739,118.32
0.28446,115.19
0.28152,111.67
0.28055,107.76
0.27761,103.65
0.27468,99.544
0.27175,95.046
0.26882,90.939
0.26588,87.223
0.26295,83.898
0.25904,81.16
0.25611,79.009
0.25415,77.249
0.25513,76.076
0.25904,75.293
0.26784,74.707
0.2825,74.316
0.30499,74.12
0.33627,74.12
0.37537,73.924
0.41935,73.924
0.4653,73.924
0.51222,73.924
0.55621,73.924
0.59629,73.729
0.6305,73.533
0.65787,73.338
0.67742,73.142
0.69013,72.751
0.6999,72.36
0.70674,71.773
0.7087,71.382
0.7087,70.795
0.70381,70.209
0.69599,69.622
0.68524,69.035
0.67155,68.644
0.65494,68.057
0.63636,67.471
0.61584,67.08
0.59629,66.493
0.57674,66.102
0.55523,65.515
0.53372,65.124
0.51222,64.537
0.49071,63.95
0.47116,63.364
0.45455,62.973
0.43891,62.386
0.42522,61.799
0.41349,61.408
0.40371,60.821
0.39589,60.235
0.39003,59.844
0.38416,59.257
0.37928,58.866
0.37439,58.475
0.37048,58.279
0.36657,58.279
0.36266,58.67
0.35973,60.039
0.35582,63.168
0.35288,68.644
0.34897,76.467
0.34604,85.658
0.34311,95.241
0.34018,104.24
0.33724,112.45
0.33431,119.49
0.33138,124.77
0.32747,128.68
0.32356,130.83
0.32063,131.81
0.31672,131.62
0.31378,130.44
0.30987,128.68
0.30694,126.53
0.30401,124.19
0.30205,121.64
0.29912,118.71
0.29619,115.78
0.29326,112.45
0.28935,108.74
0.28641,104.82
0.28348,100.52
0.27957,96.024
0.27664,91.917
0.2737,87.81
0.26979,84.485
0.26686,81.747
0.26393,79.4
0.26295,77.64
0.26197,76.271
0.26393,75.293
0.27175,74.511
0.28543,74.12
0.30694,73.924
0.33822,73.729
0.37537,73.533
0.41935,73.533
0.46628,73.533
0.5132,73.533
0.5523,73.533
0.58553,73.533
0.61877,73.533
0.64809,73.338
0.67253,73.142
0.6911,72.947
0.70479,72.555
0.71359,72.164
0.7175,71.578
0.7175,71.186
0.71359,70.6
0.70674,70.209
0.69697,69.622
0.68622,69.035
0.67155,68.644
0.65494,68.057
0.63539,67.666
0.61388,67.275
0.5914,66.688
0.56794,66.297
0.54545,65.711
0.52297,65.319
0.50147,64.733
0.48094,64.342
0.46334,63.755
0.44868,63.364
0.43695,62.777
0.42522,62.386
0.41447,61.799
0.40469,61.408
0.39687,60.821
0.39003,60.43
0.38416,59.844
0.3783,59.648
0.37439,59.452
0.37048,59.452
0.36657,59.844
0.36364,61.213
0.36168,64.342
0.35875,69.818
0.35582,77.836
0.35288,87.223
0.34995,97.001
0.34604,106.19
0.34311,114.6
0.3392,121.64
0.33627,127.31
0.33236,131.23
0.32845,133.57
0.32551,134.55
0.32258,134.35
0.32063,133.38
0.31867,131.62
0.31574,129.47
0.31281,127.12
0.30987,124.58
0.30694,121.84
0.30401,118.9
0.30108,115.78
0.29814,112.26
0.29521,108.34
0.29228,104.43
0.29032,100.13
0.28935,96.024
0.28739,91.917
0.28446,88.396
0.28152,85.463
0.27859,82.921
0.27664,81.16
0.27566,79.596
0.27859,78.422
0.28739,77.836
0.30303,77.249
0.32649,77.054
0.35875,76.858
0.39198,76.858
0.42717,76.858
0.47019,76.858
0.51613,76.858
0.56207,76.858
0.60411,76.858
0.64125,76.662
0.67253,76.467
0.69795,76.076
0.7175,75.685
0.73118,75.293
0.73998,74.707
0.74291,74.316
0.74194,73.729
0.739,73.142
0.73314,72.555
0.72532,71.969
0.71359,71.382
0.6999,70.795
0.68328,70.404
0.66471,69.818
0.64418,69.231
0.62268,68.644
0.60117,68.057
0.57869,67.471
0.55914,66.884
0.54154,66.102
0.52297,65.515
0.50538,64.928
0.48876,64.342
0.47507,63.755
0.46139,63.168
0.45064,62.582
0.44086,62.19
0.43402,61.604
0.42717,61.213
0.42131,60.821
0.4174,60.43
0.41349,60.235
0.40958,60.039
0.40665,60.626
0.40274,62.19
0.39883,65.711
0.39492,71.773
0.39198,80.183
0.38807,89.961
0.38416,99.739
0.38025,109.13
0.37634,117.54
0.37146,124.58
0.36852,130.05
0.36559,133.57
0.36266,135.53
0.35875,136.31
0.35582,136.11
0.35191,134.75
0.348,133.18
0.34409,131.03
0.34018,128.68
0.33627,126.14
0.33138,123.6
0.32747,120.67
0.32454,117.54
0.3216,114.02
0.31769,110.3
0.31476,106.39
0.31085,102.28
0.30694,97.979
0.30303,93.677
0.29912,89.961
0.29521,86.441
0.2913,83.703
0.28739,81.552
0.28641,79.791
0.28935,78.422
0.29619,77.445
0.30792,76.662
0.32845,76.271
0.35777,76.076
0.39492,75.88
0.43793,75.88
0.48387,75.88
0.53079,75.685
0.57478,75.685
0.61486,75.685
0.64907,75.489
0.67742,75.098
0.69697,74.902
0.70968,74.511
0.72043,74.12
0.72727,73.533
0.73021,72.947
0.72923,72.36
0.7263,71.773
0.71945,71.186
0.70968,70.6
0.69697,70.013
0.68231,69.426
0.66569,68.84
0.64712,68.253
0.62854,67.862
0.60997,67.275
0.58847,66.688
0.56598,66.297
0.5435,65.711
0.52102,65.124
0.49951,64.537
0.47996,64.146
0.46237,63.559
0.44575,62.973
0.43206,62.386
0.42033,61.799
0.41056,61.408
0.40274,60.821
0.39589,60.235
0.38905,59.844
0.38319,59.452
0.3783,59.061
0.37341,58.866
0.3695,59.061
0.36559,60.039
0.36168,62.386
0.35777,67.08
0.35386,74.511
0.34995,83.898
0.34604,93.872
0.34311,103.65
0.34018,112.45
0.33627,120.08
0.33138,126.14
0.32747,130.64
0.32356,133.57
0.31965,134.94
0.31574,135.14
0.31183,134.35
0.3089,132.79
0.30499,130.64
0.30205,128.49
0.3001,125.95
0.29717,123.21
0.29423,120.27
0.2913,117.14
0.28739,113.82
0.28446,110.3
0.28055,106.19
0.27664,102.09
0.2737,97.784
0.26979,93.481
0.26686,89.374
0.26295,85.854
0.26002,82.921
0.25904,80.574
0.25709,78.618
0.25709,77.249
0.26197,76.271
0.27273,75.489
0.2913,75.098
0.31769,74.707
0.35386,74.511
0.39589,74.511
0.44282,74.511
0.49169,74.316
0.53275,74.316
0.56891,74.316
0.60508,74.12
0.63734,73.924
0.66471,73.729
0.68622,73.533
0.70283,73.142
0.71359,72.555
0.71945,72.164
0.72141,71.578
0.71945,70.991
0.71359,70.404
0.70577,69.818
0.69599,69.426
0.68328,68.84
0.66764,68.253
0.65005,67.666
0.6305,67.275
0.60899,66.688
0.58651,66.297
0.56305,65.711
0.53959,65.124
0.51711,64.537
0.4956,64.146
0.47507,63.559
0.45846,62.973
0.44477,62.386
0.43109,61.799
0.41838,61.408
0.40762,60.821
0.39785,60.235
0.38905,59.844
0.38221,59.257
0.37634,58.866
0.37048,58.475
0.36559,58.279
0.36168,58.279
0.35777,58.475
0.35582,59.844
0.35191,62.777
0.34897,67.862
0.34506,75.293
0.34213,84.485
0.33822,93.872
0.33431,102.87
0.3304,110.89
0.32649,117.93
0.32258,123.21
0.31867,127.12
0.31476,129.47
0.31281,130.44
0.30987,130.25
0.30694,129.27
0.30401,127.51
0.30108,125.36
0.29717,122.82
0.29326,120.08
0.29032,117.34
0.28641,114.02
0.28348,110.69
0.28055,106.98
0.27664,102.87
0.27468,98.566
0.27273,94.263
0.27077,90.157
0.26784,86.245
0.26491,82.921
0.261,80.183
0.25709,78.031
0.25415,76.271
0.25318,75.098
0.25513,74.12
0.261,73.533
0.27468,73.338
0.29619,72.947
0.3216,72.947
0.35093,72.947
0.38905,72.947
0.43304,72.947
0.47996,72.751
0.5259,72.751
0.56794,72.555
0.60606,72.555
0.63734,72.36
0.66276,72.164
0.68231,71.773
0.69599,71.382
0.70381,70.991
0.70674,70.404
0.70674,69.818
0.70283,69.231
0.69697,68.84
0.68719,68.253
0.67546,67.666
0.65982,67.275
0.64223,66.688
0.6217,66.297
0.6002,65.711
0.57771,65.319
0.55425,64.733
0.53372,64.342
0.51515,63.755
0.49462,63.364
0.47507,62.777
0.45748,62.19
0.44086,61.799
0.42717,61.213
0.41447,60.821
0.40371,60.235
0.39492,59.648
0.3871,59.257
0.38025,58.67
0.37537,58.279
0.37146,57.888
0.36755,57.497
0.36364,57.497
0.3607,57.692
0.35679,58.67
0.35386,61.017
0.34995,65.319
0.34702,72.164
0.34409,80.965
0.34018,90.352
0.33724,99.544
0.33333,107.76
0.33138,115.19
0.32942,121.25
0.32649,125.55
0.32356,128.49
0.31965,130.05
0.31574,130.25
0.31281,129.47
0.3089,128.1
0.30596,125.95
0.30303,123.6
0.29912,121.06
0.29619,118.32
0.29423,115.19
0.29228,111.86
0.28935,108.34
0.28641,104.43
0.28348,100.33
0.28055,96.024
0.27664,91.721
0.2737,87.81
0.27077,84.289
0.26686,81.16
0.26295,78.814
0.26002,76.858
0.25806,75.489
0.25904,74.511
0.26295,73.729
0.27273,73.338
0.29032,72.947
0.31574,72.751
0.34995,72.751
0.39101,72.751
0.43793,72.751
0.48778,72.751
0.53568,72.751
0.58162,72.555
0.62268,72.555
0.65396,72.36
0.67742,72.164
0.69892,71.773
0.71554,71.382
0.72727,70.991
0.73509,70.6
0.73705,70.013
0.73607,69.426
0.73021,69.035
0.72141,68.449
0.70968,67.862
0.69404,67.275
0.67644,66.884
0.65885,66.297
0.6393,65.906
0.61779,65.319
0.59433,64.928
0.57087,64.342
0.54643,63.755
0.52297,63.364
0.50147,62.777
0.48192,62.19
0.46334,61.799
0.4477,61.213
0.43402,60.626
0.42326,60.235
0.41447,59.844
0.40665,59.257
0.39883,58.866
0.39198,58.279
0.38612,57.888
0.38123,57.497
0.37634,57.301
0.37146,57.301
0.36755,58.083
0.36461,60.039
0.3607,63.95
0.35679,70.209
0.35386,78.422
0.35093,88.005
0.348,97.393
0.34409,106
0.34115,113.62
0.33724,120.08
0.33333,124.97
0.32942,128.1
0.32551,130.05
0.3216,130.44
0.31769,130.05
0.31378,128.68
0.31183,126.73
0.3089,124.58
0.30596,122.23
0.30303,119.49
0.29912,116.56
0.29521,113.43
0.29228,110.1
0.28837,106.19
0.28543,102.28
0.28152,97.979
0.27859,93.677
0.27468,89.765
0.27175,86.05
0.26882,82.725
0.26686,80.183
0.26393,78.227
0.261,76.662
0.26002,75.489
0.26295,74.707
0.27077,74.12
0.28739,73.924
0.31183,73.729
0.34506,73.729
0.3871,73.924
0.43402,73.924
0.47703,73.924
0.51711,74.12
0.56012,74.12
0.60313,73.924
0.64125,73.924
0.67351,73.729
0.69892,73.338
0.71848,73.142
0.73314,72.751
0.74096,72.164
0.74487,71.773
0.74487,71.186
0.73998,70.6
0.73314,70.209
0.72239,69.622
0.70968,69.035
0.69306,68.644
0.67449,68.057
0.65396,67.666
0.63148,67.275
0.60802,66.688
0.58358,66.102
0.55914,65.711
0.53568,65.124
0.5132,64.733
0.49462,64.146
0.47898,63.755
0.46334,63.168
0.44868,62.777
0.43597,62.19
0.42522,61.799
0.41642,61.408
0.4086,60.821
0.40176,60.43
0.39687,59.844
0.39198,59.648
0.38807,59.452
0.38514,59.648
0.38319,60.235
0.38025,62.386
0.37732,66.493
0.37439,73.338
0.37146,82.138
0.36755,91.917
0.36461,101.5
0.36168,110.3
0.35777,117.93
0.35484,124.38
0.35093,129.07
0.348,132.2
0.34506,133.96
0.34311,134.35
0.34018,133.77
0.33724,132.4
0.33431,130.64
0.33138,128.49
0.32845,126.14
0.32551,123.79
0.32258,121.06
0.31965,117.93
0.31672,114.8
0.31378,111.28
0.31183,107.56
0.30987,103.46
0.30792,99.348
0.30596,95.241
0.30303,91.525
0.3001,88.005
0.29717,85.267
0.29423,82.921
0.29228,80.965
0.29228,79.596
0.29619,78.618
0.30694,78.031
0.32551,77.445
0.34702,77.249
0.37439,77.054
0.41251,76.858
0.4565,76.858
0.50538,76.662
0.55425,76.662
0.60117,76.467
0.64418,76.271
0.68133,75.88
0.71261,75.489
0.73705,75.098
0.75464,74.707
0.7654,74.12
0.77028,73.533
0.77322,72.947
0.77322,72.36
0.76931,71.773
0.76246,71.186
0.75269,70.6
0.73998,70.209
0.72532,69.622
0.70674,69.035
0.68719,68.644
0.66569,68.057
0.64321,67.471
0.6217,66.884
0.60117,66.297
0.57967,65.711
0.55816,65.124
0.53763,64.537
0.51808,63.95
0.50049,63.364
0.48583,62.777
0.47214,62.19
0.46041,61.604
0.45064,61.213
0.44184,60.626
0.435,60.235
0.42913,59.844
0.42424,59.452
0.41935,59.257
0.41447,59.257
0.40958,60.039
0.40469,62.19
0.3998,66.297
0.39589,73.338
0.39101,82.334
0.38612,92.112
0.38123,101.89
0.37634,110.89
0.37243,118.71
0.36852,125.16
0.36461,129.66
0.35973,132.59
0.35582,134.16
0.35093,134.55
0.34604,133.96
0.34115,132.4
0.33627,130.64
0.33236,128.49
0.32747,126.14
0.32258,123.6
0.31867,120.86
0.31574,117.93
0.31183,114.6
0.30792,111.08
0.30303,107.17
0.29912,103.26
0.29423,98.957
0.28837,94.655
0.28152,90.743
0.27566,87.223
0.27077,84.094
0.26588,81.747
0.26295,79.791
0.26197,78.227
0.26491,77.054
0.27175,76.271
0.28641,75.685
0.3089,75.293
0.34018,75.098
0.37928,74.902
0.42326,74.902
0.47019,74.902
0.51808,74.902
0.56207,74.707
0.60215,74.707
0.63245,74.511
0.65591,74.12
0.67644,73.729
0.69306,73.533
0.70479,72.947
0.71261,72.555
0.71554,71.969
0.71554,71.382
0.71163,70.6
0.70479,70.013
0.69501,69.426
0.68231,68.84
0.66667,68.449
0.65103,67.862
0.63441,67.275
0.61486,66.884
0.59335,66.297
0.57087,65.906
0.54839,65.319
0.5259,64.733
0.50342,64.342
0.48289,63.755
0.46334,63.168
0.44575,62.582
0.43109,61.995
0.41935,61.408
0.40958,61.017
0.3998,60.626
0.39101,60.039
0.38416,59.648
0.37732,59.061
0.37146,58.67
0.36657,58.475
0.36266,58.279
0.35875,58.475
0.35484,59.257
0.35093,61.408
0.34702,65.906
0.34409,72.555
0.34213,81.552
0.33822,91.134
0.33431,100.72
0.3304,109.32
0.32649,116.95
0.32258,123.01
0.31867,127.31
0.31476,130.05
0.31085,131.62
0.30694,131.81
0.30303,131.03
0.3001,129.47
0.29814,127.51
0.29521,125.16
0.2913,122.43
0.28837,119.69
0.28446,116.75
0.28055,113.43
0.27761,109.91
0.2737,106
0.27077,102.09
0.26686,97.784
0.26393,93.677
0.26197,89.57
0.26002,86.05
0.25709,82.921
0.25415,80.378
0.25024,78.422
0.24829,76.858
0.24731,75.685
0.25024,74.902
0.25904,74.316
0.27566,73.924
0.3001,73.729
0.33431,73.729
0.37439,73.533
0.41349,73.533
0.45259,73.533
0.49658,73.533
0.54057,73.338
0.58065,73.142
0.61681,72.947
0.64712,72.555
0.67058,72.36
0.68719,71.969
0.69892,71.578
0.70577,70.991
0.70772,70.404
0.70577,70.013
0.70088,69.426
0.69306,68.84
0.68231,68.253
0.66862,67.666
0.65298,67.275
0.63539,66.688
0.61486,66.297
0.59335,65.906
0.57087,65.319
0.54741,64.733
0.52493,64.342
0.50244,63.755
0.48289,63.364
0.46628,62.777
0.44966,62.19
0.435,61.604
0.42033,61.213
0.4086,60.626
0.39785,60.039
0.38905,59.648
0.38123,59.061
0.37439,58.67
0.36852,58.083
0.36364,57.692
0.3607,57.497
0.35777,57.497
0.35386,57.692
0.35093,58.67
0.34702,61.017
0.34409,65.319
0.34018,72.164
0.33627,80.574
0.33236,89.765
0.32942,98.761
0.32551,106.78
0.3216,113.82
0.31769,119.49
0.31476,123.79
0.31281,126.34
0.30987,127.71
0.30596,127.71
0.30303,126.92
0.29912,125.36
0.29619,123.21
0.29228,120.86
0.28935,118.12
0.28641,115.19
0.2825,112.06
0.27957,108.74
0.27761,104.82
0.27566,100.91
0.27273,96.806
0.26979,92.503
0.26686,88.592
0.26393,84.876
0.26002,81.747
0.25709,79.009
0.25318,77.054
0.25024,75.293
0.24829,74.12
0.24829,73.142
0.2522,72.555
0.26002,72.36
0.27273,72.164
0.29521,72.164
0.32551,72.164
0.36266,72.164
0.40665,72.164
0.45259,72.164
0.49853,71.969
0.54252,71.969
0.5826,71.773
0.61681,71.578
0.64516,71.382
0.66471,70.991
0.67742,70.6
0.68817,70.209
0.69404,69.818
0.69697,69.231
0.69501,68.644
0.69013,68.057
0.68133,67.471
0.67058,67.08
0.65591,66.493
0.63832,66.102
0.61975,65.711
0.59824,65.124
0.57869,64.733
0.55914,64.342
0.53763,63.755
0.51613,63.364
0.49462,62.777
0.4741,62.19
0.45552,61.799
0.43891,61.213
0.42424,60.626
0.41153,60.039
0.40078,59.648
0.39198,59.257
0.38514,58.67
0.37928,58.279
0.37439,57.692
0.3695,57.301
0.36559,56.91
0.36168,56.91
0.35777,56.91
0.35484,57.497
0.35191,59.257
0.348,62.582
0.34506,68.449
0.34213,76.662
0.33822,85.854
0.33529,95.046
0.33333,103.46
0.3304,111.08
0.32649,117.54
0.32356,122.43
0.31965,125.75
0.31672,127.71
0.31281,128.49
0.30987,128.1
0.30596,126.73
0.30303,124.77
0.29912,122.62
0.29717,120.08
0.29521,117.34
0.29228,114.41
0.28935,111.28
0.28641,107.76
0.2825,103.85
0.27957,99.739
0.27664,95.632
0.27273,91.33
0.26979,87.419
0.26686,83.703
0.26295,80.769
0.26002,78.227
0.25709,76.271
0.25611,74.707
0.25415,73.729
0.25611,72.947
0.261,72.555
0.2737,72.164
0.29326,72.164
0.3216,72.164
0.35875,72.164
0.40078,72.164
0.4477,72.164
0.4956,72.164
0.53568,72.164
0.57674,72.164
0.62072,71.969
0.65787,71.969
0.68719,71.578
0.70968,71.382
0.7263,70.991
0.73705,70.6
0.74194,70.209
0.74291,69.622
0.739,69.035
0.73118,68.644
0.72043,68.057
0.70772,67.666
0.69306,67.275
0.67546,66.688
0.65494,66.297
0.63245,65.711
0.60899,65.319
0.58456,64.733
0.55914,64.342
0.53568,63.755
0.51222,63.364
0.49071,62.777
0.47214,62.386
0.4565,61.799
0.44379,61.408
0.43109,61.017
0.42033,60.43
0.41056,60.039
0.40176,59.648
0.39492,59.061
0.38905,58.67
0.38416,58.279
0.37928,58.083
0.37537,58.083
0.37243,58.475
0.36852,59.844
0.36657,62.777
0.36461,68.057
0.36168,75.685
0.35875,84.876
0.35582,94.263
0.35191,103.06
0.348,111.08
0.34506,117.93
0.34115,123.21
0.33724,127.12
0.33431,129.27
0.3304,130.25
0.32845,130.05
0.32649,128.88
0.32356,127.12
0.32063,124.97
0.31672,122.62
0.31378,120.27
0.31085,117.54
0.30694,114.6
0.30401,111.47
0.30108,107.95
0.29717,104.24
0.29423,100.33
0.29228,96.415
0.2913,92.308
0.28935,88.788
0.28641,85.463
0.28348,82.725
0.28055,80.378
0.27664,78.618
0.27566,77.445
0.27566,76.467
0.28152,75.685
0.29326,75.293
0.31378,75.098
0.34311,75.098
0.37439,75.098
0.40958,75.098
0.45259,75.098
0.50147,75.098
0.55034,75.098
0.59629,75.098
0.63832,74.902
0.67449,74.707
0.70479,74.316
0.72825,73.924
0.74487,73.533
0.75562,72.947
0.76051,72.36
0.76149,71.969
0.75953,71.382
0.75464,70.795
0.74585,70.404
0.73509,69.818
0.72141,69.231
0.70479,68.84
0.68622,68.253
0.66569,67.862
0.64321,67.275
0.61975,66.688
0.59629,66.102
0.57576,65.711
0.55621,64.928
0.53666,64.342
0.51808,63.755
0.50049,62.973
0.48485,62.582
0.47116,61.995
0.45846,61.408
0.44868,61.017
0.44086,60.43
0.43402,59.844
0.42815,59.648
0.42326,59.257
0.41935,58.866
0.41642,58.866
0.41251,59.257
0.4086,60.43
0.40567,63.364
0.40176,68.644
0.39785,76.467
0.39394,85.854
0.39003,95.632
0.38612,104.82
0.38221,113.23
0.3783,120.27
0.37439,125.95
0.37146,129.86
0.36852,132.2
0.36461,133.18
0.3607,133.18
0.35679,132.01
0.35288,130.44
0.34897,128.49
0.34506,126.34
0.34115,123.99
0.33724,121.25
0.33236,118.32
0.32942,115.38
0.32649,112.06
0.32356,108.34
0.31965,104.63
0.31574,100.52
0.31183,96.219
0.30792,92.112
0.30401,88.201
0.3001,84.876
0.29521,82.138
0.2913,79.987
0.28837,78.227
0.28837,76.858
0.2913,75.88
0.29912,75.293
0.31574,74.902
0.34018,74.707
0.37341,74.707
0.41447,74.511
0.46139,74.511
0.51026,74.511
0.55914,74.511
0.60508,74.511
0.64614,74.316
0.68035,74.12
0.70479,73.729
0.72239,73.338
0.73705,72.947
0.7478,72.36
0.75367,71.773
0.7566,71.186
0.75464,70.6
0.74976,70.013
0.74194,69.426
0.73021,68.84
0.71652,68.253
0.6999,67.666
0.68133,67.275
0.66276,66.688
0.64321,66.102
0.62072,65.711
0.59726,65.319
0.57283,64.733
0.54839,64.146
0.52493,63.755
0.50342,63.168
0.48289,62.582
0.46432,61.995
0.44868,61.408
0.435,61.017
0.42424,60.43
0.41544,60.039
0.40762,59.452
0.40078,59.061
0.39492,58.475
0.38905,58.279
0.38319,58.083
0.3783,58.083
0.37439,58.475
0.3695,60.039
0.36559,63.364
0.36168,69.426
0.35777,77.64
0.35386,87.223
0.35093,96.806
0.348,105.61
0.34311,113.62
0.3392,120.27
0.33431,125.16
0.3304,128.68
0.32551,130.44
0.3216,131.03
0.31769,130.64
0.31378,129.47
0.30987,127.71
0.30694,125.55
0.30499,123.01
0.30205,120.47
0.29814,117.73
0.29521,114.8
0.2913,111.47
0.28739,107.95
0.28348,104.04
0.28055,99.935
0.27664,95.632
0.2737,91.525
0.26979,87.614
0.26588,84.289
0.26393,81.16
0.261,78.814
0.25806,77.054
0.25611,75.489
0.25709,74.511
0.26197,73.729
0.27273,73.338
0.29326,73.142
0.32258,72.947
0.35973,72.751
0.40469,72.751
0.45455,72.751
0.49756,72.751
0.53763,72.751
0.57967,72.555
0.61975,72.36
0.65396,72.36
0.68231,72.164
0.70479,71.773
0.72141,71.382
0.73216,70.795
0.73705,70.404
0.739,69.818
0.73607,69.231
0.72923,68.84
0.72043,68.253
0.70968,67.666
0.69501,67.08
0.6784,66.493
0.65982,66.102
0.63832,65.515
0.61584,65.124
0.58847,64.537
0.55914,64.146
0.53275,63.559
0.50831,62.973
0.48583,62.386
0.46725,61.995
0.45161,61.408
0.43695,60.821
0.42229,60.235
0.40958,59.844
0.39883,59.452
0.38905,58.866
0.38123,58.279
0.37439,57.888
0.3695,57.497
0.36461,57.106
0.35973,56.91
0.35582,57.106
0.35288,57.692
0.35093,59.257
0.348,62.777
0.34506,68.644
0.34213,76.662
0.33822,85.854
0.33529,94.85
0.33138,103.26
0.32747,110.69
0.32356,116.95
0.31965,121.64
0.31574,124.97
0.31281,126.73
0.30987,127.31
0.30694,126.92
0.30401,125.55
0.3001,123.79
0.29717,121.64
0.29326,119.1
0.28935,116.36
0.28641,113.62
0.2825,110.3
0.27957,106.98
0.27566,103.06
0.2737,99.153
0.27175,95.046
0.26882,90.743
0.26588,86.832
0.26295,83.312
0.26002,80.378
0.25611,78.031
0.2522,76.076
0.24927,74.511
0.24731,73.533
0.24829,72.751
0.25415,72.164
0.26784,71.969
0.28446,71.773
0.30694,71.578
0.3392,71.578
0.38025,71.578
0.42522,71.578
0.47312,71.578
0.52102,71.382
0.565,71.382
0.60411,71.186
0.63734,70.991
0.66471,70.795
0.68524,70.6
0.69795,70.209
0.70577,69.622
0.70968,69.231
0.71163,68.644
0.7087,68.253
0.70283,67.666
0.69404,67.275
0.68133,66.688
0.66667,66.102
0.64809,65.711
0.62854,65.124
0.60606,64.537
0.58358,64.146
0.56207,63.755
0.54252,63.168
0.52102,62.777
0.49951,62.19
0.47898,61.604
0.46041,61.017
0.44282,60.626
0.42815,60.039
0.41544,59.648
0.40371,59.061
0.39394,58.475
0.38612,58.083
0.38025,57.692
0.37537,57.301
0.37146,56.91
0.36755,56.519
0.36364,56.519
0.35973,56.91
0.35679,58.083
0.35288,60.626
0.34995,65.319
0.34702,72.36
0.34311,81.16
0.34018,90.157
0.33724,98.761
0.33431,106.39
0.33138,113.23
0.32845,118.71
0.32551,122.43
0.3216,124.77
0.31867,125.95
0.31476,125.95
0.31183,125.16
0.30792,123.6
0.30499,121.45
0.30108,119.3
0.29814,116.56
0.29521,113.82
0.29326,110.69
0.29032,107.37
0.28739,103.85
0.28348,99.935
0.28055,95.828
0.27761,91.721
0.2737,87.614
0.27077,84.094
0.26686,81.16
0.26393,78.618
0.26002,76.662
0.25611,74.902
0.25513,73.729
0.25513,72.751
0.25806,72.164
0.26491,71.773
0.27957,71.578
0.30205,71.382
0.33333,71.382
0.37243,71.382
0.41642,71.382
0.46432,71.186
0.51222,71.186
0.55718,71.186
0.59335,70.991
0.62268,70.795
0.65005,70.6
0.67351,70.209
0.69208,69.818
0.70577,69.426
0.71359,68.84
0.7175,68.449
0.71652,67.862
0.71261,67.275
0.70381,66.688
0.69306,66.297
0.6784,65.711
0.66373,65.319
0.64712,64.733
0.62757,64.342
0.60606,63.95
0.5826,63.364
0.55914,62.973
0.53568,62.386
0.5132,61.995
0.49267,61.408
0.47312,61.017
0.45552,60.626
0.43988,60.039
0.42815,59.648
0.4174,59.061
0.4086,58.67
0.3998,58.279
0.39198,57.692
0.38514,57.106
0.37928,56.715
0.37439,56.519
0.3695,56.519
0.36559,56.715
0.36168,57.497
0.35875,59.648
0.35484,63.755
0.35191,70.404
0.34995,78.814
0.34702,88.201
0.34311,97.197
0.3392,105.61
0.33529,112.84
0.33138,118.71
0.32747,123.21
0.32356,125.95
0.31965,127.51
0.31672,127.9
0.31281,127.31
0.30987,125.95
0.30792,123.99
0.30499,121.84
0.30205,119.3
0.29912,116.75
0.29521,114.02
0.29228,110.89
0.28837,107.56
0.28543,104.04
0.28152,100.13
0.27859,96.024
0.27468,91.917
0.27175,88.005
0.26979,84.681
0.26784,81.747
0.26491,79.4
0.261,77.445
0.25806,75.88
0.25709,74.902
0.25806,74.12
0.26491,73.533
0.27761,73.533
0.3001,73.338
0.3304,73.338
0.3695,73.338
0.40762,73.338
0.44673,73.533
0.49169,73.533
0.53763,73.533
0.58162,73.533
0.62072,73.338
0.65494,72.947
0.68231,72.751
0.70283,72.36
0.71848,71.969
0.72727,71.578
0.73216,70.991
0.73314,70.404
0.73021,70.013
0.72336,69.426
0.71457,69.035
0.70283,68.449
0.68915,68.057
0.67253,67.471
0.65298,67.08
0.63148,66.493
0.60899,66.102
0.58553,65.711
0.56207,65.124
0.53959,64.733
0.51906,64.146
0.50147,63.755
0.48387,63.168
0.46823,62.777
0.45259,62.19
0.43988,61.799
0.42913,61.213
0.41935,60.821
0.41153,60.43
0.40567,59.844
0.3998,59.452
0.39492,59.257
0.39198,59.061
0.38905,59.257
0.3871,60.235
0.3871,62.777
0.38514,67.471
0.38319,74.511
0.38025,83.507
0.37732,93.09
0.37439,102.09
0.37146,110.1
0.36755,117.34
0.36461,123.01
0.3607,127.31
0.35777,130.05
0.35582,131.23
0.35288,131.42
0.34995,130.64
0.34702,129.27
0.34409,127.51
0.34115,125.36
0.33822,123.01
0.33529,120.67
0.33236,117.93
0.32942,114.99
0.32649,111.67
0.32454,108.34
0.32258,104.43
0.32063,100.52
0.31769,96.415
0.31476,92.308
0.31183,88.592
0.30792,85.463
0.30499,82.725
0.30108,80.574
0.29814,79.009
0.29717,77.64
0.3001,76.662
0.3089,76.076
0.32063,75.685
0.3392,75.489
0.36657,75.293
0.40274,75.293
0.44575,75.293
0.49267,75.098
0.54057,75.098
0.58749,74.902
0.6305,74.707
0.66764,74.511
0.69892,74.12
0.72336,73.729
0.73998,73.142
0.75073,72.751
0.75855,72.164
0.76246,71.578
0.76246,70.991
0.75953,70.404
0.75367,69.622
0.74487,69.035
0.73314,68.644
0.71848,68.057
0.70088,67.471
0.68133,67.08
0.65982,66.688
0.64027,66.102
0.61975,65.711
0.59726,65.124
0.57478,64.537
0.5523,63.95
0.53177,63.559
0.51222,62.973
0.49365,62.386
0.47801,61.799
0.46432,61.213
0.45161,60.821
0.44086,60.235
0.43304,59.844
0.4262,59.257
0.42033,58.866
0.41349,58.475
0.4086,58.279
0.40274,58.279
0.39785,58.866
0.39296,60.43
0.38807,64.342
0.38319,70.6
0.3783,79.205
0.37341,88.983
0.36852,98.761
0.36461,107.56
0.3607,115.38
0.35679,121.84
0.35191,126.73
0.34702,130.05
0.34213,131.62
0.33724,132.2
0.33333,131.81
0.32845,130.64
0.32454,128.88
0.32063,126.92
0.31574,124.58
0.31281,122.03
0.30987,119.3
0.30694,116.36
0.30303,113.23
0.29912,109.71
0.29521,106
0.2913,102.09
0.28739,97.979
0.28348,93.872
0.27957,89.765
0.27566,86.245
0.27175,83.116
0.26686,80.769
0.26393,78.618
0.26197,77.054
0.26197,75.88
0.26588,75.098
0.27664,74.707
0.29423,74.316
0.3216,74.12
0.35777,73.924
0.40078,73.924
0.44868,73.924
0.49853,73.729
0.54741,73.729
0.58651,73.729
0.61975,73.533
0.65103,73.338
0.67937,72.947
0.70186,72.555
0.71848,72.164
0.73021,71.773
0.73705,71.186
0.739,70.6
0.73705,70.013
0.73216,69.426
0.72434,68.84
0.71261,68.253
0.70088,67.862
0.68622,67.275
0.6696,66.884
0.65005,66.297
0.62854,65.906
0.60606,65.319
0.58162,64.733
0.55718,64.342
0.53372,63.755
0.51124,63.168
0.48974,62.777
0.47116,62.19
0.45552,61.604
0.44184,61.017
0.43011,60.626
0.41838,60.039
0.4086,59.648
0.3998,59.061
0.39198,58.67
0.38612,58.279
0.38025,57.888
0.37537,57.692
0.37048,57.692
0.36657,58.279
0.36266,60.039
0.35973,63.559
0.35679,69.622
0.35288,77.836
0.34995,87.223
0.34604,96.415
0.34115,104.82
0.33724,112.26
0.33333,118.32
0.32845,123.01
0.32454,126.14
0.32063,127.9
0.31672,128.49
0.31378,128.1
0.31085,126.92
0.30792,124.97
0.30499,122.82
0.30108,120.47
0.29814,117.93
0.29423,114.99
0.29032,111.86
0.28641,108.54
0.28348,105.02
0.27957,101.11
0.27566,97.001
0.27273,92.894
0.27077,88.983
0.26882,85.463
0.26588,82.334
0.26295,79.791
0.25904,77.64
0.25513,76.076
0.2522,74.902
0.2522,74.12
0.25709,73.533
0.26784,73.142
0.28739,72.751
0.31476,72.555
0.34604,72.555
0.37928,72.555
0.42229,72.555
0.46921,72.36
0.51711,72.36
0.56207,72.164
0.60313,72.164
0.63832,71.773
0.66764,71.578
0.69013,71.186
0.70674,70.795
0.7175,70.404
0.72336,69.818
0.72434,69.231
0.72141,68.644
0.71554,68.253
0.70772,67.666
0.69599,67.08
0.68231,66.688
0.66569,66.102
0.64712,65.711
0.62561,65.124
0.60313,64.733
0.58065,64.342
0.55621,63.755
0.53568,63.364
0.51613,62.777
0.49658,62.19
0.47703,61.799
0.45943,61.213
0.44379,60.821
0.42913,60.235
0.4174,59.844
0.40665,59.257
0.39785,58.67
0.39003,58.279
0.38319,57.888
0.3783,57.497
0.37439,57.106
0.37048,56.91
0.36657,57.106
0.36364,58.083
0.35973,60.235
0.35582,64.342
0.35191,70.795
0.34897,79.205
0.34506,88.396
0.34115,97.197
0.33724,105.41
0.33333,112.45
0.3304,118.32
0.32845,122.62
0.32454,125.55
0.3216,126.92
0.31769,127.31
0.31378,126.73
0.31085,125.16
0.30694,123.21
0.30303,121.06
0.29912,118.51
0.29521,115.97
0.29228,113.04
0.29032,109.91
0.28837,106.39
0.28543,102.48
0.2825,98.566
0.27957,94.459
0.27664,90.352
0.27273,86.441
0.26979,83.116
0.26588,80.378
0.26295,78.031
0.25904,76.271
0.25611,74.902
0.25415,73.729
0.25611,73.142
0.261,72.555
0.27175,72.36
0.28935,72.164
0.31574,72.164
0.34995,72.164
0.39101,71.969
0.43597,71.969
0.48387,71.969
0.52981,71.969
0.57283,71.773
0.61095,71.578
0.6393,71.382
0.6608,70.991
0.67937,70.795
0.69404,70.404
0.70479,69.818
0.71065,69.231
0.71261,68.84
0.70968,68.253
0.70479,67.666
0.69599,67.08
0.68426,66.493
0.6696,66.102
0.652,65.515
0.63441,65.124
0.61584,64.733
0.59531,64.342
0.57283,63.755
0.55034,63.364
0.52786,62.777
0.50635,62.19
0.48583,61.799
0.46725,61.408
0.45064,60.821
0.43597,60.235
0.42326,59.844
0.41251,59.257
0.40469,58.866
0.39687,58.279
0.39003,57.888
0.38416,57.301
0.37928,56.91
0.37439,56.715
0.37048,56.715
0.36657,57.106
0.36266,58.475
0.35875,61.408
0.35582,66.688
0.35191,74.12
0.34995,83.116
0.34702,92.112
0.34409,100.72
0.34018,108.34
0.33724,114.8
0.33333,120.08
0.32942,123.79
0.32551,126.14
0.3216,127.12
0.31769,127.12
0.31476,126.14
0.31085,124.38
0.30792,122.43
0.30596,120.08
0.30303,117.73
0.3001,114.99
0.29717,112.06
0.29423,108.93
0.29032,105.41
0.28739,101.69
0.28348,97.588
0.28055,93.481
0.27761,89.374
0.2737,85.658
0.27077,82.529
0.26784,79.791
0.26588,77.445
0.26295,75.489
0.261,74.12
0.25904,73.338
0.261,72.555
0.26882,72.164
0.2825,71.969
0.30499,71.773
0.33627,71.773
0.37537,71.773
0.41935,71.578
0.46041,71.578
0.49853,71.578
0.53959,71.382
0.58065,71.382
0.61681,70.991
0.64809,70.795
0.67351,70.404
0.69306,70.013
0.70674,69.622
0.71554,69.035
0.71945,68.644
0.71945,68.253
0.71554,67.666
0.7087,67.08
0.6999,66.493
0.68817,66.102
0.67351,65.711
0.65591,65.124
0.63636,64.733
0.61584,64.342
0.59335,63.95
0.56989,63.364
0.54643,62.973
0.52297,62.582
0.50147,61.995
0.48289,61.604
0.46725,61.213
0.45161,60.626
0.43695,60.039
0.42326,59.648
0.41251,59.257
0.40274,58.67
0.39394,58.279
0.3871,57.888
0.38123,57.301
0.37537,57.106
0.37146,56.91
0.36657,57.106
0.36364,58.083
0.3607,60.235
0.35777,64.537
0.35386,71.186
0.35093,79.987
0.34702,89.374
0.34311,98.37
0.34018,106.58
0.33627,113.62
0.33236,119.69
0.32845,123.99
0.32454,126.92
0.3216,128.49
0.31965,128.88
0.31672,128.29
0.31281,127.12
0.30987,125.55
0.30694,123.6
0.30303,121.45
0.3001,119.1
0.29717,116.36
0.29423,113.62
0.29032,110.3
0.28739,106.98
0.28446,103.26
0.2825,99.153
0.28055,95.046
0.27761,91.134
0.27566,87.419
0.27175,84.094
0.26882,81.356
0.26491,79.205
0.26197,77.445
0.26002,76.271
0.261,75.293
0.26686,74.707
0.27859,74.12
0.29521,73.924
0.31769,73.729
0.34995,73.729
0.39003,73.924
0.43597,73.924
0.48387,73.924
0.53177,74.12
0.57674,73.924
0.61681,73.924
0.65103,73.729
0.67937,73.533
0.70186,73.142
0.71554,72.751
0.72434,72.164
0.73021,71.773
0.73314,71.186
0.73314,70.6
0.72923,70.013
0.72239,69.622
0.71261,69.035
0.6999,68.644
0.68426,68.057
0.66667,67.666
0.64712,67.08
0.62561,66.688
0.60508,66.102
0.58553,65.711
0.56403,65.124
0.54252,64.733
0.52102,64.146
0.50147,63.755
0.48289,63.168
0.46628,62.777
0.45259,62.19
0.43988,61.604
0.43011,61.213
0.42131,60.626
0.41447,60.235
0.40958,59.844
0.40469,59.452
0.3998,59.257
0.39687,59.257
0.39296,59.844
0.39003,61.604
0.3871,65.515
0.38416,71.773
0.38123,80.183
0.3783,89.765
0.37439,99.153
0.37146,107.76
0.36852,115.38
0.36657,121.64
0.36364,126.34
0.3607,129.47
0.35679,131.23
0.35386,131.62
0.35093,131.23
0.34702,130.05
0.34409,128.49
0.34018,126.73
0.33724,124.77
0.33431,122.43
0.33236,119.88
0.3304,117.34
0.32747,114.41
0.32454,111.28
0.3216,107.95
0.31867,104.24
0.31574,100.33
0.31281,96.219
0.3089,92.112
0.30596,88.396
0.30303,85.267
0.29912,82.529
0.29521,80.378
0.29423,78.618
0.29423,77.445
0.29717,76.467
0.30499,75.685
0.3216,75.293
0.34604,75.098
0.37928,74.902
0.41935,74.707
0.4653,74.707
0.51417,74.511
0.56207,74.511
0.60606,74.316
0.64125,74.12
0.66862,73.729
0.69501,73.533
0.7175,73.142
0.73412,72.751
0.74682,72.164
0.75367,71.773
0.75758,71.186
0.75758,70.6
0.75367,70.013
0.74682,69.426
0.73705,69.035
0.72434,68.449
0.71065,67.862
0.69501,67.471
0.67742,66.884
0.65689,66.297
0.63441,65.906
0.61193,65.319
0.58749,64.733
0.56403,64.146
0.54057,63.559
0.51808,62.973
0.49756,62.582
0.47898,61.995
0.46334,61.408
0.45161,61.017
0.43891,60.43
0.42815,60.039
0.41838,59.452
0.40958,59.061
0.40274,58.475
0.39589,58.279
0.39003,58.083
0.38416,58.083
0.37928,59.061
0.37537,61.213
0.37048,65.906
0.36657,72.947
0.36364,81.943
0.35973,91.721
0.35582,101.11
0.35093,109.71
0.34702,117.14
0.34213,123.01
0.33822,127.31
0.33333,130.25
0.32942,131.62
0.32454,131.81
0.32063,131.23
0.31769,130.05
0.31476,128.29
0.31183,126.34
0.30792,123.99
0.30401,121.64
0.3001,119.1
0.29619,116.17
0.2913,113.04
0.28739,109.71
0.28348,106
0.27957,102.09
0.27566,97.979
0.27175,93.872
0.26882,89.961
0.26686,86.441
0.26393,83.312
0.26002,80.965
0.25611,78.814
0.25415,77.249
0.25318,76.076
0.25806,75.098
0.26979,74.511
0.28935,74.12
0.31867,73.924
0.35582,73.729
0.39394,73.533
0.43304,73.533
0.47898,73.338
0.52688,73.338
0.57185,73.142
0.61388,72.947
0.64907,72.751
0.6784,72.36
0.70088,72.164
0.7175,71.578
0.72923,71.186
0.73509,70.6
0.73705,70.013
0.73509,69.426
0.73021,68.84
0.72336,68.253
0.71261,67.862
0.70088,67.275
0.68524,66.884
0.66862,66.297
0.64809,65.906
0.62659,65.319
0.60411,64.928
0.58065,64.342
0.55621,63.95
0.5347,63.364
0.51515,62.777
0.4956,62.19
0.47605,61.604
0.45846,61.213
0.44184,60.626
0.42717,60.039
0.41447,59.648
0.40371,59.061
0.39394,58.67
0.38612,58.279
0.37928,57.888
0.37341,57.497
0.36852,57.301
0.36461,57.497
0.3607,58.279
0.35679,60.235
0.35288,64.342
0.34897,70.795
0.34506,79.205
0.34115,88.396
0.33724,97.393
0.33333,105.61
0.32942,112.65
0.32454,118.32
0.3216,122.62
0.31867,125.55
0.31574,127.12
0.31183,127.51
0.3089,127.12
0.30499,125.75
0.30108,123.99
0.29814,121.84
0.29423,119.49
0.29032,116.95
0.28641,114.21
0.28348,111.08
0.27957,107.95
0.27664,104.24
0.27468,100.33
0.27175,96.415
0.26784,92.112
0.26491,88.201
0.261,84.681
0.25806,81.747
0.25415,79.205
0.25024,77.054
0.24633,75.489
0.24438,74.316
0.24438,73.533
0.24829,72.947
0.25709,72.36
0.27273,72.164
0.29717,72.164
0.32942,71.969
0.37048,71.969
0.41642,71.773
0.46432,71.773
0.51222,71.578
0.55816,71.382
0.59824,71.186
0.63343,70.991
0.65885,70.795
0.67644,70.404
0.69208,70.013
0.70381,69.426
0.71065,69.035
0.71457,68.449
0.71359,68.057
0.7087,67.471
0.70186,67.08
0.6911,66.493
0.67742,66.102
0.6608,65.515
0.64223,65.124
0.62366,64.733
0.60411,64.146
0.5826,63.755
0.56012,63.168
0.53666,62.777
0.51417,62.19
0.49169,61.604
0.47116,61.213
0.45259,60.626
0.43695,60.039
0.42229,59.648
0.40958,59.061
0.3998,58.67
0.39198,58.083
0.38416,57.692
0.3783,57.106
0.37243,56.91
0.36657,56.519
0.36168,56.519
0.35777,56.715
0.35386,57.692
0.34995,59.844
0.34604,64.342
0.34213,71.186
0.3392,79.791
0.33627,88.788
0.33333,97.393
0.3304,105.41
0.32747,112.26
0.32356,117.73
0.31965,121.84
0.31574,124.58
0.31281,125.95
0.3089,126.14
0.30499,125.55
0.30205,123.99
0.29814,122.23
0.29619,120.08
0.29423,117.73
0.2913,115.19
0.28837,112.45
0.28446,109.32
0.28152,105.8
0.27761,102.28
0.27468,98.175
0.27077,94.068
0.26784,90.157
0.26491,86.245
0.261,82.921
0.25709,79.987
0.25513,77.836
0.2522,75.88
0.25024,74.511
0.24731,73.338
0.24731,72.555
0.25122,72.164
0.26197,71.773
0.27957,71.578
0.30694,71.382
0.34213,71.382
0.38416,71.382
0.43109,71.382
0.47312,71.186
0.51124,71.186
0.5523,71.186
0.5914,70.991
0.62659,70.6
0.66667,70.404
0.68719,70.013
0.70088,69.622
0.71065,69.035
0.7087,68.644
0.70381,68.057
0.69306,67.666
0.68328,67.08
0.67058,66.493
0.65494,66.102
0.63734,65.515
0.61779,65.124
0.59629,64.537
0.5738,64.146
0.54057,63.755
0.51808,63.364
0.49756,62.777
0.46237,62.386
0.44868,61.799
0.435,61.408
0.41642,60.821
0.40665,60.43
0.39687,59.844
0.38905,59.452
0.38319,58.866
0.37732,58.279
0.37243,57.888
0.36755,57.301
0.36364,56.91
0.3607,56.519
0.35875,56.323
0.35582,56.323
0.35288,56.91
0.34897,58.279
0.34604,61.408
0.34213,67.08
0.33822,74.707
0.33431,83.703
0.33138,92.503
0.32747,100.91
0.32356,108.15
0.32063,114.6
0.31867,119.49
0.31574,123.01
0.31281,125.16
0.30987,126.14
0.30596,125.95
0.30303,124.97
0.29912,123.4
0.29619,121.45
0.29228,119.3
0.28935,116.75
0.28543,114.21
0.2825,111.28
0.27957,107.95
0.27859,104.43
0.27566,100.72
0.27273,96.806
0.26979,92.699
0.26588,88.788
0.26197,85.267
0.25904,82.138
0.25806,79.4
0.25904,77.249
0.26588,75.489
0.28055,74.12
0.29814,73.142
0.3216,72.36
0.35386,71.969
0.39296,71.578
0.43793,71.382
0.48387,71.382
0.52786,71.186
0.56989,71.186
0.60606,71.186
0.63734,70.991
0.66276,70.991
0.68231,70.795
0.69599,70.6
0.70283,70.404
0.70674,70.013
0.70674,69.622
0.70479,69.231
0.6999,68.84
0.6911,68.253
0.68035,67.862
0.66569,67.275
0.65005,66.884
0.63148,66.297
0.61095,65.906
0.58944,65.319
0.56891,64.928
0.55034,64.537
0.52981,63.95
0.50929,63.559
0.48974,63.168
0.47116,62.582
0.45357,62.19
0.43891,61.604
0.4262,61.213
0.41447,60.626
0.40469,60.235
0.39589,59.648
0.38905,59.257
0.38319,58.67
0.37928,58.279
0.37439,57.692
0.37048,57.301
0.36657,56.91
0.36266,56.519
0.35875,56.519
0.35582,56.715
0.35191,57.692
0.348,60.235
0.34409,64.928
0.34018,71.969
0.33724,80.574
0.33529,89.765
0.33236,98.37
0.32845,106.39
0.32551,113.23
0.3216,118.9
0.31769,123.01
0.31476,125.95
0.31085,127.31
0.30792,127.9
0.30401,127.31
0.30108,125.95
0.29814,124.19
0.29619,122.23
0.29423,119.88
0.2913,117.34
0.28837,114.6
0.28446,111.67
0.28152,108.34
0.27859,104.63
0.27566,100.72
0.27175,96.61
0.26784,92.503
0.26491,88.592
0.261,85.072
0.26002,81.943
0.26002,79.4
0.26393,77.249
0.27273,75.685
0.28935,74.511
0.31378,73.533
0.34604,72.947
0.38612,72.555
0.43011,72.36
0.47605,72.164
0.52297,72.164
0.56598,72.164
0.6002,72.164
0.62757,72.164
0.65298,71.969
0.67546,71.969
0.69306,71.969
0.70577,71.578
0.71359,71.382
0.7175,71.186
0.7175,70.795
0.71359,70.404
0.70772,69.818
0.69795,69.231
0.68524,68.84
0.67155,68.253
0.65591,67.862
0.63832,67.471
0.61779,67.08
0.59629,66.493
0.57283,66.102
0.55034,65.711
0.52786,65.124
0.50733,64.733
0.48778,64.342
0.46921,63.755
0.45357,63.168
0.44086,62.777
0.43011,62.386
0.42033,61.799
0.41153,61.408
0.40274,61.017
0.39589,60.43
0.39003,60.039
0.38416,59.648
0.38025,59.061
0.37537,58.67
0.37243,58.279
0.36852,58.279
0.36559,58.279
0.36266,59.257
0.3607,61.408
0.35777,65.711
0.35386,72.36
0.35093,80.965
0.34702,90.157
0.34311,98.957
0.34018,107.17
0.33627,114.21
0.33333,120.08
0.32942,124.38
0.32649,127.51
0.32356,129.07
0.32258,129.66
0.31965,129.27
0.31672,128.1
0.31378,126.34
0.31085,124.58
0.30792,122.43
0.30499,120.08
0.30205,117.54
0.3001,114.8
0.29717,111.67
0.29423,108.34
0.2913,104.63
0.28935,100.91
0.28837,96.806
0.28543,92.699
0.2825,88.983
0.27957,85.854
0.27957,83.116
0.2825,80.769
0.2913,79.009
0.30792,77.64
0.33138,76.662
0.36364,76.076
0.40274,75.489
0.43988,75.293
0.47605,75.098
0.51808,75.098
0.55914,75.098
0.59824,75.098
0.63343,74.902
0.66276,74.902
0.68622,74.902
0.70479,74.707
0.71848,74.316
0.7263,74.12
0.73118,73.729
0.73118,73.338
0.72825,72.751
0.72239,72.164
0.71457,71.773
0.70479,71.186
0.69208,70.6
0.67644,70.209
0.65885,69.622
0.64027,69.035
0.61975,68.644
0.59824,68.253
0.57674,67.666
0.55523,67.275
0.53666,66.884
0.52102,66.297
0.5044,65.906
0.48876,65.319
0.47507,64.733
0.46334,64.146
0.45161,63.559
0.44282,62.973
0.43402,62.386
0.42717,61.799
0.42131,61.213
0.41544,60.626
0.41056,60.039
0.40665,59.648
0.40371,59.257
0.3998,58.866
0.39589,59.061
0.39198,59.844
0.38807,62.19
0.38416,66.688
0.38025,73.729
0.37634,82.725
0.37243,92.503
0.36755,101.69
0.36364,110.1
0.3607,117.54
0.35777,123.4
0.35386,127.71
0.35093,130.44
0.34702,132.01
0.34311,132.4
0.34018,131.81
0.33627,130.64
0.33236,128.88
0.32845,126.92
0.32454,124.58
0.32063,122.23
0.31672,119.49
0.31378,116.75
0.31183,113.62
0.3089,110.3
0.30499,106.78
0.30108,102.87
0.29717,98.761
0.29228,94.655
0.28837,90.743
0.28446,87.223
0.28348,84.289
0.28641,81.943
0.29619,79.987
0.30987,78.422
0.32942,77.249
0.35875,76.467
0.39589,75.88
0.43891,75.489
0.48485,75.293
0.53177,75.098
0.57576,75.098
0.61486,74.902
0.64907,74.902
0.67742,74.707
0.6999,74.511
0.71554,74.316
0.72532,73.924
0.73021,73.533
0.73216,73.142
0.73216,72.751
0.72825,72.164
0.72239,71.578
0.71359,70.991
0.70186,70.404
0.68719,70.013
0.67058,69.426
0.652,68.84
0.63148,68.449
0.61193,67.862
0.59335,67.471
0.57185,66.884
0.54936,66.493
0.52786,65.906
0.50635,65.319
0.4868,64.928
0.46921,64.342
0.45259,63.755
0.43891,63.168
0.42717,62.582
0.41642,61.995
0.40665,61.408
0.3998,61.017
0.39394,60.43
0.38905,59.844
0.38319,59.452
0.3783,59.061
0.37341,58.67
0.3695,58.279
0.36461,58.279
0.3607,58.67
0.35582,59.844
0.35093,62.777
0.34702,67.862
0.34311,75.489
0.34018,84.485
0.33627,93.872
0.33138,102.67
0.32747,110.69
0.32356,117.34
0.31965,122.62
0.31574,126.53
0.31183,128.68
0.30792,130.05
0.30401,130.05
0.30108,129.27
0.29814,127.71
0.29619,125.75
0.29326,123.6
0.29032,121.25
0.28641,118.51
0.2825,115.58
0.27859,112.45
0.27566,109.13
0.27175,105.41
0.26784,101.3
0.26393,97.197
0.26002,93.09
0.25611,89.179
0.25415,85.658
0.25318,82.725
0.25318,80.183
0.25806,78.227
0.26784,76.662
0.28446,75.685
0.31085,74.902
0.34409,74.316
0.38514,73.924
0.43011,73.729
0.47801,73.533
0.52395,73.533
0.56207,73.338
0.59335,73.338
0.62366,73.338
0.65005,73.142
0.67253,73.142
0.68915,72.947
0.70088,72.555
0.70772,72.164
0.71065,71.969
0.70968,71.382
0.70479,70.795
0.69697,70.404
0.68622,69.818
0.67449,69.231
0.6608,68.644
0.64321,68.253
0.62463,67.666
0.60313,67.08
0.58065,66.493
0.55816,66.102
0.53568,65.711
0.5132,65.124
0.49267,64.537
0.47312,64.146
0.45552,63.559
0.44184,62.973
0.43011,62.582
0.41838,61.995
0.40762,61.408
0.39883,61.017
0.39003,60.43
0.38319,60.039
0.37634,59.452
0.37146,59.061
0.36657,58.475
0.36266,58.083
0.35875,57.888
0.35484,57.497
0.35093,57.692
0.34897,58.083
0.34506,59.452
0.34213,62.582
0.33822,67.862
0.33431,75.293
0.3304,84.289
0.32649,93.286
0.32258,101.5
0.31867,109.13
0.31476,115.38
0.31085,120.47
0.30792,123.99
0.30499,125.95
0.30205,126.92
0.29912,126.92
0.29619,125.75
0.29228,124.19
0.28837,122.23
0.28543,119.88
0.28152,117.34
0.27859,114.41
0.27468,111.47
0.27175,108.15
0.26784,104.43
0.26588,100.52
0.26491,96.415
0.26197,92.308
0.25904,88.396
0.25611,84.876
0.2522,81.943
0.25024,79.4
0.25122,77.445
0.25709,75.88
0.26882,74.707
0.28739,73.924
0.31574,73.338
0.34506,72.947
0.37732,72.751
0.41838,72.555
0.46237,72.555
0.50831,72.36
0.55034,72.36
0.58944,72.36
0.6217,72.164
0.64907,72.164
0.67058,71.969
0.68622,71.773
0.69599,71.578
0.70186,71.186
0.70283,70.795
0.6999,70.404
0.69501,69.818
0.68622,69.426
0.67546,68.84
0.6608,68.449
0.64418,67.862
0.62561,67.471
0.60508,66.884
0.5826,66.493
0.56012,65.906
0.53763,65.515
0.51808,65.124
0.50049,64.537
0.48289,64.146
0.4653,63.559
0.44966,63.168
0.435,62.582
0.42229,61.995
0.41056,61.408
0.40078,61.017
0.39296,60.43
0.38612,60.039
0.38025,59.452
0.37439,59.061
0.37048,58.475
0.36755,58.083
0.36364,57.692
0.3607,57.497
0.35679,57.301
0.35386,57.692
0.34995,58.67
0.34702,61.017
0.34311,65.515
0.34018,72.164
0.33822,80.574
0.33529,89.374
0.33236,97.784
0.3304,105.41
0.32747,112.06
0.32454,117.73
0.32063,121.84
0.31769,124.38
0.31378,125.75
0.30987,126.14
0.30694,125.55
0.30303,124.19
0.29912,122.23
0.29619,120.08
0.29228,117.73
0.29032,114.99
0.28837,112.06
0.28543,108.74
0.2825,105.22
0.27957,101.3
0.27566,97.197
0.27273,93.09
0.26882,88.983
0.26491,85.463
0.26197,82.334
0.26002,79.791
0.26002,77.64
0.26295,75.88
0.26979,74.707
0.28348,73.729
0.30596,73.142
0.33529,72.555
0.37341,72.36
0.41642,72.164
0.46334,72.164
0.51026,71.969
0.55425,71.969
0.59531,71.969
0.6305,71.969
0.65982,71.969
0.68035,71.773
0.69501,71.578
0.70674,71.382
0.71457,70.991
0.71848,70.6
0.71848,70.209
0.71457,69.818
0.70772,69.231
0.69697,68.84
0.68328,68.253
0.66667,67.666
0.64809,67.275
0.62854,66.688
0.60997,66.297
0.58847,65.906
0.56598,65.319
0.5435,64.928
0.52102,64.342
0.49951,63.95
0.47996,63.364
0.46237,62.973
0.4477,62.386
0.43402,61.799
0.42131,61.408
0.41153,60.821
0.40371,60.235
0.39785,59.844
0.39198,59.257
0.38612,58.866
0.38123,58.279
0.37634,57.888
0.37243,57.497
0.36852,57.106
0.36461,57.106
0.3607,57.301
0.35777,58.279
0.35386,60.43
0.35093,64.733
0.34897,71.186
0.34506,79.791
0.34213,88.788
0.33822,97.588
0.33431,105.61
0.3304,112.84
0.32649,118.71
0.32258,123.21
0.31867,126.14
0.31574,127.71
0.31183,128.29
0.3089,127.71
0.30694,126.53
0.30401,124.58
0.30108,122.62
0.29717,120.27
0.29423,117.73
0.29032,114.99
0.28739,111.86
0.28348,108.54
0.28055,104.82
0.27664,100.91
0.2737,96.806
0.26979,92.699
0.26686,88.788
0.26491,85.463
0.26295,82.529
0.26197,79.987
0.26393,78.227
0.27077,76.662
0.28543,75.685
0.30792,74.902
0.3392,74.316
0.3783,73.924
0.42326,73.924
0.47116,73.924
0.51417,73.924
0.55132,73.924
0.5914,73.924
0.62757,73.924
0.65982,73.924
0.68719,73.924
0.70772,73.924
0.72239,73.533
0.73216,73.338
0.73803,72.947
0.73803,72.555
0.73509,72.164
0.72825,71.578
0.71945,71.186
0.70772,70.6
0.69404,70.209
0.67644,69.622
0.65689,69.035
0.63636,68.644
0.6129,68.253
0.58944,67.666
0.56598,67.275
0.5435,66.884
0.52199,66.297
0.50147,65.906
0.48485,65.319
0.47116,64.928
0.45748,64.342
0.44477,63.95
0.43402,63.364
0.42522,62.777
0.4174,62.386
0.41056,61.799
0.40469,61.408
0.3998,61.017
0.39589,60.43
0.39198,60.039
0.38807,59.844
0.38514,59.648
0.38319,59.844
0.38025,61.213
0.37634,63.755
0.37341,68.644
0.37048,76.076
0.36755,84.876
0.36461,94.068
0.3607,102.87
0.35777,110.89
0.35484,117.93
0.35093,123.6
0.34897,127.71
0.34702,130.25
0.34506,131.62
0.34213,131.62
0.3392,131.03
0.33627,129.47
0.33333,127.71
0.3304,125.55
0.32747,123.4
0.32454,121.06
0.3216,118.32
0.31867,115.38
0.31574,112.06
0.31378,108.74
0.31183,105.02
0.30987,100.91
0.30694,96.806
0.30401,92.894
0.3001,89.374
0.29814,86.245
0.29814,83.507
0.30205,81.356
0.31183,79.791
0.32942,78.422
0.35582,77.445
0.38416,76.858
0.41642,76.467
0.4565,76.076
0.50244,75.88
0.54936,75.88
0.59433,75.88
0.63539,75.88
0.67155,75.685
0.70088,75.685
0.72532,75.489
0.74291,75.098
0.75562,74.902
0.76246,74.511
0.76442,73.924
0.76344,73.338
0.75953,72.751
0.75269,72.164
0.74389,71.578
0.73118,70.991
0.71652,70.404
0.69892,69.818
0.68035,69.231
0.65885,68.644
0.63636,68.253
0.6129,67.666
0.59238,67.275
0.57283,66.688
0.55327,66.102
0.53275,65.515
0.51417,64.928
0.49756,64.537
0.48192,63.95
0.46823,63.364
0.4565,62.777
0.44673,62.19
0.43793,61.799
0.43109,61.213
0.42424,60.821
0.41935,60.235
0.41544,59.844
0.41056,59.452
0.40665,59.257
0.40176,59.061
0.39687,59.257
0.39198,60.43
0.3871,63.168
0.38221,68.253
0.37634,75.685
0.37146,84.681
0.36657,94.263
0.36168,103.46
0.35875,111.86
0.35386,118.9
0.34897,124.38
0.34409,128.49
0.3392,130.83
0.33529,132.01
0.3304,132.2
0.32551,131.42
0.3216,129.86
0.31672,128.1
0.31281,125.95
0.30792,123.6
0.30499,121.06
0.30205,118.12
0.29912,115.19
0.29326,111.86
0.28543,108.15
0.28055,104.24
0.27566,100.13
0.27077,96.024
0.26686,91.917
0.26295,88.201
0.26002,84.876
0.26002,82.334
0.26295,79.987
0.26979,78.227
0.28348,76.858
0.30596,75.88
0.33724,75.293
0.37537,74.902
0.41935,74.511
0.46628,74.316
0.51417,74.316
0.55816,74.12
0.59824,74.12
0.63245,74.12
0.6608,74.12
0.68035,73.924
0.69306,73.729
0.70381,73.533
0.71065,73.142
0.71359,72.751
0.71359,72.164
0.70674,71.773
0.69892,71.186
0.6911,70.6
0.68035,70.013
0.66569,69.426
0.64809,69.035
0.63148,68.449
0.6129,67.862
0.59238,67.275
0.57087,66.884
0.54839,66.297
0.52493,65.906
0.49853,65.319
0.47507,64.928
0.45943,64.342
0.44379,63.755
0.43011,63.168
0.41642,62.777
0.40567,62.19
0.39687,61.604
0.39003,61.017
0.38319,60.43
0.37634,60.039
0.37146,59.452
0.36657,59.061
0.36168,58.67
0.35777,58.279
0.35386,58.083
0.34995,58.279
0.34604,58.67
0.34213,60.235
0.3392,63.364
0.33627,69.035
0.33333,77.054
0.32942,86.05
0.32551,95.046
0.3216,103.46
0.31769,111.08
0.31378,117.34
0.30987,122.23
0.30596,125.55
0.30205,127.51
0.29814,128.1
0.29423,127.71
0.29228,126.53
0.29032,124.77
0.28739,122.62
0.28348,120.27
0.27957,117.54
0.27664,114.8
0.2737,111.67
0.26979,108.34
0.26588,104.63
0.26295,100.91
0.26002,96.806
0.25709,92.503
0.25415,88.592
0.2522,85.072
0.25024,82.138
0.24927,79.791
0.25318,77.64
0.26295,76.076
0.27273,74.902
0.29423,74.12
0.33431,73.533
0.37732,73.142
0.41153,72.947
0.44673,72.751
0.49365,72.555
0.52884,72.555
0.56403,72.36
0.60606,72.36
0.63832,72.36
0.65885,72.164
0.67449,72.164
0.68719,71.969
0.69501,71.578
0.69697,71.186
0.69501,70.795
0.68915,70.404
0.68035,69.818
0.6696,69.231
0.65689,68.84
0.64027,68.253
0.6217,67.666
0.60215,67.275
0.57967,66.688
0.55718,66.297
0.5347,65.906
0.51222,65.319
0.49071,64.928
0.47116,64.342
0.45455,63.95
0.44086,63.364
0.42717,62.973
0.41447,62.386
0.40274,61.799
0.39296,61.408
0.38514,60.821
0.37732,60.43
0.37146,59.844
0.36559,59.452
0.3607,58.866
0.35679,58.475
0.35288,57.888
0.34995,57.692
0.348,57.301
0.34506,57.301
0.34213,57.692
0.3392,58.67
0.33529,61.017
0.33236,65.319
0.32845,71.969
0.32454,80.378
0.32063,89.179
0.31672,97.588
0.31281,105.41
0.31085,112.06
0.30792,117.54
0.30596,121.45
0.30303,124.19
0.29912,125.55
0.29619,125.75
0.29228,125.16
0.28935,123.79
0.28641,121.84
0.2825,119.49
0.27957,116.95
0.27664,114.21
0.27273,111.08
0.27077,107.76
0.26882,104.04
0.26686,100.13
0.26393,96.024
0.261,91.917
0.25709,87.81
0.25415,84.289
0.2522,81.356
0.25122,78.814
0.25415,76.858
0.26197,75.293
0.27664,74.12
0.29521,73.338
0.31867,72.751
0.35191,72.36
0.39296,72.164
0.43695,71.969
0.48289,71.773
0.52786,71.773
0.56989,71.773
0.60606,71.773
0.63734,71.773
0.66178,71.773
0.68035,71.578
0.69306,71.382
0.6999,71.186
0.70186,70.795
0.70088,70.6
0.69697,70.013
0.69013,69.622
0.68035,69.035
0.66667,68.644
0.65103,68.057
0.63245,67.471
0.61193,67.08
0.58944,66.493
0.56598,66.102
0.54545,65.711
0.52688,65.124
0.50635,64.733
0.4868,64.342
0.46823,63.755
0.45064,63.364
0.43597,62.777
0.42229,62.19
0.41056,61.604
0.40078,61.213
0.39296,60.626
0.38514,60.235
0.37928,59.648
0.37439,59.257
0.37048,58.866
0.36755,58.279
0.36364,57.888
0.35973,57.497
0.35582,57.301
0.35288,57.106
0.34995,57.497
0.34604,58.279
0.34311,60.43
0.3392,64.342
0.33627,70.6
0.33333,78.814
0.3304,87.614
0.32747,96.219
0.32454,104.04
0.32063,110.89
0.31769,116.75
0.31378,121.06
0.31085,123.99
0.30694,125.55
0.30401,125.95
0.3001,125.55
0.29717,124.19
0.29326,122.23
0.2913,120.08
0.28935,117.73
0.28641,114.99
0.28348,112.06
0.27957,108.74
0.27664,105.22
0.2737,101.5
0.26979,97.393
0.26686,93.286
0.26393,89.179
0.26002,85.463
0.25806,82.334
0.25709,79.596
0.25904,77.445
0.26491,75.685
0.27664,74.316
0.29521,73.533
0.32258,72.751
0.35679,72.36
0.39785,72.164
0.44379,71.969
0.48974,71.969
0.54154,71.969
0.59238,71.773
0.63539,71.773
0.66667,71.773
0.68915,71.773
0.70772,71.578
0.72336,71.382
0.73314,71.186
0.739,70.795
0.73998,70.6
0.73705,70.209
0.73021,69.622
0.72043,69.231
0.70674,68.644
0.69013,68.057
0.67253,67.666
0.65396,67.275
0.63245,66.688
0.60899,66.297
0.58456,65.906
0.56012,65.515
0.53666,65.124
0.51417,64.537
0.49267,64.146
0.4741,63.755
0.45748,63.168
0.44184,62.777
0.43109,62.386
0.42131,61.799
0.41251,61.408
0.40469,61.017
0.39687,60.43
0.39101,60.039
0.38514,59.452
0.38025,59.061
0.37634,58.67
0.37243,58.279
0.36852,58.083
0.36461,58.083
0.3607,58.279
0.35777,59.452
0.35582,61.799
0.35191,66.102
0.34897,72.947
0.34506,81.356
0.34115,90.548
0.33724,99.153
0.33333,107.17
0.32942,114.21
0.32649,119.88
0.32258,124.19
0.31867,126.92
0.31672,128.49
0.31476,128.68
0.31183,128.29
0.3089,126.92
0.30596,125.16
0.30205,123.01
0.29912,120.67
0.29619,117.93
0.29326,115.19
0.28935,112.06
0.28641,108.74
0.28348,105.02
0.27957,101.11
0.27761,97.001
0.27566,92.894
0.27273,89.179
0.27077,85.854
0.26979,82.921
0.27175,80.574
0.27859,78.814
0.29326,77.445
0.31574,76.467
0.348,75.685
0.38807,75.293
0.43402,75.098
0.47703,75.098
0.51711,75.098
0.56207,75.098
0.60606,75.098
0.64614,75.098
0.68035,75.098
0.7087,75.098
0.73118,74.902
0.74682,74.707
0.75758,74.511
0.76246,74.12
0.76344,73.533
0.76051,73.142
0.75367,72.555
0.74487,72.164
0.73314,71.578
