0.3304,102.28
0.32845,109.71
0.32454,116.36
0.3216,121.25
0.31769,124.77
0.31476,126.73
0.31183,127.51
0.30792,127.12
0.30499,125.95
0.30108,124.19
0.29814,121.84
0.29521,119.49
0.2913,116.56
0.28935,113.62
0.28739,110.5
0.28446,106.98
0.28152,103.26
0.27859,99.153
0.27468,95.046
0.27175,90.939
0.26882,87.027
0.26588,83.507
0.26197,80.769
0.25904,78.227
0.25806,76.467
0.25806,74.902
0.26197,73.924
0.27077,73.142
0.28543,72.751
0.3089,72.555
0.3392,72.36
0.37732,72.36
0.42131,72.36
0.46725,72.36
0.5132,72.36
0.55718,72.36
0.59726,72.36
0.63148,72.36
0.65591,72.164
0.67449,71.969
0.69013,71.773
0.70186,71.382
0.70968,70.991
0.71261,70.404
0.71163,69.818
0.70772,69.426
0.69892,68.84
0.68817,68.253
0.67351,67.666
0.65689,67.275
0.6393,66.688
0.6217,66.297
0.60117,65.711
0.57967,65.319
0.55718,64.733
0.5347,64.342
0.5132,63.95
0.49267,63.364
0.4741,62.973
0.45748,62.386
0.44282,61.799
0.43011,61.408
0.41838,60.821
0.41056,60.235
0.40371,59.844
0.39687,59.452
0.39101,58.866
0.38612,58.475
0.38123,58.083
0.37732,57.692
0.37341,57.301
0.3695,57.301
0.36657,57.692
0.36266,58.67
0.35875,61.213
0.35582,65.711
0.35288,72.555
0.34995,81.356
0.34604,90.548
0.34213,99.348
0.33822,107.56
0.33431,114.6
0.3304,120.27
0.32649,124.38
0.32258,127.12
0.31965,128.49
0.31574,128.68
0.31183,127.9
0.3089,126.53
0.30694,124.38
0.30401,122.23
0.30108,119.49
0.29717,116.95
0.29326,114.02
0.29032,110.69
0.28641,107.37
0.28348,103.65
0.28055,99.544
0.27664,95.437
0.2737,91.33
0.27175,87.419
0.26979,84.094
0.26686,81.16
0.26393,78.618
0.26295,76.662
0.26588,75.293
0.2737,74.316
0.28837,73.533
0.31085,73.142
0.34213,72.947
0.38123,72.751
0.4262,72.751
0.47507,72.751
0.51906,72.751
0.55816,72.751
0.59922,72.751
0.63734,72.751
0.67155,72.555
0.6999,72.36
0.72239,72.164
0.739,71.969
0.74976,71.578
0.75562,71.186
0.7566,70.6
0.75367,70.209
0.74682,69.622
0.73803,69.035
0.72532,68.449
0.71065,68.057
0.69208,67.471
0.67155,66.884
0.64907,66.493
0.62561,65.906
0.60117,65.515
0.57576,64.928
0.5523,64.537
0.52884,63.95
0.51026,63.559
0.49267,62.973
0.47605,62.582
0.46041,61.995
0.44673,61.604
0.435,61.017
0.42424,60.626
0.41544,60.039
0.40762,59.648
0.40078,59.257
0.39492,58.866
0.38905,58.475
0.38514,58.279
0.38123,58.083
0.3783,58.083
0.37439,58.866
0.37146,60.626
0.36755,64.342
0.36364,70.404
0.35875,78.814
0.35484,88.201
0.35093,97.588
0.34702,106.19
0.34213,114.02
0.33822,120.47
0.33529,125.55
0.33236,128.88
0.32845,130.83
0.32454,131.62
0.32063,131.23
0.31672,130.05
0.31281,128.29
0.3089,126.14
0.30499,123.79
0.30108,121.25
0.29717,118.71
0.29423,115.78
0.29032,112.65
0.28837,109.13
0.28641,105.41
0.28348,101.3
0.28055,97.197
0.27761,93.09
0.2737,89.179
0.27077,85.854
0.26784,82.921
0.26588,80.769
0.26686,78.814
0.27273,77.445
0.28446,76.467
0.30108,75.685
0.32356,75.293
0.35679,75.098
0.39785,75.098
0.44477,75.098
0.4956,75.293
0.54643,75.293
0.59433,75.293
0.63832,75.293
0.67644,75.293
0.70772,75.293
0.73314,75.098
0.75171,74.707
0.76246,74.316
0.76833,73.924
0.77126,73.533
0.77126,72.947
0.76735,72.36
0.76051,71.773
0.75073,71.186
0.73705,70.6
0.72141,70.013
0.70283,69.622
0.68231,69.035
0.65885,68.644
0.63734,68.253
0.61681,67.666
0.59335,67.275
0.57087,66.884
0.54839,66.297
0.52688,65.711
0.50733,65.319
0.48974,64.733
0.47507,64.146
0.46139,63.755
0.44966,63.168
0.44086,62.777
0.43206,62.19
0.4262,61.799
0.42131,61.408
0.41642,61.017
0.41251,60.626
0.4086,60.43
0.40469,60.43
0.40176,60.821
0.39785,62.19
0.39394,65.124
0.39003,70.6
0.3871,78.422
0.38319,87.614
0.37928,97.393
0.37634,106.39
0.37243,114.6
0.36852,121.64
0.36461,127.12
0.3607,130.83
0.35679,132.99
0.35288,133.96
0.34995,133.57
0.27566,106
0.27273,102.28
0.26979,98.175
0.26686,94.068
0.26295,89.961
0.26002,86.441
0.25709,83.312
0.25318,80.769
0.25122,78.618
0.25122,77.054
0.25318,76.076
0.25806,75.293
0.26882,74.902
0.28739,74.707
0.31476,74.511
0.34897,74.511
0.39003,74.707
0.435,74.707
0.48192,74.902
0.52786,74.902
0.57087,75.098
0.60508,75.098
0.63148,74.902
0.65591,74.707
0.67742,74.316
0.69404,73.924
0.70479,73.533
0.71163,73.142
0.71359,72.555
0.71261,72.164
0.70674,71.578
0.69795,70.991
0.68622,70.404
0.67253,70.013
0.65787,69.426
0.64027,69.035
0.62072,68.449
0.59922,68.057
0.57674,67.471
0.55327,67.08
0.53177,66.493
0.51026,66.102
0.49071,65.515
0.47312,65.124
0.45748,64.537
0.44379,64.146
0.43304,63.559
0.42424,63.168
0.41642,62.777
0.40958,62.19
0.40371,61.799
0.39785,61.408
0.39394,61.017
0.39003,60.626
0.38612,60.43
0.38319,60.235
0.38025,60.626
0.37732,61.799
0.37537,64.537
0.37341,69.231
0.37048,76.662
0.36755,85.658
0.36364,95.241
0.3607,104.43
0.35679,112.65
0.35386,119.88
0.34995,125.75
0.34604,130.05
0.34311,132.59
0.3392,133.77
0.33627,133.96
0.33431,133.18
0.33236,131.62
0.32942,129.66
0.32649,127.31
0.32356,124.97
0.31965,122.43
0.31965,119.49
0.31965,116.36
0.31867,112.84
0.31672,109.13
0.31378,105.22
0.31085,101.11
0.3089,97.001
0.30792,93.09
0.30499,89.374
0.30205,86.441
0.29912,83.898
0.29717,81.747
0.29717,80.183
0.30205,79.009
0.31378,78.227
0.33333,77.836
0.36168,77.445
0.39785,77.249
0.44086,77.249
0.48192,77.249
0.52102,77.249
0.565,77.249
0.60899,77.054
0.65005,76.858
0.68524,76.662
0.71554,76.467
0.739,76.076
0.7566,75.489
0.76833,75.098
0.77517,74.511
0.77713,73.924
0.77517,73.338
0.77028,72.555
0.76246,71.969
0.75171,71.382
0.739,70.795
0.72239,70.209
0.70381,69.622
0.68328,69.231
0.6608,68.84
0.63734,68.253
0.6129,67.666
0.58944,67.275
0.56598,66.688
0.54643,66.102
0.52884,65.711
0.51124,65.124
0.4956,64.537
0.47996,63.95
0.46725,63.364
0.45552,62.973
0.44575,62.386
0.43793,61.799
0.43011,61.408
0.42326,60.821
0.4174,60.43
0.41251,60.039
0.4086,59.844
0.40371,59.844
0.39883,60.235
0.39394,61.995
0.38905,65.319
0.38319,71.382
0.3783,79.596
0.37243,88.983
0.36755,98.761
0.36168,107.76
0.35582,115.78
0.35093,122.62
0.34702,127.71
0.34311,131.23
0.3392,133.18
0.33431,133.77
0.3304,133.57
0.32551,132.4
0.32063,130.44
0.31672,128.29
0.31281,125.95
0.30792,123.4
0.30401,120.67
0.3001,117.54
0.29619,114.41
0.29423,110.69
0.29032,106.98
0.28641,102.87
0.2825,98.566
0.27859,94.263
0.27468,90.352
0.27077,86.636
0.26588,83.703
0.26295,81.356
0.261,79.4
0.26295,78.031
0.26979,76.858
0.28152,76.271
0.29912,75.88
0.32649,75.489
0.36266,75.489
0.40567,75.489
0.45455,75.489
0.50342,75.489
0.5523,75.489
0.59629,75.489
0.63539,75.293
0.66862,75.293
0.69501,75.098
0.71261,74.707
0.72336,74.316
0.73216,73.924
0.73705,73.338
0.73803,72.751
0.73607,72.164
0.73021,71.578
0.72141,70.991
0.70968,70.404
0.69501,69.818
0.67742,69.231
0.65787,68.644
0.63636,68.253
0.61584,67.666
0.59531,67.275
0.57283,66.688
0.54839,66.102
0.52493,65.711
0.50342,65.124
0.48289,64.537
0.46432,64.146
0.4477,63.559
0.43402,62.973
0.42229,62.582
0.41153,61.995
0.40371,61.408
0.39785,61.017
0.39198,60.43
0.38612,60.039
0.38123,59.648
0.37634,59.257
0.37146,59.061
0.36755,59.257
0.36364,59.844
0.35973,61.213
0.35582,64.342
0.35191,69.622
0.348,77.249
0.34506,86.441
0.34115,95.828
0.33724,104.63
0.33333,112.45
0.32845,119.3
0.32356,124.38
0.31965,128.1
0.31476,130.05
0.31085,131.03
0.30694,130.83
0.30303,129.66
0.29912,127.71
0.29619,125.55
0.29423,123.01
0.2913,120.27
0.28837,117.34
0.28446,114.21
0.28055,110.69
0.27664,106.98
0.2737,102.87
0.26979,98.566
0.26686,94.263
0.26295,90.352
0.26002,86.636
0.25709,83.507
0.25513,80.769
0.25318,78.814
0.25122,77.249
0.2522,76.076
0.25709,75.293
0.26882,74.707
0.28935,74.511
0.31769,74.316
0.35484,74.316
0.39785,74.316
0.44575,74.316
0.49462,74.316
0.53666,74.316
0.57283,74.316
0.60997,74.12
0.64223,73.924
0.67058,73.729
0.69306,73.533
0.7087,73.142
0.71945,72.555
0.72532,72.164
0.7263,71.773
0.72336,71.186
0.71652,70.6
0.70772,70.013
0.69697,69.426
0.68231,68.84
0.66471,68.253
0.64516,67.666
0.62268,67.275
0.59922,66.884
0.57576,66.297
0.55132,65.906
0.52786,65.319
0.50538,64.733
0.48485,64.342
0.4653,63.755
0.45064,63.168
0.43793,62.777
0.4262,62.19
0.41544,61.799
0.40567,61.408
0.39785,60.821
0.39101,60.43
0.38514,59.844
0.37928,59.452
0.37537,59.061
0.37048,58.67
0.36657,58.67
0.36364,58.67
0.3607,59.452
0.35777,61.017
0.35386,64.537
0.35093,70.209
0.34702,78.031
0.34311,86.832
0.33822,95.828
0.33431,104.24
0.3304,111.67
0.32649,117.93
0.3216,122.82
0.31769,126.14
0.31476,128.1
0.31281,128.88
0.30987,128.49
0.30596,127.31
0.30303,125.55
0.29912,123.21
0.29521,120.67
0.2913,117.93
0.28837,114.8
0.28446,111.47
0.28152,107.95
0.27761,104.04
0.27566,99.739
0.2737,95.437
0.27175,91.33
0.26882,87.419
0.26491,83.898
0.261,81.16
0.25806,78.814
0.25513,76.858
0.25318,75.489
0.25513,74.707
0.26295,73.924
0.27664,73.533
0.29912,73.533
0.32356,73.338
0.34995,73.338
0.3871,73.533
0.42913,73.533
0.47312,73.533
0.51711,73.533
0.55914,73.533
0.59531,73.338
0.62659,73.338
0.652,73.142
0.67155,72.751
0.68524,72.36
0.69208,71.969
0.69501,71.382
0.69599,70.795
0.69306,70.404
0.68719,69.622
0.67742,69.035
0.66569,68.644
0.65103,68.057
0.63343,67.471
0.6129,67.08
0.5914,66.493
0.56891,65.906
0.54643,65.515
0.5259,65.124
0.50831,64.537
0.48876,64.146
0.47019,63.559
0.45259,62.973
0.43793,62.582
0.42424,61.995
0.41251,61.408
0.40274,61.017
0.39492,60.626
0.3871,60.039
0.38123,59.648
0.37732,59.061
0.37341,58.67
0.3695,58.279
0.36657,58.083
0.36266,58.083
0.35973,58.279
0.35679,59.257
0.35288,61.604
0.34995,65.906
0.34604,72.751
0.34311,81.356
0.3392,90.548
0.33529,99.544
0.33236,107.76
0.32942,114.99
0.32551,120.86
0.32258,125.36
0.31867,128.1
0.31476,129.66
0.31085,130.05
0.30792,129.27
0.30401,127.71
0.3001,125.75
0.29717,123.4
0.29326,120.67
0.2913,117.93
0.28837,114.8
0.28543,111.47
0.2825,107.76
0.27957,103.85
0.27664,99.739
0.27273,95.632
0.26979,91.525
0.26686,87.614
0.26295,84.485
0.26002,81.747
0.25611,79.596
0.25415,77.836
0.25513,76.467
0.25806,75.685
0.26588,75.098
0.27957,74.902
0.30205,74.707
0.33236,74.707
0.3695,74.902
0.41251,74.902
0.45846,75.098
0.50538,75.098
0.54936,75.098
0.58944,75.098
0.61975,75.098
0.64418,74.902
0.66569,74.707
0.68328,74.316
0.69599,73.924
0.70479,73.533
0.7087,72.947
0.7087,72.555
0.70479,71.969
0.69697,71.382
0.68719,70.795
0.67351,70.209
0.65689,69.818
0.64027,69.231
0.62268,68.84
0.60313,68.253
0.58162,67.862
0.55914,67.471
0.53666,66.884
0.51515,66.493
0.49462,65.906
0.47507,65.515
0.45846,64.928
0.44379,64.537
0.43109,63.95
0.42131,63.559
0.41349,62.973
0.40665,62.582
0.3998,62.19
0.39394,61.604
0.38905,61.213
0.38514,60.821
0.38123,60.626
0.37732,60.43
0.37439,60.626
0.37146,61.604
0.36852,63.95
0.36657,68.253
0.36364,74.902
0.36168,83.703
0.35777,93.09
0.35484,102.09
0.35093,110.5
0.348,117.93
0.34409,124.19
0.34115,128.68
0.33724,131.62
0.33431,133.18
0.3304,133.57
0.32747,132.79
0.32551,131.42
0.32356,129.47
0.32063,127.12
0.31769,124.77
0.31476,122.23
0.31183,119.49
0.3089,116.36
0.30596,113.23
0.30401,109.71
0.30108,105.8
0.29912,101.89
0.29619,97.588
0.29423,93.481
0.29228,89.961
0.29032,86.832
0.28739,84.289
0.28543,82.138
0.28446,80.378
0.28739,79.205
0.29521,78.422
0.30987,77.836
0.33236,77.445
0.36364,77.249
0.40078,77.054
0.44379,77.054
0.48192,77.054
0.51906,76.858
0.55816,76.858
0.59726,76.662
0.63148,76.662
0.6608,76.271
0.68524,76.076
0.70381,75.685
0.71652,75.098
0.72532,74.707
0.72923,74.12
0.72923,73.533
0.7263,72.947
0.71945,72.36
0.71065,71.773
0.6999,71.186
0.68622,70.6
0.67058,70.013
0.652,69.426
0.63245,69.035
0.61193,68.449
0.58944,67.862
0.56696,67.275
0.54545,66.688
0.52493,66.102
0.50733,65.515
0.49169,64.928
0.47703,64.342
0.46334,63.755
0.45064,63.168
0.43988,62.777
0.43011,62.19
0.42229,61.604
0.41544,61.213
0.40958,60.821
0.40469,60.43
0.3998,60.039
0.39589,59.844
0.39198,60.039
0.38807,60.626
0.38416,62.777
0.38025,66.688
0.37537,73.338
0.37146,81.943
0.36657,91.721
0.36266,101.3
0.35777,110.3
0.35288,118.12
0.348,124.77
0.34311,129.47
0.3392,132.79
0.33529,134.55
0.33138,134.94
0.32747,134.55
0.32258,133.18
0.31867,131.23
0.31378,129.07
0.3089,126.53
0.30499,123.99
0.3001,121.06
0.29619,118.12
0.2913,114.8
0.28837,111.28
0.28543,107.37
0.2825,103.26
0.27859,99.153
0.27468,94.85
0.27077,90.743
0.26686,87.419
0.26197,84.289
0.25904,81.943
0.25709,79.987
0.25904,78.422
0.26491,77.445
0.27859,76.662
0.29619,76.271
0.31867,75.88
0.35093,75.88
0.39003,75.685
0.43402,75.685
0.47898,75.685
0.52395,75.685
0.56403,75.685
0.6002,75.489
0.6305,75.293
0.65494,75.098
0.67351,74.707
0.68524,74.316
0.69208,73.924
0.69599,73.533
0.69697,72.751
0.69404,72.164
0.68915,71.578
0.68035,70.991
0.67351,70.404
0.66471,69.818
0.65103,69.231
0.63343,68.84
0.61388,68.253
0.5914,67.666
0.57185,67.08
0.5523,66.688
0.53079,66.102
0.50831,65.711
0.48778,65.124
0.46823,64.537
0.44966,63.95
0.43402,63.559
0.42033,62.973
0.40762,62.386
0.39785,61.799
0.38905,61.408
0.38221,60.821
0.37732,60.235
0.37243,59.844
0.36755,59.452
0.36266,59.257
0.35875,59.061
0.35484,59.061
0.35093,59.844
0.34702,61.604
0.34213,65.319
0.33822,71.578
0.33431,79.791
0.32942,89.179
0.32649,98.566
0.32356,107.17
0.31965,114.8
0.31476,121.06
0.31085,125.95
0.30596,129.07
0.30205,130.83
0.29814,131.42
0.29423,130.83
0.29032,129.47
0.28641,127.51
0.2825,125.16
0.27957,122.62
0.27761,119.88
0.27468,116.75
0.27175,113.62
0.26784,110.3
0.26491,106.58
0.261,102.48
0.25806,98.175
0.25415,94.068
0.25122,89.961
0.24731,86.441
0.2434,83.312
0.24047,80.769
0.23851,78.814
0.23754,77.054
0.23851,76.076
0.24438,75.098
0.25513,74.707
0.27468,74.316
0.30205,74.316
0.33724,74.12
0.3783,74.12
0.42326,74.12
0.47019,74.12
0.51515,74.12
0.55132,74.12
0.58162,73.924
0.61095,73.729
0.63636,73.533
0.65591,73.338
0.67155,72.947
0.68133,72.555
0.68719,72.164
0.68915,71.578
0.68719,70.991
0.68133,70.404
0.67155,69.818
0.6608,69.231
0.64907,68.644
0.63343,68.057
0.61486,67.471
0.59531,67.08
0.57283,66.493
0.55034,65.906
0.52786,65.515
0.50538,65.124
0.48485,64.537
0.46432,64.146
0.44673,63.559
0.43109,62.973
0.4174,62.582
0.40762,61.995
0.39785,61.408
0.38807,61.017
0.38025,60.43
0.37341,60.039
0.36755,59.452
0.36266,59.061
0.35777,58.67
0.35386,58.475
0.34995,58.279
0.34604,58.475
0.34311,59.257
0.34115,61.213
0.33822,65.124
0.33529,71.186
0.33138,79.4
0.32747,88.396
0.32356,97.393
0.31965,105.61
0.31476,113.04
0.31085,119.1
0.30694,123.6
0.30303,126.73
0.29912,128.29
0.29717,128.88
0.29423,128.49
0.2913,127.12
0.28837,125.16
0.28446,122.82
0.28055,120.27
0.27761,117.34
0.2737,114.21
0.27077,110.89
0.26686,107.17
0.26393,103.26
0.26002,99.153
0.25806,94.85
0.25611,90.548
0.25415,86.832
0.25122,83.507
0.24829,80.769
0.24536,78.422
0.24242,76.662
0.24047,75.489
0.24242,74.511
0.24829,73.924
0.261,73.533
0.28152,73.533
0.30987,73.338
0.3392,73.338
0.37243,73.338
0.41251,73.533
0.4565,73.533
0.50049,73.533
0.54252,73.533
0.57967,73.338
0.61193,73.142
0.63832,72.947
0.65885,72.555
0.67351,72.164
0.68328,71.773
0.68719,71.186
0.68719,70.6
0.68524,70.209
0.67937,69.622
0.67058,69.035
0.65885,68.449
0.64418,68.057
0.62757,67.471
0.60802,66.884
0.58651,66.493
0.565,65.906
0.54252,65.515
0.52004,65.124
0.50049,64.537
0.48387,63.95
0.46628,63.559
0.44966,62.973
0.43402,62.386
0.42033,61.799
0.4086,61.408
0.39883,61.017
0.39003,60.43
0.38319,59.844
0.37634,59.452
0.37146,59.061
0.36755,58.475
0.36364,58.279
0.3607,58.083
0.35679,57.888
0.35386,58.279
0.34995,59.257
0.34702,61.799
0.34311,66.493
0.3392,73.338
0.33529,81.943
0.33138,91.134
0.32747,99.935
0.32356,107.95
0.32063,114.8
0.31867,120.47
0.31476,124.58
0.31183,127.31
0.30792,128.68
0.30401,128.88
0.3001,128.29
0.29717,126.73
0.29326,124.77
0.28935,122.43
0.28641,119.88
0.2825,117.14
0.27957,114.02
0.27761,110.69
0.27566,107.17
0.27175,103.06
0.26882,98.957
0.26588,94.85
0.26295,90.743
0.25904,87.027
0.25611,83.703
0.2522,80.965
0.24829,78.814
0.24633,77.054
0.24633,75.685
0.24829,74.902
0.25513,74.316
0.26784,73.924
0.28837,73.729
0.31672,73.729
0.35191,73.729
0.39394,73.924
0.43793,73.924
0.48387,74.12
0.52786,74.12
0.56891,74.12
0.60411,74.12
0.6305,74.12
0.65103,73.924
0.66764,73.533
0.68133,73.338
0.6911,72.947
0.69697,72.36
0.69795,71.969
0.69599,71.382
0.69013,70.795
0.68035,70.209
0.66862,69.622
0.65298,69.231
0.63441,68.644
0.61681,68.253
0.59922,67.666
0.57869,67.275
0.55621,66.884
0.53372,66.297
0.51222,65.906
0.49169,65.319
0.47312,64.733
0.45552,64.342
0.44086,63.755
0.42717,63.364
0.41642,62.777
0.40762,62.386
0.40665,61.799
0.40958,61.408
0.40762,61.017
0.40469,60.43
0.40078,60.235
0.39687,59.844
0.39394,59.844
0.39003,59.844
0.38612,60.626
0.38319,62.582
0.38025,66.493
0.37732,72.751
0.37439,81.16
0.37243,90.548
0.3695,99.739
0.36657,108.34
0.36266,115.97
0.35875,122.43
0.35484,127.31
0.35093,130.64
0.34702,132.4
0.34409,132.99
0.34018,132.59
0.33627,131.23
0.33431,129.47
0.33236,127.12
0.32942,124.77
0.32649,122.23
0.32356,119.49
0.32063,116.56
0.31769,113.23
0.31378,109.71
0.31085,105.8
0.30792,101.69
0.30499,97.588
0.30205,93.481
0.29912,89.961
0.29619,86.636
0.29521,83.898
0.29326,81.747
0.29228,79.987
0.29326,78.814
0.29912,77.836
0.31183,77.249
0.33236,77.054
0.36168,76.858
0.39883,76.858
0.44184,77.054
0.49071,77.054
0.53372,77.249
0.57283,77.249
0.61388,77.249
0.65396,77.054
0.68915,76.858
0.71848,76.662
0.74291,76.271
0.76051,75.685
0.77224,75.098
0.78006,74.316
0.78299,73.533
0.78104,72.947
0.77615,72.164
0.76833,71.382
0.75855,70.795
0.74487,70.209
0.72923,69.622
0.71065,69.035
0.69013,68.644
0.66764,68.253
0.64516,67.666
0.62072,67.275
0.59726,66.688
0.57478,66.297
0.55327,65.711
0.53568,65.319
0.52004,64.733
0.50538,64.146
0.49169,63.755
0.47996,63.168
0.46921,62.582
0.46041,61.995
0.45259,61.408
0.44673,61.017
0.44086,60.43
0.43597,60.039
0.43109,59.844
0.42717,59.648
0.42424,60.039
0.42033,61.604
0.41544,64.733
0.41153,70.6
0.40665,78.618
0.40176,88.005
0.39687,97.588
0.39198,106.78
0.38612,114.8
0.38123,121.84
0.37537,127.31
0.37048,131.03
0.36657,133.18
0.36364,133.96
0.35875,133.77
0.35484,132.59
0.34995,130.83
0.34604,128.68
0.34115,126.34
0.33724,123.79
0.33236,121.06
0.32747,118.12
0.32258,114.8
0.31867,111.47
0.31574,107.56
0.31281,103.65
0.3089,99.348
0.30499,95.046
0.3001,91.134
0.29619,87.419
0.2913,84.289
0.28641,81.747
0.2825,79.791
0.28152,78.227
0.28543,77.249
0.29423,76.467
0.31183,75.88
0.33431,75.685
0.3607,75.489
0.39785,75.489
0.44282,75.489
0.49071,75.489
0.53959,75.489
0.58651,75.293
0.62854,75.293
0.66471,75.098
0.69501,74.902
0.71945,74.511
0.73705,74.12
0.7478,73.729
0.75269,73.142
0.75464,72.555
0.75367,71.969
0.74976,71.382
0.74291,70.795
0.73314,70.209
0.71945,69.622
0.70381,69.035
0.68524,68.449
0.66471,67.862
0.64223,67.471
0.61779,66.884
0.59629,66.297
0.57576,65.906
0.55425,65.319
0.53177,64.733
0.51026,64.342
0.49071,63.755
0.47312,63.168
0.45748,62.582
0.44379,61.995
0.43206,61.604
0.42131,61.017
0.41251,60.626
0.40665,60.235
0.40176,59.844
0.39589,59.257
0.39101,59.061
0.3871,58.67
0.38221,58.67
0.3783,59.257
0.37439,60.626
0.37048,63.559
0.36559,69.035
0.36168,76.662
0.35679,86.05
0.35288,95.437
0.34897,104.43
0.34604,112.45
0.34213,119.3
0.33724,124.58
0.33333,128.49
0.32845,130.64
0.32454,131.62
0.32063,131.42
0.31574,130.25
0.31183,128.49
0.30792,126.14
0.30401,123.79
0.30108,121.06
0.29912,117.93
0.29521,114.8
0.29228,111.47
0.28837,107.95
0.28446,104.04
0.28055,99.739
0.27761,95.437
0.2737,91.33
0.26979,87.614
0.26686,84.289
0.26295,81.552
0.25904,79.4
0.25806,77.445
0.25806,76.271
0.261,75.293
0.26882,74.511
0.28446,74.12
0.3089,73.924
0.34115,73.924
0.38221,73.924
0.42815,73.924
0.47703,73.924
0.52688,73.924
0.57478,73.924
0.6129,73.924
0.64321,73.924
0.67155,73.729
0.69697,73.533
0.71652,73.142
0.73021,72.751
0.739,72.164
0.74291,71.578
0.74291,70.991
0.73803,70.404
0.73021,69.818
0.71945,69.231
0.70479,68.644
0.69013,68.057
0.67351,67.471
0.65298,67.08
0.63148,66.493
0.60802,66.102
0.58358,65.515
0.55914,65.124
0.53568,64.537
0.51417,63.95
0.49267,63.559
0.4741,62.973
0.45748,62.386
0.44477,61.995
0.43402,61.408
0.42424,61.017
0.41447,60.43
0.40665,60.039
0.3998,59.648
0.39394,59.061
0.38807,58.67
0.38319,58.279
0.37928,58.083
0.37537,58.083
0.37146,58.475
0.36755,59.648
0.36461,62.386
0.36168,67.08
0.35875,74.12
0.35484,82.725
0.35093,91.721
0.34702,100.33
0.34311,107.95
0.33627,114.6
0.32845,120.08
0.32258,123.99
0.31769,126.34
0.31281,127.51
0.30987,127.51
0.30792,126.53
0.30499,124.97
0.30108,122.82
0.29814,120.47
0.29423,117.73
0.2913,114.8
0.28739,111.47
0.28446,107.95
0.28055,104.24
0.27761,100.13
0.27468,96.024
0.27077,91.721
0.26882,87.81
0.26686,84.289
0.26491,81.16
0.26197,78.814
0.25806,76.858
0.25611,75.293
0.25513,74.12
0.25709,73.533
0.26393,72.947
0.27761,72.751
0.3001,72.555
0.32942,72.555
0.3607,72.555
0.39492,72.751
0.435,72.751
0.47898,72.751
0.52297,72.751
0.56403,72.555
0.60117,72.36
0.63245,72.164
0.65689,71.969
0.67644,71.578
0.69013,71.186
0.69892,70.795
0.70186,70.209
0.70186,69.622
0.69795,69.035
0.6911,68.644
0.68133,68.057
0.66862,67.471
0.65298,67.08
0.63441,66.688
0.61486,66.102
0.59238,65.711
0.56989,65.124
0.54741,64.733
0.52493,64.146
0.50635,63.755
0.48876,63.168
0.47214,62.582
0.45552,62.19
0.44086,61.604
0.42815,61.017
0.41642,60.626
0.40665,60.039
0.39883,59.648
0.39198,59.061
0.38514,58.67
0.38025,58.279
0.37634,57.888
0.37341,57.497
0.3695,57.301
0.36657,57.497
0.36266,58.279
0.35973,59.844
0.35679,63.559
0.35288,69.426
0.34897,77.445
0.34604,86.441
0.34213,95.437
0.33822,103.85
0.33431,111.28
0.33138,117.73
0.32942,122.43
0.32649,125.95
0.32258,127.71
0.31965,128.49
0.31574,127.9
0.31281,126.73
0.3089,124.77
0.30499,122.43
0.30205,119.88
0.29814,117.14
0.29521,114.21
0.29228,111.08
0.29032,107.56
0.28739,103.65
0.28446,99.544
0.28152,95.241
0.27859,91.134
0.27468,87.419
0.27175,83.898
0.26784,81.16
0.26491,78.814
0.261,77.054
0.25904,75.685
0.26002,74.707
0.26393,74.12
0.27175,73.729
0.28739,73.533
0.30987,73.533
0.34115,73.533
0.37928,73.729
0.42326,73.924
0.47019,74.12
0.51711,74.12
0.56109,74.12
0.60117,74.12
0.63636,74.12
0.66178,73.924
0.67937,73.533
0.69599,73.338
0.70772,72.751
0.71554,72.36
0.71848,71.773
0.71848,71.186
0.71359,70.6
0.70577,70.209
0.69501,69.622
0.68035,69.035
0.66373,68.644
0.64418,68.057
0.62561,67.666
0.60606,67.275
0.58553,66.688
0.56305,66.297
0.54057,65.906
0.51906,65.319
0.49951,64.928
0.48094,64.342
0.46432,63.95
0.45064,63.364
0.43793,62.973
0.42717,62.386
0.41935,61.995
0.41251,61.408
0.40665,61.017
0.40176,60.626
0.39687,60.235
0.39296,59.844
0.38905,59.648
0.38612,59.844
0.38221,60.235
0.37928,61.995
0.37634,65.319
0.37341,71.186
0.3695,79.205
0.36755,88.396
0.36461,97.588
0.36168,106.19
0.35875,114.02
0.35582,120.67
0.35191,125.75
0.34897,129.47
0.34506,131.62
0.34213,132.4
0.3392,132.01
0.33529,130.83
0.33236,129.07
0.3304,126.92
0.32845,124.58
0.32649,122.03
0.32356,119.3
0.32063,116.36
0.31769,113.23
0.31476,109.71
0.31281,105.8
0.30987,101.89
0.30694,97.784
0.30401,93.677
0.30205,89.961
0.29912,86.636
0.29717,83.898
0.29521,81.747
0.29423,79.987
0.29423,78.814
0.29717,77.836
0.30596,77.249
0.3216,76.858
0.34604,76.662
0.37732,76.662
0.41642,76.858
0.46041,76.858
0.50733,76.858
0.54741,76.858
0.58358,76.662
0.62072,76.467
0.65591,76.271
0.68524,75.88
0.70968,75.293
0.72825,74.902
0.74194,74.316
0.74976,73.729
0.75367,73.142
0.75367,72.36
0.74976,71.969
0.74194,71.186
0.73314,70.795
0.72141,70.209
0.70772,69.818
0.69013,69.231
0.67155,68.84
0.65103,68.253
0.62952,67.666
0.60704,67.275
0.58456,66.688
0.56305,66.102
0.54252,65.515
0.52297,64.928
0.50733,64.342
0.49462,63.755
0.48094,63.168
0.46921,62.582
0.45943,61.995
0.44966,61.408
0.44184,61.017
0.43597,60.43
0.43011,60.039
0.42424,59.648
0.41935,59.452
0.41544,59.257
0.41056,59.648
0.40665,60.821
0.40371,63.755
0.3998,69.231
0.39492,77.054
0.39003,86.441
0.38612,96.219
0.38123,105.61
0.37634,113.82
0.37146,121.06
0.36657,126.92
0.36266,130.83
0.35777,133.18
0.35386,134.16
0.35093,134.16
0.34702,132.99
0.34213,131.42
0.33822,129.27
0.33333,126.92
0.32942,124.38
0.32454,121.84
0.31965,118.9
0.31476,115.97
0.31085,112.45
0.30596,108.74
0.30303,104.82
0.3001,100.72
0.29619,96.61
0.2913,92.503
0.28641,88.788
0.28152,85.463
0.27664,82.725
0.2737,80.574
0.27175,79.009
0.27273,77.64
0.27957,76.858
0.29326,76.271
0.31574,75.88
0.34115,75.685
0.37048,75.489
0.4086,75.489
0.45259,75.489
0.49951,75.489
0.54448,75.489
0.58651,75.293
0.62366,75.098
0.65494,75.098
0.68035,74.707
0.69892,74.316
0.71163,73.924
0.71848,73.338
0.72141,72.751
0.72141,72.164
0.71848,71.578
0.71261,70.991
0.70381,70.404
0.69306,69.818
0.6784,69.231
0.66276,68.644
0.64418,68.057
0.62366,67.471
0.60117,67.08
0.57869,66.688
0.55816,66.102
0.53959,65.711
0.51906,65.124
0.49853,64.537
0.47996,63.95
0.46237,63.364
0.44673,62.777
0.43304,62.386
0.42131,61.799
0.41056,61.408
0.40176,60.821
0.39394,60.235
0.38807,59.844
0.38416,59.452
0.37928,59.061
0.37439,58.67
0.37048,58.67
0.36657,59.061
0.36266,60.039
0.35875,62.777
0.35484,67.471
0.34995,74.707
0.34604,83.507
0.34213,92.699
0.33724,101.69
0.33431,109.91
0.33138,117.14
0.32747,122.82
0.32356,126.92
0.31965,129.47
0.31574,130.64
0.31183,130.64
0.30792,129.66
0.30401,127.9
0.3001,125.75
0.29619,123.4
0.29228,120.67
0.28935,117.93
0.28739,114.8
0.28446,111.47
0.28152,107.95
0.27859,104.24
0.27468,100.13
0.27175,95.828
0.26784,91.721
0.26491,87.81
0.261,84.485
0.25806,81.747
0.25415,79.4
0.25122,77.445
0.25024,76.076
0.2522,75.098
0.25806,74.511
0.26882,74.12
0.28739,73.729
0.31378,73.729
0.348,73.533
0.38905,73.533
0.43304,73.533
0.47996,73.533
0.52493,73.533
0.56696,73.533
0.6002,73.338
0.62561,73.142
0.64907,72.947
0.66862,72.555
0.68426,72.164
0.69404,71.773
0.69892,71.382
0.70088,70.795
0.69795,70.209
0.69208,69.622
0.68231,69.035
0.67058,68.449
0.65591,67.862
0.64027,67.275
0.62366,66.688
0.60411,66.297
0.58358,65.906
0.56109,65.319
0.53861,64.733
0.51613,64.342
0.4956,63.755
0.47507,63.364
0.45748,62.777
0.44086,62.386
0.42717,61.799
0.41544,61.213
0.40665,60.821
0.39883,60.235
0.39101,59.844
0.38416,59.257
0.3783,58.866
0.37243,58.475
0.36755,58.083
0.36364,57.888
0.35973,57.888
0.35582,58.279
0.35191,59.257
0.34897,61.604
0.34604,66.297
0.34409,73.142
0.34115,81.552
0.33724,90.548
0.33333,99.153
0.32942,107.17
0.32551,114.21
0.3216,119.88
0.31769,123.99
0.31378,126.53
0.31085,127.71
0.30694,127.71
0.30401,126.92
0.30205,125.16
0.29912,123.01
0.29619,120.47
0.29326,117.93
0.28935,114.8
0.28641,111.86
0.28348,108.34
0.27957,104.63
0.27664,100.72
0.27273,96.61
0.26979,92.308
0.26686,88.396
0.26491,84.681
0.26295,81.747
0.261,79.205
0.25806,77.054
0.25513,75.489
0.25318,74.316
0.25415,73.533
0.26002,72.947
0.27175,72.751
0.29032,72.555
0.31769,72.36
0.35191,72.36
0.3871,72.36
0.42229,72.36
0.46432,72.36
0.50831,72.36
0.55034,72.36
0.58944,72.164
0.62268,72.164
0.65005,71.773
0.67155,71.578
0.68622,71.186
0.69697,70.6
0.70186,70.209
0.70283,69.622
0.6999,69.231
0.69404,68.644
0.68426,68.057
0.67253,67.471
0.65787,67.08
0.64027,66.493
0.62072,66.102
0.6002,65.515
0.57771,65.124
0.55523,64.537
0.53275,64.146
0.51026,63.755
0.49267,63.168
0.47605,62.582
0.46041,62.19
0.44477,61.604
0.43206,61.213
0.41935,60.626
0.40958,60.039
0.3998,59.648
0.39296,59.257
0.38612,58.67
0.38025,58.279
0.37537,57.888
0.37048,57.692
0.36755,57.497
0.36461,57.497
0.36168,57.888
0.35875,59.061
0.35582,61.799
0.35191,66.688
0.34897,73.924
0.34506,82.529
0.34213,91.525
0.33822,100.13
0.33431,107.76
0.3304,114.6
0.32747,120.08
0.32551,123.99
0.32258,126.34
0.31965,127.31
0.31574,127.31
0.31183,126.34
0.3089,124.58
0.30499,122.43
0.30108,119.88
0.29814,117.34
0.29423,114.41
0.2913,111.28
0.28935,107.95
0.28739,104.24
0.28446,100.33
0.2825,96.024
0.27957,91.917
0.27566,88.005
0.27273,84.289
0.26979,81.356
0.26686,79.009
0.26295,76.858
0.261,75.293
0.26002,74.12
0.26197,73.338
0.26784,72.947
0.27761,72.555
0.29521,72.36
0.3216,72.36
0.35484,72.36
0.39589,72.36
0.43988,72.36
0.4868,72.36
0.53568,72.36
0.58553,72.36
0.62659,72.164
0.66178,72.164
0.68622,71.773
0.70381,71.382
0.7175,70.991
0.72825,70.6
0.73412,70.209
0.73607,69.622
0.73412,69.035
0.72825,68.449
0.71848,68.057
0.70479,67.471
0.68915,66.884
0.6696,66.493
0.64907,65.906
0.62854,65.515
0.60899,64.928
0.58651,64.537
0.56403,64.146
0.54057,63.559
0.51906,63.168
0.49853,62.582
0.47996,61.995
0.46432,61.408
0.44966,61.017
0.43695,60.626
0.4262,60.039
0.4174,59.648
0.41153,59.061
0.40469,58.67
0.39883,58.279
0.39394,57.692
0.38905,57.497
0.38416,57.301
0.38025,57.497
0.37634,58.279
0.37341,60.039
0.3695,63.95
0.36559,70.013
0.36168,78.227
0.35875,87.419
0.35582,96.415
0.35288,104.82
0.34897,112.26
0.34506,118.71
0.34115,123.6
0.33627,126.73
0.33236,128.68
0.32845,129.27
0.32551,128.88
0.3216,127.51
0.31769,125.75
0.31476,123.79
0.31281,121.25
0.30987,118.71
0.30694,115.78
0.30401,112.84
0.3001,109.32
0.29619,105.8
0.29326,101.89
0.28935,97.784
0.28641,93.481
0.2825,89.374
0.27957,85.854
0.27566,82.529
0.27273,79.791
0.27077,77.836
0.26882,76.076
0.26882,74.902
0.27175,73.924
0.27957,73.533
0.29521,73.142
0.31965,72.947
0.35288,72.751
0.39296,72.751
0.43988,72.751
0.48876,72.947
0.53177,72.947
0.56989,72.751
0.60899,72.751
0.64712,72.751
0.67937,72.555
0.70577,72.164
0.7263,71.969
0.74194,71.578
0.75073,70.991
0.75562,70.6
0.75562,70.013
0.75171,69.426
0.74389,68.84
0.73412,68.449
0.72141,67.862
0.70674,67.275
0.68817,66.688
0.66764,66.297
0.64516,65.711
0.6217,65.319
0.59629,64.733
0.57185,64.342
0.54839,63.755
0.5259,63.364
0.5044,62.777
0.4868,62.19
0.47312,61.604
0.45846,61.213
0.44575,60.821
0.43402,60.235
0.42424,59.844
0.41544,59.257
0.40762,58.866
0.40078,58.279
0.39492,58.083
0.39003,57.888
0.38514,57.888
0.38123,58.279
0.3783,59.452
0.37537,62.386
0.37243,67.275
0.36852,74.707
0.36461,83.703
0.3607,92.894
0.35679,101.69
0.35191,109.91
0.348,116.75
0.34409,122.43
0.3392,126.53
0.33529,129.07
0.33236,130.25
0.32942,130.44
0.32649,129.66
0.32258,128.1
0.31965,126.14
0.31574,123.79
0.31183,121.45
0.30792,118.9
0.30401,115.97
0.30108,113.04
0.29717,109.71
0.29326,106
0.29032,102.28
0.28837,98.175
0.28641,94.068
0.28348,90.157
0.28055,86.636
0.27664,83.703
0.2737,81.16
0.26979,79.205
0.26882,77.64
0.26979,76.467
0.27566,75.685
0.28935,75.098
0.30987,74.902
0.33529,74.707
0.36461,74.707
0.40469,74.707
0.45064,74.707
0.49951,74.707
0.54839,74.707
0.59531,74.707
0.63734,74.511
0.67351,74.316
0.70283,74.12
0.7263,73.924
0.74389,73.533
0.75562,73.142
0.76051,72.555
0.76149,72.164
0.75953,71.578
0.75464,70.991
0.74682,70.404
0.73607,69.818
0.72239,69.231
0.70674,68.84
0.68719,68.253
0.66667,67.666
0.64418,67.275
0.62072,66.688
0.59922,66.297
0.57869,65.906
0.55816,65.319
0.53666,64.733
0.51711,64.342
0.49853,63.755
0.48192,63.364
0.46823,62.777
0.45552,62.386
0.44477,61.799
0.43597,61.408
0.42815,61.017
0.42229,60.626
0.4174,60.039
0.41251,59.844
0.4086,59.648
0.40469,59.844
0.40078,60.626
0.39687,62.582
0.39394,66.688
0.39003,73.338
0.38612,82.138
0.38221,91.721
0.37928,101.11
0.37537,109.71
0.37243,117.34
0.3695,123.79
0.36657,128.49
0.36266,131.62
0.35875,133.18
0.35582,133.57
0.35191,132.99
0.348,131.42
0.34506,129.66
0.34115,127.51
0.33822,125.16
0.33431,122.62
0.33236,119.88
0.3304,116.95
0.32747,113.62
0.32454,110.3
0.3216,106.58
0.31769,102.67
0.31476,98.566
0.31183,94.459
0.30792,90.548
0.30499,87.027
0.30205,84.094
0.29814,81.747
0.29619,79.791
0.29717,78.422
0.3001,77.445
0.3089,76.662
0.32356,76.271
0.348,76.076
0.38025,75.88
0.42033,75.88
0.46628,75.88
0.51515,75.88
0.565,75.88
0.61095,75.685
0.65298,75.489
0.68524,75.293
0.70968,75.098
0.73216,74.707
0.74976,74.12
0.76246,73.533
0.77126,72.947
0.77517,72.36
0.77517,71.773
0.77126,70.991
0.76442,70.404
0.75464,69.818
0.74194,69.231
0.7263,68.84
0.70968,68.253
0.69208,67.666
0.66471,67.275
0.63343,66.884
0.60508,66.297
0.57967,65.906
0.55523,65.319
0.53275,64.733
0.51124,64.146
0.49169,63.559
0.4741,62.973
0.45943,62.386
0.44673,61.799
0.43695,61.408
0.42717,60.821
0.41838,60.43
0.41056,59.844
0.40371,59.452
0.39785,59.061
0.39198,58.67
0.38612,58.67
0.38123,58.866
0.37634,59.844
0.37146,62.386
0.36755,67.275
0.36266,74.316
0.35973,83.312
0.35484,92.894
0.34995,102.28
0.34506,110.5
0.34018,117.93
0.33529,123.79
0.3304,128.1
0.32551,130.64
0.32063,131.62
0.31672,131.62
0.31183,130.83
0.3089,129.27
0.30596,127.12
0.30303,124.77
0.29912,122.23
0.29521,119.49
0.2913,116.56
0.28739,113.62
0.28348,110.3
0.27957,106.58
0.27566,102.67
0.27175,98.566
0.26784,94.263
0.26491,90.352
0.26197,86.832
0.26002,83.703
0.25611,81.16
0.25318,79.009
0.25024,77.445
0.25024,76.271
0.25415,75.293
0.26491,74.902
0.2825,74.511
0.3089,74.316
0.34409,74.12
0.38514,74.12
0.42522,74.12
0.46432,74.12
0.50831,73.924
0.55132,73.924
0.5914,73.729
0.62659,73.533
0.65591,73.338
0.6784,72.947
0.69501,72.555
0.70577,71.969
0.71163,71.578
0.71359,70.991
0.71163,70.404
0.70577,69.818
0.69795,69.035
0.68719,68.644
0.67449,68.057
0.65885,67.471
0.64125,66.884
0.62072,66.493
0.59922,65.906
0.57576,65.515
0.55327,64.928
0.52981,64.537
0.50733,64.146
0.48876,63.559
0.47214,62.973
0.45455,62.582
0.43891,61.995
0.42424,61.408
0.41153,60.821
0.40078,60.43
0.39198,59.844
0.38416,59.452
0.37634,59.061
0.37048,58.475
0.36559,58.083
0.3607,57.888
0.35679,57.888
0.35386,58.083
0.35093,58.67
0.34702,60.821
0.34311,64.733
0.3392,70.991
0.33529,79.4
0.33138,88.396
0.32649,97.393
0.32258,105.61
0.31769,113.04
0.31378,119.1
0.31085,123.4
0.30792,126.34
0.30401,127.9
0.30108,128.1
0.29717,127.51
0.29326,125.95
0.28935,123.99
0.28641,121.84
0.2825,119.3
0.27957,116.56
0.27566,113.62
0.27273,110.3
0.26882,106.78
0.26686,102.87
0.26491,98.957
0.26197,94.655
0.25904,90.548
0.25611,86.832
0.25318,83.312
0.25024,80.574
0.24633,78.227
0.2434,76.467
0.24145,75.098
0.24145,74.12
0.24536,73.533
0.25318,73.142
0.26588,72.751
0.28641,72.751
0.31574,72.751
0.35288,72.751
0.39589,72.751
0.44282,72.751
0.49071,72.751
0.53568,72.555
0.57674,72.555
0.6129,72.36
0.64223,72.164
0.66569,71.773
0.68133,71.382
0.6911,70.991
0.69795,70.404
0.70088,69.818
0.70088,69.231
0.69599,68.84
0.68915,68.253
0.6784,67.666
0.66471,67.275
0.64809,66.688
0.62952,66.102
0.60802,65.711
0.58847,65.319
0.56891,64.733
0.54741,64.342
0.52493,63.95
0.50342,63.364
0.48192,62.777
0.46334,62.19
0.44575,61.604
0.43011,61.213
0.41642,60.821
0.40469,60.235
0.39492,59.844
0.3871,59.257
0.38123,58.67
0.37537,58.279
0.37048,57.888
0.36559,57.497
0.3607,57.301
0.35679,57.301
0.35288,57.497
0.34897,58.279
0.34604,60.43
0.34213,64.537
0.33822,70.6
0.33431,78.618
0.33138,87.419
0.32845,96.024
0.32551,104.04
0.3216,110.89
0.31769,116.75
0.31378,121.06
0.30987,123.99
0.30596,125.36
0.30303,125.55
0.29912,124.97
0.29521,123.4
0.29228,121.45
0.28935,119.1
0.28739,116.56
0.28543,113.62
0.2825,110.69
0.27957,107.17
0.27664,103.46
0.27273,99.544
0.26979,95.437
0.26588,91.33
0.26295,87.419
0.26002,83.703
0.25611,80.769
0.25318,78.227
0.25024,76.271
0.24927,74.707
0.24731,73.533
0.24633,72.751
0.24927,72.164
0.25709,71.969
0.27175,71.773
0.29423,71.773
0.32551,71.773
0.36364,71.773
0.40665,71.969
0.45259,71.969
0.49365,71.969
0.52981,71.773
0.56696,71.773
0.60215,71.578
0.63245,71.186
0.65787,70.991
0.67644,70.6
0.69013,70.013
0.69795,69.622
0.70088,69.035
0.6999,68.644
0.69501,68.057
0.68622,67.471
0.67546,67.08
0.66276,66.493
0.64712,65.906
0.62854,65.515
0.60704,65.124
0.58456,64.537
0.56207,64.146
0.53861,63.559
0.51613,63.168
0.49462,62.582
0.4741,62.19
0.4565,61.604
0.44184,61.213
0.42913,60.626
0.4174,60.039
0.40665,59.648
0.39785,59.257
0.38905,58.67
0.38221,58.279
0.37634,57.692
0.37146,57.301
0.37048,56.91
0.37243,56.91
0.37146,56.91
0.3695,57.301
0.36755,58.866
0.36559,61.799
0.36266,67.08
0.35875,74.511
0.35582,83.312
0.35191,92.503
0.348,100.91
0.34311,108.74
0.3392,115.19
0.33529,120.47
0.33138,124.19
0.32747,126.34
0.32454,127.31
0.3216,127.12
0.31867,126.14
0.31574,124.38
0.31281,122.43
0.3089,119.88
0.30499,117.34
0.30108,114.41
0.29814,111.47
0.29423,108.15
0.29032,104.63
0.28739,100.72
0.28348,96.61
0.28152,92.503
0.27957,88.396
0.27761,84.876
0.27468,81.747
0.27077,79.205
0.26784,77.054
0.26393,75.489
0.26197,74.12
0.26295,73.338
0.26882,72.751
0.28152,72.555
0.30303,72.36
0.32747,72.164
0.35679,72.164
0.39687,72.164
0.44282,72.164
0.49169,72.164
0.54154,72.164
0.58847,72.164
0.63148,71.969
0.66764,71.773
0.69795,71.578
0.72141,71.186
0.73803,70.795
0.74976,70.404
0.75464,69.818
0.75562,69.231
0.75269,68.84
0.74682,68.253
0.73803,67.666
0.7263,67.275
0.71065,66.688
0.69208,66.297
0.67058,65.906
0.64809,65.319
0.62366,64.733
0.59922,64.342
0.57674,63.95
0.55621,63.364
0.5347,62.973
0.5132,62.386
0.49365,61.995
0.47507,61.408
0.45943,61.017
0.44477,60.43
0.43304,60.039
0.42229,59.452
0.41349,59.061
0.40567,58.475
0.39883,58.083
0.39394,57.692
0.39003,57.301
0.38514,57.301
0.38123,57.497
0.37732,58.475
0.37341,60.626
0.3695,64.733
0.36559,71.382
0.3607,79.791
0.35679,88.788
0.35288,97.588
0.348,105.8
0.34506,113.04
0.34213,119.1
0.33822,123.6
0.33431,126.53
0.3304,128.1
0.32747,128.49
0.32356,127.9
0.31965,126.53
0.31574,124.58
0.31183,122.43
0.30792,119.88
0.30499,117.34
0.30108,114.6
0.29814,111.47
0.29619,108.15
0.29326,104.63
0.29032,100.72
0.28641,96.61
0.28348,92.503
0.27957,88.592
0.27664,84.876
0.27273,81.943
0.26882,79.4
0.26588,77.249
0.26295,75.685
0.26295,74.511
0.26588,73.729
0.2737,73.142
0.28837,72.751
0.31183,72.555
0.34311,72.555
0.38319,72.555
0.42913,72.36
0.47996,72.36
0.53079,72.36
0.57967,72.36
0.62463,72.36
0.65885,72.164
0.68622,71.969
0.71065,71.773
0.73118,71.382
0.74682,70.991
0.7566,70.6
0.76246,70.013
0.76246,69.622
0.75953,69.035
0.75269,68.644
0.74194,68.057
0.72825,67.666
0.71163,67.275
0.69404,66.688
0.67546,66.297
0.65396,65.906
0.6305,65.319
0.60606,64.928
0.58065,64.342
0.55621,63.95
0.53275,63.364
0.51124,62.973
0.49169,62.386
0.47312,61.995
0.45748,61.408
0.44477,61.017
0.435,60.626
0.42522,60.039
0.41642,59.648
0.4086,59.257
0.40176,58.866
0.39589,58.475
0.39101,58.279
0.38612,58.279
0.38123,58.866
0.37732,60.43
0.37341,63.95
0.3695,69.622
0.36657,77.64
0.36364,86.832
0.3607,96.024
0.35679,104.82
0.35288,112.65
0.34897,119.3
0.34506,124.38
0.34115,127.9
0.33724,130.05
0.33333,130.83
0.32942,130.64
0.32649,129.86
0.32356,128.1
0.3216,126.14
0.31867,123.79
0.31574,121.45
0.31183,118.71
0.3089,115.97
0.30499,112.84
0.30205,109.71
0.29814,106
0.29521,102.28
0.29228,98.175
0.28935,94.263
0.28641,90.352
0.28348,87.027
0.2825,84.094
0.27957,81.552
0.27664,79.596
0.27566,78.227
0.27664,77.054
0.28348,76.271
0.29619,75.88
0.31769,75.489
0.348,75.293
0.3871,75.293
0.43304,75.293
0.47605,75.293
0.51711,75.293
0.56305,75.293
0.60899,75.293
0.652,75.098
0.68915,74.902
0.72043,74.707
0.74487,74.316
0.76246,73.924
0.77517,73.338
0.78201,72.947
0.78495,72.36
0.78299,71.773
0.7781,71.186
0.77028,70.6
0.75953,70.013
0.74585,69.622
0.72923,69.035
0.71065,68.644
0.69013,68.057
0.66764,67.666
0.64418,67.08
0.61975,66.688
0.59629,66.102
0.57283,65.711
0.5523,65.124
0.5347,64.733
0.51711,64.146
0.50147,63.559
0.48583,63.168
0.47312,62.777
0.46139,62.19
0.45161,61.604
0.44379,61.213
0.43695,60.821
0.43011,60.43
0.42522,60.039
0.42033,59.844
0.41642,60.235
0.41349,61.213
0.40958,63.755
0.40567,68.644
0.40176,76.076
0.39785,85.072
0.39394,94.655
0.39003,103.85
0.38612,112.26
0.38123,119.49
0.37732,125.36
0.37243,129.47
0.3695,131.81
0.36657,132.99
0.36266,132.79
0.35484,132.01
0.34604,130.44
0.3392,128.49
0.33431,126.34
0.3304,123.99
0.32649,121.45
0.32258,118.71
0.31867,115.78
0.31574,112.45
0.31183,108.93
0.3089,105.22
0.30694,101.11
0.30401,97.001
0.30108,92.894
0.29814,88.983
0.29423,85.854
0.29032,82.921
0.28739,80.769
0.28446,79.009
0.28446,77.64
0.28837,76.662
0.29912,76.076
0.31281,75.685
0.33236,75.293
0.36168,75.293
0.3998,75.098
0.44282,75.098
0.48974,75.098
0.53666,75.098
0.58065,74.902
0.6217,74.707
0.65591,74.511
0.68426,74.316
0.70674,73.729
0.72336,73.338
0.73216,72.947
0.73607,72.36
0.73803,71.773
0.73705,71.186
0.73216,70.6
0.72532,70.013
0.71554,69.426
0.70283,68.84
0.68719,68.253
0.6696,67.862
0.65005,67.275
0.62854,66.884
0.60802,66.297
0.58847,65.906
0.56598,65.319
0.5435,64.928
0.52102,64.342
0.50049,63.755
0.48094,63.168
0.46237,62.582
0.44673,61.995
0.43304,61.408
0.42131,61.017
0.41056,60.43
0.40176,60.039
0.39492,59.452
0.38905,59.061
0.38416,58.67
0.3783,58.279
0.37439,58.279
0.3695,58.67
0.36461,59.844
0.3607,62.386
0.35582,67.275
0.35191,74.707
0.348,83.703
0.34311,93.286
0.3392,102.48
0.33627,110.89
0.33236,117.93
0.32845,123.6
0.32356,127.51
0.31965,129.86
0.31476,131.03
0.31085,130.83
0.30694,129.86
0.30303,128.29
0.29912,126.14
0.29521,123.79
0.2913,121.25
0.28837,118.71
0.28641,115.78
0.28348,112.65
0.27957,109.32
0.27664,105.61
0.27273,101.69
0.26882,97.393
0.26588,93.286
0.26197,89.179
0.25904,85.658
0.25513,82.725
0.25122,80.183
0.24927,78.031
0.24731,76.467
0.24731,75.293
0.25024,74.511
0.25806,73.924
0.2737,73.729
0.29814,73.533
0.3304,73.533
0.37048,73.533
0.41544,73.533
0.46432,73.533
0.51222,73.338
0.55132,73.338
0.58456,73.142
0.61779,72.947
0.64614,72.751
0.67058,72.36
0.68817,71.969
0.70088,71.578
0.7087,70.991
0.71163,70.404
0.71163,69.818
0.70674,69.231
0.69892,68.644
0.68817,68.057
0.67546,67.666
0.66178,67.08
0.64516,66.493
0.62561,66.102
0.60411,65.515
0.58162,65.124
0.55816,64.537
0.5347,64.146
0.51124,63.559
0.48974,62.973
0.46921,62.582
0.45064,61.995
0.43597,61.408
0.42326,60.821
0.41153,60.43
0.40078,59.844
0.39101,59.452
0.38319,58.866
0.37634,58.475
0.37048,58.083
0.36461,57.692
0.35973,57.301
0.35582,57.301
0.35191,57.497
0.348,58.475
0.34506,60.626
0.34213,64.733
0.33822,71.186
0.33529,79.4
0.33138,88.396
0.32747,97.001
0.32258,105.02
0.31867,111.86
0.31476,117.73
0.31085,121.84
0.30694,124.58
0.30303,125.75
0.3001,125.95
0.29717,125.16
0.29423,123.6
0.2913,121.45
0.28739,119.1
0.28348,116.56
0.28055,113.82
0.27664,110.69
0.27273,107.37
0.26979,103.85
0.26588,99.935
0.26295,96.024
0.26002,91.917
0.25709,87.81
0.25611,84.289
0.25318,81.16
0.25024,78.422
0.24633,76.271
0.2434,74.707
0.24145,73.533
0.24047,72.555
0.24242,72.164
0.25024,71.773
0.26491,71.578
0.28739,71.578
0.31281,71.578
0.34213,71.578
0.38025,71.578
0.42424,71.578
0.47116,71.578
0.51613,71.578
0.55816,71.382
0.59531,71.186
0.62659,70.991
0.652,70.6
0.67058,70.209
0.68426,69.818
0.69208,69.231
0.69404,68.84
0.69306,68.253
0.68915,67.666
0.68133,67.08
0.67155,66.688
0.65787,66.102
0.64223,65.711
0.62366,65.124
0.60313,64.537
0.58162,64.146
0.55816,63.755
0.5347,63.168
0.51515,62.777
0.49658,62.19
0.47703,61.799
0.45846,61.213
0.44184,60.821
0.4262,60.235
0.41349,59.844
0.40176,59.257
0.39101,58.866
0.38319,58.279
0.37634,57.888
0.3695,57.497
0.36461,57.106
0.3607,56.715
0.35777,56.519
0.35484,56.519
0.35191,56.91
0.348,58.083
0.34506,60.821
0.34115,65.711
0.33822,72.947
0.33431,81.356
0.3304,90.352
0.32747,98.761
0.32356,106.19
0.32063,112.84
0.31769,118.12
0.31476,122.03
0.31085,124.38
0.30792,125.55
0.30401,125.55
0.3001,124.58
0.29717,123.01
0.29326,120.86
0.29032,118.51
0.28641,115.97
0.28348,113.04
0.27957,110.1
0.27761,106.78
0.27566,103.06
0.27273,99.153
0.26979,95.046
0.26686,90.939
0.26393,87.027
0.261,83.312
0.25806,80.378
0.25415,77.836
0.25415,75.88
0.25513,74.12
0.25513,73.142
0.25709,72.164
0.261,71.773
0.26882,71.382
0.28348,71.382
0.30596,71.186
0.33627,71.186
0.37341,71.186
0.41642,71.186
0.46334,71.186
0.50929,71.186
0.55425,71.186
0.59433,70.991
0.62952,70.795
0.65591,70.6
0.67449,70.209
0.6911,69.818
0.70283,69.426
0.71163,69.035
0.71554,68.449
0.71457,67.862
0.71065,67.471
0.70283,66.884
0.69208,66.297
0.67742,65.906
0.65982,65.319
0.64321,64.928
0.62561,64.537
0.60411,64.146
0.5826,63.559
0.55914,63.168
0.53666,62.777
0.51417,62.19
0.49365,61.604
0.47507,61.213
0.45748,60.626
0.44282,60.235
0.43011,59.648
0.41838,59.257
0.40958,58.67
0.40274,58.279
0.39589,57.888
0.39003,57.301
0.38514,56.91
0.38025,56.715
0.37537,56.519
0.37146,56.715
0.36755,57.301
0.36364,59.061
0.35973,62.582
0.35679,68.253
0.35386,76.271
0.35093,85.072
0.348,93.872
0.34506,102.09
0.34115,109.52
0.33724,115.78
0.33333,120.47
0.32942,123.79
0.32551,125.55
0.3216,126.14
0.31769,125.75
0.31476,124.58
0.31085,122.82
0.3089,120.86
0.30596,118.32
0.30303,115.78
0.3001,113.04
0.29717,109.91
0.29326,106.58
0.29032,103.06
0.28641,99.348
0.28348,95.241
0.28055,91.134
0.27761,87.223
0.2737,83.898
0.27175,80.769
0.26979,78.422
0.26784,76.271
0.26491,74.707
0.26295,73.533
0.26295,72.947
0.26784,72.36
0.27859,71.969
0.29717,71.969
0.32454,71.773
0.35973,71.773
0.40078,71.773
0.44086,71.773
0.47898,71.773
0.52102,71.773
0.56403,71.578
0.60411,71.578
0.6393,71.186
0.66764,70.991
0.6911,70.6
0.70772,70.209
0.71945,69.818
0.7263,69.231
0.72825,68.644
0.7263,68.057
0.72043,67.666
0.71261,67.275
0.70186,66.688
0.68817,66.102
0.67155,65.711
0.65298,65.124
0.63148,64.733
0.60997,64.342
0.58651,63.755
0.56403,63.364
0.54057,62.973
0.51906,62.386
0.50049,61.799
0.48485,61.408
0.46921,60.821
0.45357,60.43
0.44086,59.844
0.42913,59.452
0.41838,58.866
0.40958,58.475
0.40176,58.083
0.39589,57.497
0.39003,57.106
0.38514,56.91
0.38123,56.91
0.37732,57.106
0.37537,58.279
0.37146,60.821
0.36852,65.515
0.36461,72.555
0.3607,81.356
0.35679,90.548
0.35288,99.544
0.34897,107.56
0.34506,114.6
0.34115,120.47
0.33724,124.58
0.33431,127.12
0.33138,128.68
0.32845,128.88
0.32551,128.1
0.3216,126.73
0.31769,124.77
0.31378,122.62
0.31085,120.27
0.30694,117.73
0.30303,114.8
0.3001,111.86
0.29619,108.54
0.29326,105.02
0.29032,101.11
0.28837,97.197
0.28641,93.09
0.28348,88.983
0.28055,85.463
0.27664,82.334
0.27273,79.791
0.26979,77.64
0.26686,76.076
0.26588,74.902
0.26882,74.12
0.27761,73.533
0.29032,73.142
0.3089,73.142
0.33724,72.947
0.37341,72.947
0.41642,72.947
0.46432,72.947
0.51222,72.947
0.56012,72.947
0.60313,72.947
0.64223,72.751
0.67449,72.555
0.70088,72.36
0.72043,71.969
0.73314,71.578
0.73998,71.186
0.74389,70.6
0.74487,70.209
0.74291,69.818
0.73705,69.231
0.72825,68.84
0.71652,68.253
0.70186,67.862
0.68524,67.275
0.66569,66.884
0.64321,66.493
0.62268,65.906
0.60313,65.515
0.58065,64.928
0.55816,64.537
0.53568,63.95
0.51417,63.364
0.49462,62.973
0.47703,62.582
0.46139,61.995
0.4477,61.408
0.435,61.017
0.42522,60.43
0.41642,60.039
0.40958,59.648
0.40469,59.257
0.39883,58.866
0.39394,58.67
0.39003,58.866
0.38514,59.452
0.38123,61.408
0.3783,65.319
0.37439,71.578
0.37048,79.791
0.36657,89.179
0.36364,98.37
0.3607,106.98
0.35777,114.6
0.35484,121.06
0.35093,125.75
0.348,129.07
0.34409,130.83
0.34115,131.42
0.33724,131.03
0.33431,129.86
0.3304,128.1
0.32747,126.14
0.32454,123.99
0.32063,121.64
0.31867,119.1
0.31672,116.36
0.31378,113.23
0.31085,110.1
0.30792,106.58
0.30499,102.67
0.30205,98.566
0.29912,94.459
0.29619,90.548
0.29326,87.223
0.28935,84.094
0.28641,81.747
0.28446,79.791
0.28348,78.227
0.28446,77.054
0.28935,76.467
0.30108,75.88
0.31965,75.685
0.34604,75.489
0.38221,75.489
0.42424,75.685
0.47116,75.685
0.51906,75.685
0.56696,75.685
0.61095,75.685
0.64516,75.489
0.67253,75.293
0.69892,74.902
0.72141,74.511
0.739,74.12
0.75171,73.533
0.75953,72.947
0.76246,72.555
0.76246,71.969
0.75855,71.382
0.75171,70.6
0.74096,70.013
0.72923,69.426
0.71554,68.84
0.69892,68.253
0.68035,67.666
0.65885,67.08
0.63636,66.493
0.6129,65.906
0.58944,65.319
0.56696,64.733
0.54545,64.342
0.52493,63.755
0.50635,63.364
0.48974,62.777
0.47605,62.19
0.4653,61.799
0.45455,61.213
0.44477,60.821
0.43695,60.235
0.43011,59.844
0.42424,59.452
0.41838,59.061
0.41349,58.866
0.40958,59.257
0.40469,60.43
0.40078,63.364
0.39785,68.84
0.39394,76.858
0.39101,86.245
0.3871,96.024
0.38221,105.22
0.3783,113.43
0.37439,120.47
0.3695,125.95
0.36559,129.86
0.3607,132.01
0.35679,132.99
0.35191,132.79
0.348,131.81
0.34409,130.25
0.34018,128.49
0.33627,126.34
0.33236,123.99
0.32845,121.64
0.32454,118.9
0.31965,115.97
0.31574,112.65
0.31183,109.32
0.30694,105.61
0.30303,101.5
0.29912,97.393
0.29619,93.09
0.29423,89.179
0.29032,85.854
0.28641,82.921
0.28152,80.574
0.27859,78.618
0.27664,77.249
0.27859,76.271
0.28641,75.489
0.30205,75.098
0.32649,74.707
0.35973,74.511
0.39394,74.511
0.43109,74.511
0.47507,74.316
0.52102,74.316
0.56696,74.316
0.60997,74.12
0.64712,73.924
0.67742,73.729
0.70186,73.338
0.72043,72.947
0.73314,72.36
0.74096,71.773
0.74389,71.382
0.74291,70.6
0.739,70.209
0.73314,69.426
0.72336,68.84
0.71163,68.253
0.69795,67.862
0.68133,67.275
0.66178,66.884
0.64125,66.297
0.61877,65.906
0.59433,65.515
0.57087,64.928
0.54936,64.537
0.52981,63.95
0.50929,63.364
0.48876,62.777
0.47019,62.19
0.45259,61.604
0.43793,61.213
0.42424,60.626
0.41349,60.235
0.40274,59.648
0.39394,59.257
0.3871,58.67
0.38025,58.279
0.37537,58.083
0.37146,57.888
0.36755,58.083
0.36364,59.061
0.35973,61.408
0.35582,66.102
0.35191,73.142
0.34702,81.943
0.34311,91.525
0.3392,100.52
0.33431,108.74
0.3304,115.97
0.32649,121.64
0.32356,125.75
0.32063,128.49
0.31672,129.66
0.31281,129.86
0.3089,129.07
0.30499,127.51
0.30108,125.55
0.29717,123.21
0.29423,120.67
0.29032,117.93
0.28641,115.19
0.28348,112.06
0.28055,108.74
0.27859,105.02
0.27566,101.11
0.27273,97.001
0.26882,92.894
0.26588,88.983
0.26197,85.658
0.25806,82.529
0.25415,79.987
0.25024,78.031
0.24731,76.467
0.24633,75.098
0.24829,74.316
0.25318,73.729
0.26491,73.533
0.28446,73.338
0.31281,73.142
0.34995,72.947
0.39296,72.947
0.43988,72.947
0.48876,72.947
0.53666,72.751
0.57967,72.555
0.61779,72.36
0.65005,72.164
0.67253,71.969
0.68915,71.578
0.70186,71.186
0.71065,70.6
0.71554,70.209
0.71652,69.622
0.71457,69.035
0.7087,68.449
0.69892,67.862
0.68719,67.275
0.67155,66.688
0.65396,66.297
0.63636,65.906
0.61877,65.319
0.59726,64.733
0.57478,64.342
0.55132,63.755
0.52884,63.364
0.50635,62.973
0.48485,62.386
0.4653,61.799
0.44868,61.408
0.43304,60.821
0.41935,60.43
0.40762,59.844
0.39883,59.452
0.39101,58.866
0.38416,58.475
0.37732,58.083
0.37146,57.692
0.36657,57.301
0.36168,57.301
0.35777,57.301
0.35386,58.083
0.34995,59.844
0.34604,63.755
0.34213,69.818
0.3392,78.031
0.33724,86.832
0.33333,95.632
0.32942,103.65
0.32551,110.89
0.3216,116.75
0.31769,121.45
0.31378,124.38
0.30987,126.14
0.30596,126.53
0.30205,125.95
0.29814,124.58
0.29521,122.82
0.29228,120.67
0.29032,118.12
0.28739,115.58
0.28446,112.65
0.28152,109.32
0.27859,105.8
0.27468,102.09
0.27175,97.979
0.26784,93.872
0.26491,89.765
0.26197,85.854
0.25806,82.529
0.25611,79.791
0.25415,77.445
0.2522,75.489
0.24927,74.12
0.24731,73.142
0.24731,72.36
0.25122,71.969
0.26197,71.773
0.28055,71.578
0.30694,71.578
0.34213,71.578
0.38416,71.578
0.43011,71.578
0.47116,71.578
0.50929,71.578
0.55034,71.382
0.58847,71.186
0.62366,70.991
0.652,70.795
0.67449,70.404
0.69208,70.013
0.70283,69.426
0.70968,69.035
0.71163,68.449
0.70968,67.862
0.70381,67.275
0.69599,66.884
0.68426,66.297
0.67058,65.906
0.65298,65.319
0.63343,64.928
0.61193,64.537
0.58944,64.146
0.56598,63.559
0.54252,63.168
0.51808,62.582
0.49462,62.19
0.47312,61.604
0.4565,61.213
0.44282,60.626
0.42913,60.235
0.4174,59.648
0.40567,59.257
0.39687,58.67
0.38905,58.279
0.38123,57.692
0.37537,57.301
0.37048,56.91
0.36559,56.715
0.36168,56.519
0.35875,56.715
0.35679,57.497
0.35386,59.452
0.35093,63.364
0.348,69.622
0.34409,77.836
0.34115,86.832
0.33724,95.437
0.33333,103.46
0.3304,110.5
0.32649,116.56
0.32258,121.06
0.31965,123.99
0.31769,125.55
0.31476,125.95
0.31183,125.36
0.3089,123.99
0.30499,122.23
0.30205,120.08
0.29912,117.73
0.29619,114.99
0.29228,112.26
0.28935,108.93
0.28641,105.61
0.28348,101.89
0.28055,97.784
0.27957,93.677
0.27664,89.57
0.2737,85.854
0.27077,82.334
0.26784,79.596
0.26393,77.249
0.261,75.293
0.25806,73.924
0.25611,72.947
0.25709,72.164
0.26295,71.773
0.27273,71.578
0.28641,71.382
0.30987,71.186
0.34018,71.186
0.3783,71.186
0.42229,71.186
0.46725,70.991
0.5132,70.991
0.55523,70.991
0.59433,70.795
0.62757,70.6
0.65494,70.404
0.67546,70.013
0.69013,69.622
0.69795,69.231
0.70381,68.644
0.70577,68.057
0.70479,67.666
0.6999,67.08
0.69208,66.688
0.68133,66.102
0.66667,65.711
0.65005,65.124
0.63148,64.537
0.61095,64.146
0.5914,63.755
0.57185,63.168
0.55132,62.777
0.52884,62.19
0.50831,61.799
0.48778,61.213
0.46921,60.821
0.45259,60.235
0.43793,59.844
0.42424,59.257
0.41349,58.866
0.40371,58.475
0.39492,57.888
0.38905,57.497
0.38416,57.106
0.37928,56.715
0.37439,56.519
0.37048,56.323
0.36657,56.519
0.36266,57.497
0.35875,59.648
0.35484,63.95
0.35191,70.6
0.348,79.205
0.34409,88.201
0.34115,97.001
0.3392,105.02
0.33529,112.06
0.33236,117.93
0.32845,122.43
0.32454,125.16
0.3216,126.73
0.31769,127.12
0.31378,126.53
0.31085,125.36
0.30694,123.4
0.30401,121.25
0.3001,118.9
0.29814,116.17
0.29521,113.23
0.29228,110.3
0.28935,106.78
0.28641,103.06
0.28348,99.348
0.27957,95.241
0.27664,91.134
0.2737,87.223
0.27077,83.703
0.26784,80.769
0.26491,78.422
0.26295,76.467
0.261,74.902
0.25904,73.924
0.26002,73.142
0.26491,72.751
0.27468,72.555
0.29326,72.36
0.31965,72.36
0.35386,72.36
0.39394,72.36
0.43988,72.555
0.48583,72.555
0.53177,72.555
0.56989,72.555
0.60117,72.36
0.63148,72.164
0.65885,71.969
0.68133,71.578
0.69795,71.186
0.70968,70.795
0.71652,70.209
0.71945,69.818
0.71848,69.231
0.71359,68.644
0.70577,68.253
0.69501,67.666
0.68328,67.275
0.66764,66.884
0.65005,66.297
0.6305,65.906
0.60899,65.515
0.58651,64.928
0.56305,64.537
0.54057,63.95
0.51906,63.559
0.49853,63.168
0.47996,62.582
0.46237,62.19
0.44966,61.604
0.43793,61.213
0.42815,60.821
0.41838,60.235
0.40958,59.844
0.40274,59.452
0.39687,59.061
0.39101,58.67
0.3871,58.279
0.38319,58.279
0.37928,58.67
0.37634,60.039
0.37341,63.168
0.37146,68.449
0.36852,76.271
0.36559,85.267
0.36168,94.655
0.35875,103.26
0.35484,111.08
0.35191,117.93
0.348,123.21
0.34506,127.12
0.34115,129.27
0.33822,130.25
0.33529,130.05
0.33236,129.07
0.3304,127.51
0.32845,125.55
0.32551,123.6
0.32258,121.25
0.31965,118.71
0.31672,115.97
0.31378,113.04
0.31085,109.91
0.3089,106.39
0.30596,102.67
0.30303,98.566
0.30205,94.655
0.3001,90.548
0.29814,87.027
0.29521,84.094
0.29228,81.552
0.28935,79.596
0.28739,78.031
0.28641,76.858
0.28935,76.076
0.29717,75.685
0.31183,75.293
0.33529,75.293
0.36559,75.293
0.39785,75.293
0.43304,75.293
0.47507,75.293
0.52004,75.293
0.56403,75.098
0.60606,74.902
0.64321,74.511
0.67449,74.12
0.69892,73.729
0.71848,73.142
0.73314,72.555
0.74194,71.969
0.74585,71.186
0.74585,70.6
0.74291,70.013
0.73803,69.426
0.73021,68.84
0.71945,68.449
0.70674,67.862
0.6911,67.471
0.67351,67.08
0.65298,66.493
0.63245,66.102
0.60997,65.711
0.58749,65.124
0.56696,64.733
0.54936,64.146
0.52981,63.559
0.51222,62.973
0.4956,62.386
0.48094,61.799
0.46725,61.213
0.4565,60.626
0.44673,60.235
0.43793,59.648
0.43109,59.257
0.42522,58.67
0.42033,58.279
0.41642,58.083
0.41251,58.279
0.40762,59.061
0.40274,61.017
0.39687,65.319
0.39198,71.969
0.3871,80.769
0.38319,90.352
0.3783,99.739
0.37341,108.34
0.36852,115.97
0.36461,122.23
0.3607,126.73
0.35679,129.66
0.35288,131.42
0.348,131.62
0.34409,131.23
0.34018,129.86
0.33627,128.1
0.33236,125.95
0.32747,123.79
0.32356,121.06
0.31965,118.32
0.31476,115.38
0.31183,112.26
0.3089,108.74
0.30499,105.02
0.30108,101.11
0.29717,97.001
0.29326,92.894
0.28935,88.983
0.28543,85.463
0.28055,82.725
0.27664,80.183
0.27175,78.227
0.26882,76.858
0.26882,75.685
0.27175,74.902
0.28055,74.511
0.29521,74.12
0.31867,73.924
0.35093,73.924
0.39003,73.924
0.43402,73.729
0.48094,73.729
0.52688,73.729
0.57087,73.533
0.60997,73.338
0.64321,73.142
0.66667,72.751
0.68426,72.36
0.69892,71.969
0.70968,71.578
0.71652,70.795
0.71945,70.404
0.71848,69.622
0.71457,69.035
0.70674,68.644
0.69697,68.057
0.68426,67.471
0.66862,66.884
0.65298,66.297
0.63539,65.906
0.61584,65.515
0.59531,64.928
0.57283,64.537
0.54936,63.95
0.52688,63.364
0.50538,62.973
0.48485,62.386
0.46628,61.799
0.44868,61.213
0.43402,60.626
0.42131,60.235
0.41153,59.844
0.40371,59.257
0.39589,58.866
0.38905,58.279
0.38221,57.888
0.37732,57.692
0.37243,57.497
0.36755,57.497
0.36364,58.083
0.35875,59.648
0.35484,63.168
0.35093,68.84
0.348,76.858
0.34506,86.05
0.34115,95.241
0.33724,103.65
0.33333,111.28
0.32942,117.54
0.32551,122.43
0.32063,125.55
0.31672,127.31
0.31281,128.1
0.3089,127.71
0.30499,126.53
0.30108,124.77
0.29814,122.62
0.29619,120.27
0.29326,117.54
0.29032,114.8
0.28641,111.67
0.2825,108.34
0.27957,104.82
0.27566,100.91
0.27175,96.806
0.26882,92.699
0.26491,88.788
0.26197,85.072
0.26002,81.943
0.25806,79.4
0.25513,77.249
0.2522,75.685
0.24927,74.316
0.24829,73.533
0.25122,72.947
0.25806,72.555
0.2737,72.164
0.29619,72.164
0.32747,71.969
0.36559,71.969
0.40958,71.969
0.44966,71.969
0.4868,71.773
0.52688,71.773
0.56696,71.578
0.60215,71.382
0.63245,70.991
0.65591,70.795
0.67449,70.404
0.68719,70.013
0.69501,69.426
0.69795,68.84
0.69795,68.253
0.69306,67.862
0.68622,67.275
0.67742,66.688
0.66471,66.297
0.65005,65.711
0.63343,65.319
0.61388,64.733
0.59238,64.342
0.57087,63.95
0.54741,63.559
0.52493,62.973
0.50342,62.582
0.48192,61.995
0.4653,61.408
0.45064,61.017
0.43597,60.43
0.42229,59.844
0.40958,59.452
0.39883,58.866
0.39003,58.475
0.38221,57.888
0.37439,57.497
0.36852,57.106
0.36364,56.715
0.35875,56.519
0.35582,56.715
0.35288,57.106
0.34995,58.475
0.34702,61.408
0.34311,66.493
0.34018,73.533
0.33627,82.138
0.33333,90.939
0.32942,99.348
0.32551,106.78
0.3216,113.23
0.31769,118.12
0.31476,121.84
0.31183,123.99
0.30987,124.77
0.30694,124.58
0.30303,123.6
0.3001,121.84
0.29717,119.69
0.29423,117.14
0.29032,114.6
0.28739,111.67
0.28348,108.54
0.28055,105.02
0.27761,101.3
0.27468,97.197
0.27273,93.286
0.27077,89.179
0.26784,85.463
0.26491,82.138
0.26197,79.205
0.25806,76.858
0.25513,75.098
0.25122,73.533
0.24829,72.555
0.24731,71.969
0.25024,71.382
0.25709,71.186
0.26784,70.991
0.28446,70.991
0.30987,70.991
0.34311,70.991
0.38319,70.991
0.42717,70.991
0.47214,70.795
0.51711,70.795
0.55816,70.6
0.59531,70.404
0.62561,70.209
0.65103,69.818
0.66764,69.231
0.6784,68.84
0.68622,68.449
0.69013,67.862
0.6911,67.471
0.68817,66.884
0.68133,66.297
0.67155,65.906
0.65885,65.319
0.64321,64.928
0.62561,64.537
0.60508,64.146
0.58553,63.559
0.56696,63.168
0.54643,62.777
0.52493,62.386
0.50342,61.799
0.48289,61.408
0.46432,60.821
0.4477,60.43
0.43206,59.844
0.41935,59.452
0.40762,59.061
0.39785,58.475
0.38905,58.083
0.38319,57.692
0.3783,57.106
0.37341,56.715
0.36852,56.519
0.36461,56.323
0.3607,56.519
0.35679,57.106
0.35386,58.67
0.34995,61.995
0.34702,67.666
0.34311,75.293
0.3392,83.898
0.33724,92.699
0.33431,100.72
0.33138,107.95
0.32845,114.02
0.32454,118.71
0.32063,122.03
0.31769,123.99
0.31378,124.77
0.30987,124.38
0.30694,123.21
0.30303,121.45
0.30205,119.3
0.30108,116.95
0.3001,114.21
0.29912,111.28
0.29619,108.15
0.29326,104.63
0.29032,100.91
0.28739,96.806
0.28348,92.699
0.28055,88.788
0.27761,85.072
0.2737,81.747
0.27077,79.009
0.26784,76.858
0.26491,75.098
0.26295,73.729
0.261,72.751
0.261,71.969
0.26295,71.578
0.26979,71.382
0.28348,71.186
0.30596,71.186
0.33627,71.186
0.37439,71.186
0.41838,70.991
0.4653,70.991
0.5132,70.991
0.55327,70.991
0.58749,70.795
0.6217,70.6
0.65298,70.404
0.67937,70.209
0.70088,69.818
0.71652,69.231
0.72434,68.84
0.72825,68.253
0.72825,67.666
0.72434,67.275
0.71652,66.688
0.70577,66.102
0.69404,65.711
0.6784,65.319
0.65982,64.733
0.6393,64.342
0.61779,63.95
0.59433,63.364
0.57087,62.973
0.54741,62.582
0.52493,61.995
0.50342,61.408
0.48387,61.017
0.46628,60.43
0.45259,60.039
0.44086,59.648
0.42913,59.061
0.41935,58.67
0.41056,58.083
0.40274,57.692
0.39589,57.301
0.39003,56.91
0.38514,56.715
0.38123,56.519
0.37732,56.91
0.37341,57.888
0.37048,60.235
0.36755,64.733
0.36461,71.773
0.36168,80.183
0.35777,89.374
0.35386,97.979
0.35093,105.8
0.34702,112.65
0.34311,118.32
0.3392,122.62
0.33529,125.36
0.33138,126.73
0.32747,127.12
0.32454,126.34
0.32258,125.16
0.31965,123.21
0.31672,121.06
0.31281,118.71
0.30987,115.97
0.30596,113.23
0.30205,110.1
0.29912,106.58
0.29521,102.87
0.29228,98.957
0.28837,94.85
0.28641,90.743
0.28446,87.027
0.28152,83.507
0.27859,80.769
0.27468,78.227
0.27175,76.467
0.26784,74.902
0.26588,73.924
0.26588,73.142
0.27077,72.555
0.2825,72.36
0.30108,72.164
0.32942,72.164
0.35875,71.969
0.39296,71.969
0.435,71.969
0.48192,71.969
0.52981,71.969
0.57576,71.773
0.61779,71.578
0.65396,71.382
0.68426,71.186
0.7087,70.795
0.7263,70.404
0.739,70.013
0.74487,69.426
0.74585,68.84
0.74487,68.253
0.73998,67.862
0.73314,67.275
0.72239,66.688
0.7087,66.297
0.69208,65.711
0.67253,65.319
0.65103,64.928
0.62854,64.537
0.60411,63.95
0.58065,63.364
0.55914,62.973
0.53959,62.582
0.51906,61.995
0.49853,61.408
0.47996,61.017
0.46334,60.43
0.44868,60.039
0.43597,59.452
0.42522,59.061
0.41544,58.67
0.40762,58.083
0.3998,57.692
0.39492,57.301
0.39101,57.106
0.38612,57.301
0.38221,57.888
0.3783,59.648
0.37439,62.973
0.37048,68.84
0.36657,76.858
0.36266,85.854
0.35875,95.046
0.35386,103.46
0.34995,110.89
0.34604,117.34
0.34311,122.23
0.34018,125.55
0.33627,127.71
0.33236,128.68
0.32942,128.68
0.32551,127.51
0.3216,125.95
0.31769,123.99
0.31281,121.84
0.3089,119.49
0.30596,116.75
0.30205,113.82
0.3001,110.69
0.29814,107.17
0.29521,103.65
0.2913,99.739
0.28837,95.632
0.28446,91.721
0.28152,87.81
0.27761,84.485
0.27468,81.747
0.27077,79.596
0.26686,77.836
0.26491,76.467
0.26393,75.489
0.26588,74.707
0.27273,74.316
0.28543,74.12
0.30596,73.924
0.33529,73.924
0.37341,73.924
0.4174,73.924
0.4653,73.924
0.51417,73.924
0.56207,73.729
0.60606,73.729
0.64418,73.533
0.67351,73.338
0.69501,72.947
0.71457,72.555
0.72923,72.164
0.73998,71.773
0.74682,71.186
0.74878,70.6
0.74682,70.209
0.74194,69.622
0.73314,69.035
0.72141,68.644
0.70674,68.253
0.6911,67.666
0.67351,67.275
0.65396,66.884
0.63245,66.297
0.60997,65.906
0.58651,65.515
0.56305,64.928
0.54057,64.342
0.52004,63.95
0.50049,63.364
0.48289,62.973
0.46725,62.386
0.45455,61.995
0.44379,61.408
0.435,61.017
0.42717,60.626
0.42033,60.039
0.41349,59.844
0.4086,59.452
0.40371,59.452
0.39785,59.844
0.39394,61.017
0.39101,63.95
0.3871,69.035
0.38416,76.467
0.38123,85.463
0.37928,94.85
0.37634,103.85
0.37341,111.86
0.3695,118.9
0.36657,124.38
0.36266,128.49
0.35875,130.83
0.35582,131.81
0.35191,131.81
0.34897,131.03
0.34506,129.47
0.34213,127.71
0.3392,125.36
0.33724,123.01
0.33529,120.47
0.33236,117.73
0.32845,114.8
0.32551,111.47
0.32258,107.95
0.31867,104.04
0.31574,99.935
0.31281,95.828
0.3089,91.721
0.30596,88.005
0.30401,84.876
0.30108,82.334
0.29814,80.378
0.29619,78.814
0.29423,77.64
0.29326,76.858
0.29521,76.271
0.30499,75.88
0.32454,75.685
0.35191,75.685
0.38807,75.685
0.43109,75.685
0.47801,75.685
0.52004,75.489
0.55816,75.293
0.59922,75.098
0.63832,74.902
0.67253,74.511
0.70186,74.12
0.72434,73.533
0.74096,72.947
0.75269,72.36
0.75855,71.773
0.76051,71.186
0.75855,70.6
0.75367,69.818
0.74585,69.231
0.73509,68.84
0.72141,68.253
0.70577,67.862
0.68719,67.275
0.66764,66.884
0.6393,66.493
0.6129,65.906
0.59335,65.515
0.57185,64.928
0.54448,64.537
0.51808,63.95
0.49853,63.364
0.48485,62.777
0.47116,62.386
0.45552,61.799
0.44575,61.213
0.43597,60.821
0.42522,60.235
0.4174,59.844
0.40958,59.452
0.40469,59.061
0.3998,58.866
0.39492,58.866
0.39003,59.648
0.38612,61.408
0.38123,65.124
0.37634,71.382
0.37243,79.596
0.36852,88.983
0.36168,98.175
0.35777,106.98
0.35288,114.6
0.34604,120.86
0.34115,125.55
0.33529,128.68
0.33138,130.25
0.32845,130.83
0.32454,130.44
0.32063,129.27
0.31672,127.31
0.31281,125.36
0.30792,122.82
0.30401,120.27
0.3001,117.54
0.29619,114.41
0.29228,111.08
0.28837,107.56
0.28543,103.65
0.28348,99.544
0.28055,95.437
0.27664,91.33
0.27273,87.614
0.26882,84.289
0.26491,81.747
0.261,79.596
0.25709,77.836
0.25611,76.467
0.25806,75.489
0.26686,75.098
0.28152,74.707
0.30108,74.316
0.32649,74.316
0.36168,74.316
0.40371,74.316
0.45064,74.12
0.49853,74.12
0.54545,74.12
0.58847,73.924
0.62659,73.729
0.65787,73.533
0.68328,73.142
0.70186,72.751
0.71359,72.164
0.71945,71.773
0.72239,71.186
0.72239,70.6
0.71848,70.013
0.71261,69.426
0.70283,69.035
0.69013,68.449
0.67546,67.862
0.65787,67.471
0.63734,66.884
0.61584,66.493
0.59238,65.906
0.57185,65.515
0.55132,64.928
0.52981,64.537
0.50831,63.95
0.48778,63.364
0.46921,62.973
0.45161,62.386
0.43597,61.799
0.42229,61.408
0.41056,60.821
0.40078,60.235
0.39198,59.844
0.38612,59.257
0.38123,58.866
0.37634,58.475
0.37146,58.279
0.36657,58.083
0.3607,58.279
0.35679,58.866
0.35288,60.626
0.34604,64.342
0.34213,70.209
0.33822,78.031
0.33431,87.027
0.3304,96.024
0.32747,104.24
0.32454,111.67
0.32063,117.73
0.31672,122.43
0.31183,125.55
0.30792,127.12
0.30401,127.71
0.30108,127.31
0.29717,125.95
0.29326,123.99
0.28935,121.84
0.28641,119.3
0.28446,116.56
0.28152,113.62
0.27859,110.3
0.27468,106.98
0.27175,103.06
0.26784,98.957
0.26491,94.85
0.261,90.548
0.25806,86.832
0.25415,83.507
0.25122,80.574
0.24731,78.422
0.24536,76.662
0.24536,75.293
0.24829,74.316
0.25415,73.533
0.26686,73.142
0.28837,72.947
0.31769,72.947
0.35484,72.751
0.39785,72.751
0.44379,72.751
0.49169,72.751
0.53763,72.751
0.57478,72.751
0.60508,72.555
0.63441,72.36
0.65885,72.164
0.67937,71.969
0.69306,71.578
0.70283,71.186
0.70772,70.6
0.70577,70.013
0.6999,69.426
0.67937,69.035
0.66667,68.449
0.65005,67.862
0.6217,67.471
0.6002,66.884
0.57674,66.297
0.55327,65.906
0.52981,65.515
0.50635,64.928
0.48485,64.537
0.4653,64.146
0.4477,63.559
0.43206,62.973
0.42033,62.582
0.41056,61.995
0.39687,61.604
0.38905,61.017
0.38221,60.626
0.37341,60.039
0.36852,59.648
0.36364,59.257
0.35973,58.67
0.35582,58.279
0.35191,57.888
0.34897,57.692
0.34702,57.692
0.34409,57.888
0.34018,58.67
0.33724,60.821
0.33333,64.537
0.32942,70.6
0.32551,78.618
0.3216,87.419
0.31672,95.828
0.31281,103.65
0.3089,110.5
0.30499,116.36
0.30303,120.67
0.3001,123.4
0.29814,124.97
0.29521,125.36
0.2913,124.77
0.28837,123.21
0.28446,121.25
0.28152,118.9
0.27859,116.36
0.27468,113.43
0.27175,110.3
0.26882,106.98
0.26686,103.26
0.26491,99.348
0.26295,95.241
0.26002,91.134
0.25611,87.223
0.25318,83.898
0.25122,80.769
0.25024,78.422
0.25318,76.467
0.261,74.902
0.27566,73.729
0.29814,72.947
0.32942,72.555
0.36168,72.164
0.39589,72.164
0.43793,71.969
0.48192,71.969
0.52688,71.969
0.56891,71.969
0.60606,71.969
0.63734,71.969
0.66178,71.969
0.68133,71.773
0.69404,71.578
0.69892,71.382
0.69697,71.186
0.69306,70.6
0.68719,70.209
0.67937,69.818
0.66862,69.231
0.65591,68.84
0.6393,68.253
0.62072,67.666
0.60117,67.275
0.57869,66.688
0.55718,66.102
0.5347,65.711
0.5132,65.319
0.49462,64.733
0.47801,64.342
0.46139,63.95
0.44575,63.364
0.43206,62.973
0.41935,62.386
0.4086,61.995
0.3998,61.408
0.39101,61.017
0.38514,60.43
0.37928,59.844
0.37439,59.452
0.37048,59.061
0.36755,58.475
0.36461,58.083
0.3607,57.692
0.35777,57.301
0.35484,57.106
0.35093,57.301
0.348,57.692
0.34409,59.061
0.34115,61.995
0.33724,67.08
0.33333,74.511
0.32942,83.116
0.32649,91.917
0.32454,100.33
0.3216,107.76
0.31769,114.41
0.31476,119.49
0.31085,123.21
0.30792,125.36
0.30401,126.53
0.30108,126.53
0.29717,125.75
0.29423,124.19
0.29032,122.03
0.28837,119.69
0.28641,117.14
0.28348,114.21
0.28055,111.08
0.27761,107.56
0.27468,103.85
0.27175,99.935
0.26784,95.828
0.26491,91.721
0.261,87.81
0.25806,84.289
0.25709,81.356
0.25806,79.009
0.26197,77.054
0.27077,75.489
0.28543,74.511
0.3089,73.729
0.34018,73.533
0.37732,73.142
0.42033,73.142
0.4653,73.142
0.51026,73.338
0.55327,73.338
0.5914,73.533
0.62463,73.533
0.64907,73.533
0.66569,73.533
0.68133,73.338
0.69208,73.142
0.69892,72.947
0.70283,72.751
0.70186,72.36
0.69697,71.969
0.68915,71.382
0.67742,70.795
0.66373,70.404
0.64614,70.013
0.62659,69.426
0.60802,69.035
0.58944,68.449
0.56891,68.057
0.54643,67.471
0.52493,67.08
0.50342,66.688
0.48387,66.102
0.46628,65.711
0.45064,65.319
0.43695,64.733
0.42424,64.342
0.41447,63.95
0.40665,63.364
0.40078,62.973
0.39492,62.582
0.39003,61.995
0.38514,61.604
0.38123,61.213
0.37732,60.821
0.37439,60.235
0.37048,60.039
0.36755,59.844
0.36461,59.844
0.3607,60.235
0.35777,61.799
0.35582,64.733
0.35288,70.209
0.34995,77.64
0.34702,86.636
0.34409,95.828
0.34115,104.24
0.33724,112.06
0.33431,118.71
0.33138,123.99
0.32845,127.51
0.32551,129.66
0.32258,130.64
0.31965,130.44
0.31867,129.47
0.31574,127.9
0.31378,125.95
0.31085,123.6
0.30792,121.25
0.30596,118.71
0.30303,115.78
0.3001,112.84
0.29717,109.32
0.29521,105.8
0.29228,101.69
0.29032,97.784
0.28935,93.677
0.28739,89.961
0.28543,86.636
0.28641,84.094
0.2913,81.747
0.30108,80.183
0.31867,78.814
0.34409,78.031
0.37634,77.445
0.41544,77.054
0.45943,76.858
0.5044,76.858
0.54252,76.858
0.57674,76.858
0.61095,77.054
0.64223,77.054
0.6696,76.858
0.69208,76.662
0.7087,76.467
0.72043,76.076
0.72727,75.685
0.73021,75.098
0.73021,74.511
0.72532,73.924
0.71848,73.338
0.70968,72.751
0.69795,72.164
0.68328,71.578
0.66667,70.991
0.64809,70.404
0.62757,70.013
0.60606,69.426
0.58456,69.035
0.56305,68.644
0.54252,68.253
0.52395,67.666
0.50538,67.08
0.49169,66.493
0.47898,65.906
0.46725,65.319
0.4565,64.733
0.4477,64.146
0.43891,63.559
0.43206,62.973
0.4262,62.582
0.42131,61.995
0.41642,61.408
0.41153,61.017
0.40762,60.43
0.40469,60.039
0.40078,59.844
0.39687,59.844
0.39296,60.43
0.38905,61.995
0.38416,65.515
0.38025,71.186
0.37537,79.4
0.37048,88.983
0.36559,98.566
0.3607,107.76
0.35679,115.78
0.35191,122.62
0.34897,127.9
0.34604,131.23
0.34213,133.18
0.33822,133.96
0.33431,133.77
0.3304,132.59
0.32551,130.83
0.3216,128.88
0.31672,126.73
0.31183,124.19
0.30792,121.64
0.30303,118.71
0.3001,115.58
0.29717,112.06
0.29423,108.34
0.29032,104.24
0.28641,99.935
0.28152,95.828
0.27761,91.721
0.27468,88.005
0.27468,85.072
0.27957,82.529
0.29032,80.574
0.3089,79.009
0.33529,78.031
0.36461,77.249
0.39589,76.662
0.43597,76.467
0.47898,76.271
0.52395,76.271
0.56598,76.271
0.60313,76.271
0.63539,76.271
0.66178,76.076
0.68231,75.88
0.69795,75.685
0.70772,75.489
0.71163,75.098
0.71261,74.707
0.71065,74.316
0.70577,73.729
0.69892,73.142
0.68915,72.555
0.67644,71.969
0.66178,71.382
0.64418,70.795
0.62463,70.209
0.60411,69.818
0.58162,69.231
0.55914,68.644
0.53959,68.253
0.52102,67.666
0.50147,67.275
0.48289,66.688
0.4653,66.102
0.44966,65.711
0.43695,65.124
0.42424,64.537
0.41447,63.95
0.40469,63.364
0.39687,62.973
0.39003,62.386
0.38514,61.799
0.38025,61.408
0.37634,61.017
0.37146,60.43
0.36755,60.039
0.36364,59.844
0.35875,59.648
0.35484,59.844
0.35093,60.626
0.34702,62.777
0.34311,66.688
0.3392,73.142
0.33431,81.552
0.33138,90.743
0.32845,99.935
0.32454,108.34
0.32063,115.78
0.31672,121.84
0.31281,126.14
0.3089,129.07
0.30499,130.64
0.30108,131.23
0.29717,130.64
0.29326,129.27
0.28935,127.31
0.28641,125.16
0.28446,122.62
0.28152,119.88
0.27859,116.95
0.27468,113.62
0.27175,110.1
0.26882,106.39
0.26491,102.28
0.261,97.979
0.25806,93.872
0.25415,89.961
0.25122,86.441
0.25024,83.507
0.2522,81.16
0.25806,79.205
0.26979,77.64
0.28935,76.662
0.31574,75.88
0.35093,75.489
0.39198,75.293
0.43793,75.098
0.48387,75.098
0.52884,75.098
0.57087,75.098
0.60704,74.902
0.63441,74.902
0.65494,74.707
0.67253,74.511
0.68719,74.316
0.69697,74.12
0.70186,73.729
0.70381,73.338
0.70088,72.947
0.69501,72.36
0.68622,71.969
0.67351,71.382
0.65885,70.795
0.64125,70.209
0.62366,69.622
0.60508,69.231
0.58456,68.644
0.56207,68.253
0.53959,67.666
0.51711,67.275
0.4956,66.688
0.47605,66.102
0.45748,65.711
0.44184,65.124
0.42815,64.537
0.41544,64.146
0.40665,63.559
0.39883,62.973
0.39198,62.582
0.38514,61.995
0.37928,61.408
0.37439,61.017
0.3695,60.626
0.36559,60.039
0.3607,59.648
0.35777,59.257
0.35386,59.061
0.34995,59.257
0.34604,59.648
0.34311,60.821
0.34018,63.559
0.33724,68.449
0.33333,75.489
0.32942,84.289
0.32551,93.286
0.3216,101.89
0.31769,109.52
0.31378,116.36
0.30987,121.64
0.30694,125.36
0.30303,127.71
0.3001,128.68
0.29814,128.68
0.29521,127.71
0.29228,126.14
0.28837,124.19
0.28446,121.84
0.28152,119.1
0.27761,116.17
0.27468,113.04
0.27077,109.71
0.26784,105.8
0.26491,101.69
0.26197,97.393
0.261,93.09
0.25806,88.983
0.25513,85.463
0.2522,82.529
0.2522,79.987
0.25513,78.031
0.26393,76.467
0.27859,75.293
0.30205,74.707
0.33333,74.12
0.37146,73.924
0.41447,73.729
0.45357,73.729
0.48974,73.533
0.52981,73.533
0.56891,73.533
0.60313,73.533
0.63343,73.533
0.65689,73.533
0.67546,73.338
0.68915,73.142
0.69697,72.947
0.6999,72.555
0.6999,72.164
0.69501,71.773
0.68817,71.186
0.6784,70.6
0.66471,70.209
0.64907,69.622
0.6305,69.231
0.60997,68.644
0.58749,68.253
0.56403,67.666
0.54154,67.275
0.51906,66.688
0.49658,66.297
0.47703,65.906
0.46041,65.319
0.44673,64.733
0.43304,64.342
0.42033,63.755
0.40958,63.168
0.3998,62.777
0.39198,62.19
0.38416,61.799
0.3783,61.213
0.37341,60.821
0.36852,60.235
0.36461,59.844
0.3607,59.452
0.35875,59.061
0.35582,58.866
0.35191,58.866
0.34897,59.257
0.34506,60.626
0.34213,63.364
0.33822,68.253
0.33431,75.293
0.3304,83.898
0.32747,92.894
0.32356,101.5
0.31965,109.32
0.31672,116.17
0.31476,121.45
0.31183,125.36
0.3089,127.71
0.30499,128.88
0.30205,128.88
0.29814,128.1
0.29423,126.53
0.2913,124.58
0.28739,122.23
0.28446,119.69
0.28055,116.75
0.27859,113.62
0.27664,110.3
0.2737,106.39
0.27077,102.48
0.26784,98.175
0.26491,94.068
0.261,89.961
0.25806,86.245
0.25611,83.312
0.25513,80.769
0.25904,78.618
0.26784,77.054
0.28446,75.88
0.30401,75.098
0.32845,74.511
0.36266,74.12
0.40274,74.12
0.4477,73.924
0.49267,73.924
0.53666,73.924
0.57771,73.924
0.6129,73.924
0.64321,73.924
0.66667,73.729
0.68524,73.729
0.69599,73.533
0.70186,73.338
0.70577,72.947
0.70577,72.555
0.70186,72.164
0.69501,71.578
0.68524,70.991
0.67253,70.6
0.65591,70.013
0.63734,69.426
0.61681,69.035
0.59531,68.449
0.57185,68.057
0.55132,67.471
0.53275,67.08
0.51222,66.493
0.49267,66.102
0.4741,65.515
0.4565,64.928
0.44184,64.537
0.42815,63.95
0.4174,63.364
0.40762,62.973
0.39883,62.386
0.39101,61.799
0.38612,61.408
0.38123,60.821
0.37732,60.43
0.37243,59.844
0.36852,59.452
0.36559,59.061
0.36168,58.866
0.35777,58.866
0.35386,59.452
0.35093,60.821
0.34702,63.95
0.34311,69.035
0.34213,76.662
0.34213,85.658
0.34115,94.85
0.3392,103.65
0.33529,111.67
0.33138,118.51
0.32747,123.99
0.32356,127.9
0.32063,130.25
0.31672,131.42
0.31281,131.42
0.3089,130.64
0.30499,129.07
0.30205,127.12
0.3001,124.77
0.29619,122.23
0.29326,119.3
0.28935,116.36
0.28543,113.23
0.28152,109.52
0.27761,105.8
0.27468,101.69
0.27077,97.393
0.26588,93.286
0.26295,89.374
0.26002,85.854
0.26002,83.116
0.26393,80.769
0.27273,78.814
0.28837,77.445
0.31281,76.467
0.34604,75.685
0.3871,75.293
0.43402,75.098
0.48387,74.902
0.5347,74.707
0.5826,74.707
0.62659,74.707
0.6608,74.707
0.68719,74.511
0.71065,74.511
0.73118,74.316
0.74585,74.12
0.75562,73.924
0.76051,73.533
0.76149,73.338
0.75855,72.751
0.75073,72.36
0.73998,71.773
0.7263,71.186
0.7087,70.795
0.6911,70.209
0.67253,69.622
0.65103,69.035
0.62659,68.644
0.60215,68.057
0.57674,67.666
0.5523,67.08
0.52884,66.688
0.50733,66.102
0.48778,65.515
0.47019,64.928
0.45455,64.537
0.44282,63.95
0.43304,63.364
0.42326,62.973
0.41447,62.386
0.40665,61.995
0.3998,61.408
0.39394,60.821
0.38807,60.43
0.38319,59.844
0.3783,59.648
0.37341,59.257
