0.34409,143.94
0.3392,145.11
0.33627,145.11
0.33138,144.13
0.32649,142.37
0.3216,140.42
0.31672,138.07
0.31183,135.53
0.30792,132.79
0.30303,130.05
0.29814,127.12
0.29423,123.79
0.29032,120.27
0.28641,116.36
0.28348,112.26
0.28055,107.76
0.27761,103.06
0.2737,98.566
0.26979,94.459
0.26588,90.939
0.26393,88.201
0.26393,85.854
0.26979,84.289
0.28152,83.116
0.3001,82.334
0.32845,81.943
0.35777,81.747
0.39003,81.747
0.43109,81.943
0.47605,81.943
0.52199,81.943
0.56598,81.747
0.60704,81.747
0.64321,81.552
0.67449,81.356
0.69892,81.16
0.71945,80.769
0.73412,80.183
0.74291,79.791
0.74682,79.009
0.74878,78.422
0.74878,77.64
0.74487,76.858
0.739,76.271
0.72923,75.489
0.7175,74.902
0.70283,74.316
0.68622,73.533
0.66667,72.947
0.64516,72.36
0.62268,71.969
0.60215,71.382
0.58162,70.795
0.56109,70.404
0.53959,69.818
0.51906,69.231
0.50049,68.644
0.48387,68.057
0.46823,67.471
0.45552,66.884
0.44379,66.493
0.43402,65.906
0.42522,65.319
0.41838,64.928
0.41349,64.342
0.40762,63.95
0.40176,63.559
0.39589,63.168
0.39003,63.168
0.38514,63.364
0.37928,64.342
0.37439,66.297
0.36852,70.209
0.36364,76.858
0.35777,86.05
0.35288,96.415
0.348,107.17
0.34409,116.95
0.3392,125.55
0.33431,132.4
0.32942,137.29
0.32454,140.22
0.31965,141.98
0.31476,142.37
0.30987,141.59
0.30499,140.22
0.3001,138.07
0.29619,135.92
0.29228,133.18
0.28935,130.64
0.28641,127.71
0.2825,124.77
0.27859,121.45
0.27468,117.73
0.27077,113.82
0.26686,109.52
0.26295,104.82
0.26002,100.33
0.25611,96.024
0.2522,92.112
0.24927,88.788
0.24731,86.245
0.24829,84.094
0.25122,82.529
0.25904,81.552
0.2737,80.965
0.29619,80.769
0.32649,80.574
0.36364,80.574
0.40665,80.574
0.45259,80.574
0.49951,80.769
0.54448,80.769
0.58162,80.574
0.61193,80.378
0.64223,80.183
0.6696,79.987
0.68426,79.596
0.69208,79.205
0.69892,78.618
0.70479,78.031
0.70772,77.445
0.70772,76.858
0.70479,76.076
0.69892,75.489
0.69013,74.707
0.68035,74.12
0.66764,73.533
0.65298,72.947
0.63539,72.36
0.61584,71.773
0.59531,71.186
0.5738,70.6
0.5523,70.209
0.53177,69.622
0.51124,69.035
0.49365,68.449
0.47703,68.057
0.46334,67.471
0.45161,66.884
0.44086,66.297
0.43109,65.906
0.42229,65.319
0.41447,64.928
0.40762,64.342
0.40078,63.95
0.39492,63.364
0.39003,62.973
0.38514,62.777
0.38025,62.777
0.37537,62.973
0.37146,63.755
0.36852,65.515
0.36461,69.231
0.35973,75.489
0.35582,84.094
0.35093,94.068
0.34604,104.43
0.34115,114.21
0.33627,122.82
0.33138,129.86
0.32649,135.14
0.3216,138.46
0.31867,140.42
0.31574,141
0.31183,140.61
0.30792,139.24
0.30401,137.29
0.3001,135.14
0.29619,132.59
0.29228,130.05
0.28837,127.12
0.28446,123.99
0.28055,120.67
0.27761,116.95
0.2737,113.04
0.27175,108.74
0.26979,104.24
0.26784,99.544
0.26393,95.241
0.261,91.33
0.25806,88.201
0.25611,85.463
0.25513,83.507
0.25806,81.943
0.26588,80.965
0.27957,80.378
0.30108,79.987
0.32551,79.987
0.35288,79.987
0.38807,79.987
0.42913,80.183
0.47214,80.183
0.51515,80.183
0.55523,80.183
0.59238,79.987
0.62463,79.791
0.65103,79.596
0.67351,79.4
0.69013,78.814
0.70283,78.422
0.70968,77.836
0.71261,77.249
0.71261,76.467
0.71065,75.88
0.70577,75.098
0.69795,74.511
0.68719,73.924
0.67351,73.338
0.65787,72.555
0.6393,72.164
0.61975,71.578
0.59824,70.991
0.57869,70.6
0.56109,70.013
0.54154,69.426
0.52199,68.84
0.50342,68.253
0.48583,67.666
0.47019,67.275
0.4565,66.688
0.44477,66.102
0.43402,65.711
0.42522,65.124
0.4174,64.537
0.41056,64.146
0.40469,63.755
0.3998,63.168
0.39589,62.973
0.39101,62.582
0.38612,62.582
0.38123,62.973
0.37732,63.755
0.37243,66.102
0.36852,70.404
0.36364,77.249
0.35875,86.441
0.35386,96.61
0.34995,106.98
0.34604,116.56
0.34213,124.77
0.33724,131.42
0.33236,136.31
0.32845,139.24
0.32356,140.81
0.31867,141
0.31476,140.42
0.31085,138.85
0.30694,137.09
0.30303,134.75
0.3001,132.4
0.29717,129.66
0.29423,126.92
0.29032,123.79
0.28739,120.47
0.28348,116.75
0.27957,113.04
0.27664,108.74
0.27273,104.24
0.26979,99.544
0.26588,95.241
0.26197,91.33
0.25904,88.005
0.25806,85.463
0.25904,83.312
0.26197,81.943
0.26979,80.965
0.28446,80.378
0.30499,79.987
0.33431,79.987
0.3695,79.987
0.40958,80.183
0.45357,80.183
0.49756,80.183
0.53959,80.183
0.57478,80.183
0.60313,79.987
0.63148,79.791
0.65689,79.596
0.6784,79.205
0.69501,78.814
0.70772,78.227
0.71652,77.64
0.72141,77.054
0.72239,76.467
0.71945,75.685
0.71359,75.098
0.70479,74.316
0.69404,73.729
0.68231,73.142
0.66667,72.555
0.64907,71.969
0.62854,71.382
0.60704,70.795
0.58553,70.404
0.56305,69.818
0.54154,69.231
0.52102,68.84
0.50244,68.253
0.48485,67.666
0.47116,67.08
0.45943,66.688
0.44868,66.102
0.43793,65.711
0.42913,65.124
0.42131,64.537
0.41349,64.146
0.40665,63.559
0.40078,63.168
0.39589,62.777
0.39003,62.582
0.38514,62.582
0.38025,62.973
0.37634,64.342
0.37341,67.08
0.3695,72.164
0.36461,79.987
0.35973,89.765
0.35484,100.33
0.34995,110.5
0.34506,119.69
0.34018,127.71
0.33529,133.96
0.3304,138.27
0.32649,141
0.32258,142.37
0.31965,142.37
0.31574,141.59
0.31183,140.03
0.30792,138.07
0.30401,135.72
0.3001,133.18
0.29619,130.64
0.29228,127.71
0.28837,124.77
0.28446,121.45
0.28055,117.93
0.27761,114.02
0.27468,109.91
0.27273,105.41
0.26979,100.91
0.26686,96.415
0.26393,92.503
0.26002,88.983
0.25806,86.245
0.25904,84.289
0.26393,82.725
0.27468,81.552
0.29228,80.965
0.31769,80.574
0.34506,80.378
0.37634,80.378
0.41447,80.378
0.45748,80.574
0.50244,80.574
0.54545,80.574
0.58553,80.378
0.6217,80.183
0.65298,79.987
0.6784,79.791
0.69892,79.596
0.71457,79.205
0.72532,78.618
0.73118,78.227
0.73314,77.64
0.73314,76.858
0.73021,76.271
0.72434,75.685
0.71652,75.098
0.70479,74.511
0.6911,73.924
0.67449,73.338
0.65591,72.751
0.63636,72.164
0.61779,71.578
0.59824,70.991
0.57967,70.6
0.55914,70.013
0.53861,69.426
0.51808,69.035
0.49951,68.449
0.48289,67.862
0.46725,67.471
0.45455,67.08
0.44282,66.493
0.43304,66.102
0.42424,65.515
0.41642,65.124
0.41056,64.537
0.40469,64.146
0.3998,63.95
0.39394,63.755
0.38905,63.95
0.38416,64.733
0.37928,66.688
0.37439,70.6
0.3695,77.054
0.36461,85.854
0.35973,96.415
0.35484,106.78
0.35093,116.56
0.34702,125.36
0.34311,132.4
0.33822,137.68
0.33333,141
0.32942,142.76
0.32454,143.55
0.31965,143.16
0.31574,141.98
0.31085,140.22
0.30694,138.27
0.30303,136.11
0.29912,133.57
0.29619,131.03
0.29326,128.49
0.2913,125.55
0.28739,122.43
0.28446,118.9
0.28152,114.99
0.27859,110.69
0.27468,106.39
0.27175,101.89
0.26784,97.784
0.26491,94.068
0.26295,90.939
0.26295,88.396
0.26588,86.245
0.27273,84.876
0.28543,83.898
0.30596,83.312
0.33333,82.921
0.3695,82.725
0.41056,82.725
0.45552,82.725
0.50244,82.725
0.54741,82.725
0.59042,82.725
0.62854,82.725
0.65787,82.529
0.68133,82.334
0.70283,81.943
0.72043,81.552
0.73509,81.16
0.74585,80.574
0.75269,79.987
0.75562,79.4
0.75464,78.618
0.75171,78.031
0.74487,77.249
0.73509,76.662
0.72336,76.076
0.71065,75.293
0.69404,74.902
0.67546,74.316
0.65591,73.729
0.63441,73.338
0.6129,72.751
0.59042,72.164
0.56891,71.578
0.54839,70.991
0.52884,70.6
0.51124,70.013
0.4956,69.426
0.48289,69.035
0.47214,68.449
0.46237,68.057
0.45357,67.471
0.44477,66.884
0.43793,66.297
0.43109,65.906
0.42522,65.319
0.41935,65.124
0.41447,64.928
0.40958,65.319
0.40469,66.493
0.3998,69.231
0.39687,74.707
0.39198,82.725
0.3871,93.09
0.38221,104.04
0.37732,114.8
0.37243,124.19
0.36755,132.2
0.36266,138.27
0.35777,142.37
0.35288,144.92
0.348,145.89
0.34409,145.89
0.34115,144.92
0.33724,143.35
0.33333,141.4
0.32942,139.24
0.32551,136.9
0.3216,134.35
0.31769,131.81
0.31378,128.88
0.31085,125.95
0.30694,122.62
0.30401,118.9
0.3001,114.99
0.29814,110.69
0.29521,106.19
0.29228,101.69
0.28935,97.393
0.28543,93.677
0.28348,90.548
0.28348,88.005
0.28837,86.05
0.29814,84.681
0.31574,83.898
0.34115,83.312
0.37537,82.921
0.4086,82.725
0.44379,82.725
0.48583,82.725
0.53079,82.725
0.5738,82.529
0.61486,82.529
0.65103,82.334
0.68133,81.943
0.70674,81.552
0.7263,81.16
0.74096,80.769
0.75171,79.987
0.75758,79.4
0.75855,78.814
0.7566,78.031
0.75367,77.249
0.74682,76.662
0.73803,75.88
0.7263,75.293
0.71261,74.707
0.69599,74.12
0.67742,73.533
0.65591,72.947
0.63441,72.36
0.61095,71.969
0.59042,71.382
0.57087,70.795
0.55034,70.209
0.52981,69.622
0.51026,69.035
0.49169,68.449
0.47605,67.862
0.46139,67.471
0.44868,66.884
0.43793,66.297
0.42815,65.906
0.41935,65.319
0.41251,64.733
0.40567,64.342
0.40078,63.95
0.39589,63.559
0.39003,63.364
0.38416,63.559
0.37928,64.537
0.37341,67.08
0.36755,71.773
0.36266,79.4
0.35679,89.179
0.35191,100.13
0.34604,110.89
0.34115,120.86
0.33724,129.27
0.33333,135.72
0.32845,140.42
0.32258,143.16
0.31769,144.52
0.31281,144.72
0.30792,143.94
0.30401,142.37
0.29912,140.61
0.29521,138.27
0.29032,135.92
0.28641,133.38
0.2825,130.83
0.28055,127.9
0.27664,124.97
0.2737,121.64
0.26979,117.93
0.26588,114.02
0.26197,109.71
0.25806,105.22
0.25415,100.52
0.25024,96.219
0.24633,92.308
0.24438,89.179
0.24438,86.636
0.24829,84.681
0.25611,83.116
0.27077,82.334
0.29326,81.552
0.32356,81.16
0.36168,81.16
0.40469,81.16
0.45161,81.16
0.49951,81.16
0.54545,80.965
0.58847,80.965
0.62659,80.769
0.65494,80.574
0.67644,80.378
0.69599,79.987
0.71261,79.596
0.72532,79.009
0.73412,78.422
0.73803,77.836
0.739,77.249
0.73607,76.662
0.73021,75.88
0.72239,75.293
0.71065,74.707
0.69795,73.924
0.68328,73.338
0.66667,72.751
0.64712,72.164
0.62561,71.578
0.60215,70.991
0.57869,70.6
0.55621,70.013
0.53275,69.426
0.51124,68.84
0.49169,68.253
0.4741,67.666
0.45748,67.275
0.44477,66.688
0.435,66.102
0.42424,65.711
0.41447,65.124
0.40665,64.733
0.3998,64.146
0.39394,63.559
0.38807,63.168
0.38221,62.777
0.37732,62.582
0.37243,62.777
0.36755,63.364
0.36364,64.928
0.3607,68.449
0.35679,74.316
0.35191,82.725
0.34702,93.09
0.34213,103.46
0.33724,113.43
0.33236,122.23
0.32747,129.66
0.32258,135.14
0.31769,138.85
0.31378,141
0.3089,141.98
0.30596,141.59
0.30303,140.61
0.29912,138.85
0.29521,136.7
0.2913,134.35
0.28739,131.81
0.28348,129.27
0.27957,126.34
0.27566,123.21
0.27175,119.88
0.26882,116.17
0.26491,112.06
0.26295,107.56
0.261,103.06
0.25806,98.566
0.25513,94.263
0.25122,90.548
0.24829,87.419
0.24731,85.072
0.24829,83.116
0.25415,81.747
0.26588,80.769
0.28446,80.378
0.31183,79.987
0.34604,79.987
0.38025,79.791
0.41544,79.987
0.45748,79.987
0.50049,79.987
0.5435,79.987
0.5826,79.791
0.61779,79.596
0.64809,79.4
0.67253,79.205
0.6911,78.814
0.70577,78.227
0.71554,77.836
0.72043,77.249
0.72043,76.662
0.71945,75.88
0.71554,75.293
0.7087,74.707
0.69892,73.924
0.68622,73.338
0.67058,72.751
0.65298,72.164
0.63343,71.578
0.6129,70.991
0.59042,70.6
0.56794,70.013
0.54741,69.426
0.52884,68.84
0.50929,68.253
0.49071,67.666
0.4741,67.275
0.45846,66.688
0.44477,66.102
0.43206,65.711
0.42229,65.124
0.41349,64.733
0.40469,64.146
0.39785,63.755
0.39296,63.168
0.38807,62.777
0.38319,62.386
0.37928,62.19
0.37439,62.19
0.37048,62.777
0.36559,64.146
0.3607,67.08
0.35679,72.555
0.35191,80.378
0.34702,90.352
0.34213,100.72
0.3392,110.69
0.33529,119.49
0.33138,127.12
0.32747,132.99
0.32258,136.9
0.31867,139.24
0.31378,140.61
0.30987,140.61
0.30499,139.64
0.30108,138.07
0.29717,135.92
0.29326,133.77
0.28935,131.23
0.28641,128.49
0.28446,125.55
0.28152,122.62
0.27761,119.1
0.27468,115.38
0.27077,111.47
0.26784,107.17
0.26393,102.48
0.261,97.979
0.25709,93.872
0.25318,90.157
0.25024,87.027
0.24927,84.681
0.25024,82.725
0.25415,81.356
0.26393,80.574
0.27957,79.987
0.30303,79.791
0.33333,79.596
0.37146,79.596
0.41447,79.596
0.45943,79.596
0.50538,79.596
0.54936,79.596
0.58944,79.4
0.62072,79.205
0.64516,79.009
0.66862,78.618
0.68817,78.422
0.70381,77.836
0.71457,77.445
0.72239,76.858
0.72532,76.271
0.72532,75.489
0.72239,74.902
0.71554,74.316
0.70577,73.533
0.69404,72.947
0.68035,72.36
0.66373,71.773
0.64516,71.186
0.62463,70.6
0.60215,70.209
0.57967,69.622
0.55718,69.035
0.5347,68.644
0.51417,68.057
0.49462,67.471
0.47703,66.884
0.46041,66.493
0.44868,65.906
0.43793,65.515
0.42815,64.928
0.41935,64.342
0.41153,63.95
0.40371,63.364
0.39785,62.973
0.39198,62.582
0.38612,62.19
0.38123,61.995
0.37634,61.995
0.37146,62.386
0.36852,63.755
0.36461,66.688
0.3607,71.969
0.35679,79.987
0.35191,89.765
0.34702,100.33
0.34213,110.5
0.33724,119.49
0.33236,127.12
0.32747,133.18
0.32258,137.29
0.31867,139.83
0.31378,141
0.31085,141.2
0.30792,140.22
0.30401,138.66
0.30108,136.7
0.29717,134.55
0.29228,132.2
0.28837,129.66
0.28446,126.92
0.28055,123.99
0.27664,120.67
0.27273,117.14
0.26979,113.23
0.26686,108.93
0.26491,104.43
0.26295,99.935
0.25904,95.632
0.25611,91.917
0.25318,88.592
0.25024,85.854
0.25122,83.898
0.25513,82.138
0.26491,81.16
0.28152,80.378
0.30694,79.987
0.3392,79.791
0.37243,79.791
0.40762,79.596
0.44966,79.596
0.49365,79.596
0.53763,79.596
0.57967,79.4
0.61681,79.4
0.64907,79.009
0.67644,78.814
0.69795,78.422
0.71359,78.031
0.72532,77.445
0.73118,76.858
0.73314,76.271
0.73216,75.685
0.72923,75.098
0.72336,74.511
0.71457,73.729
0.70381,73.142
0.68915,72.555
0.67253,71.969
0.65298,71.382
0.63245,70.795
0.60997,70.404
0.58749,69.818
0.56696,69.231
0.54741,68.84
0.52786,68.253
0.50831,67.666
0.48974,67.08
0.47214,66.688
0.45748,66.102
0.44379,65.515
0.43206,64.928
0.42229,64.537
0.41251,63.95
0.40469,63.364
0.39883,62.973
0.39394,62.582
0.38905,62.19
0.38319,61.995
0.3783,61.995
0.37341,62.582
0.36852,63.95
0.36364,67.08
0.35875,72.555
0.35386,80.769
0.34897,90.743
0.34506,101.5
0.34311,111.47
0.34018,120.47
0.33724,128.1
0.33333,133.96
0.32845,137.87
0.32454,140.42
0.31965,141.59
0.31574,141.59
0.31085,140.61
0.30694,139.05
0.30205,137.09
0.29814,134.94
0.29423,132.79
0.29032,130.25
0.28837,127.51
0.28543,124.58
0.28152,121.45
0.27859,117.93
0.27468,114.21
0.27077,110.1
0.26686,105.61
0.26295,101.11
0.25904,96.61
0.25513,92.699
0.2522,89.179
0.25024,86.441
0.25024,84.289
0.25513,82.725
0.26393,81.552
0.27957,80.769
0.30303,80.378
0.33431,80.183
0.37341,79.987
0.4174,79.987
0.46334,79.987
0.51026,80.183
0.55621,80.183
0.59726,79.987
0.62952,79.987
0.65494,79.791
0.67937,79.596
0.70088,79.205
0.7175,78.814
0.73021,78.422
0.73803,78.031
0.74194,77.445
0.74291,76.662
0.73998,76.271
0.73412,75.489
0.72532,74.902
0.71457,74.316
0.70186,73.729
0.68622,73.142
0.66764,72.555
0.64809,72.164
0.62561,71.578
0.60313,70.991
0.57967,70.404
0.55621,70.013
0.5347,69.426
0.51417,69.035
0.49462,68.449
0.47801,67.862
0.46432,67.471
0.45259,66.884
0.44184,66.493
0.43206,65.906
0.42326,65.515
0.41447,64.928
0.40762,64.537
0.40176,63.95
0.39589,63.559
0.39003,63.364
0.38514,63.559
0.38025,64.146
0.37634,65.906
0.37341,69.426
0.3695,75.685
0.36461,84.485
0.3607,94.85
0.35679,105.41
0.35191,115.38
0.34702,124.19
0.34311,131.42
0.33822,136.9
0.33431,140.81
0.32942,142.96
0.32551,143.74
0.32258,143.74
0.31965,142.57
0.31672,141
0.31378,139.24
0.30987,137.09
0.30596,134.75
0.30303,132.2
0.29912,129.66
0.29619,126.73
0.29228,123.6
0.28935,120.08
0.28641,116.36
0.28446,112.45
0.2825,108.15
0.28055,103.65
0.27761,99.348
0.2737,95.437
0.27175,92.112
0.26979,89.374
0.27077,87.027
0.27664,85.463
0.28837,84.289
0.30792,83.507
0.33431,83.116
0.3695,82.921
0.40371,82.725
0.43988,82.725
0.48192,82.725
0.52688,82.725
0.57087,82.725
0.61095,82.529
0.64712,82.138
0.6784,81.943
0.70381,81.356
0.72336,80.965
0.739,80.378
0.74976,79.596
0.75464,79.009
0.7566,78.227
0.75562,77.64
0.75269,76.858
0.74682,76.271
0.73803,75.489
0.72727,74.902
0.71359,74.316
0.69697,73.924
0.6784,73.338
0.65885,72.751
0.63734,72.164
0.61486,71.773
0.59433,71.186
0.57576,70.6
0.55621,70.013
0.53666,69.231
0.51808,68.644
0.50147,68.057
0.48583,67.471
0.47312,66.884
0.46139,66.297
0.45064,65.711
0.44184,65.319
0.43402,64.733
0.42815,64.146
0.42229,63.755
0.4174,63.168
0.41153,62.973
0.40665,63.168
0.40078,63.755
0.39589,65.711
0.39003,69.622
0.38514,76.271
0.37928,85.267
0.37439,96.024
0.36852,106.78
0.36364,116.75
0.35875,125.55
0.35484,132.59
0.35093,137.87
0.34604,141.2
0.34115,143.16
0.33627,143.94
0.33138,143.55
0.32649,142.37
0.3216,140.61
0.31672,138.66
0.31183,136.31
0.30792,134.16
0.30401,131.62
0.30108,128.88
0.29717,125.95
0.29326,122.62
0.28837,119.3
0.28446,115.38
0.28055,111.08
0.27566,106.58
0.27175,102.09
0.26686,97.588
0.26295,93.677
0.25904,90.352
0.25709,87.614
0.25806,85.267
0.26197,83.703
0.27273,82.529
0.28935,81.747
0.31476,81.356
0.34702,81.16
0.3871,80.965
0.43109,80.965
0.47703,80.965
0.52199,80.769
0.565,80.769
0.60411,80.769
0.63343,80.574
0.65689,80.183
0.6784,79.791
0.69599,79.4
0.70968,79.009
0.71945,78.422
0.72532,77.836
0.72825,77.054
0.72727,76.467
0.72336,75.685
0.71554,75.098
0.70577,74.316
0.69404,73.729
0.68035,73.142
0.66569,72.555
0.64809,71.969
0.62757,71.382
0.60606,70.795
0.58358,70.404
0.56012,69.818
0.53763,69.231
0.51613,68.84
0.49658,68.253
0.47801,67.666
0.46041,67.08
0.4477,66.493
0.43597,65.906
0.4262,65.515
0.41642,64.928
0.40762,64.537
0.3998,63.95
0.39198,63.559
0.38612,62.973
0.38025,62.582
0.37537,62.386
0.3695,62.386
0.36461,62.777
0.35973,63.755
0.35582,66.493
0.35191,71.382
0.348,79.009
0.34311,88.983
0.33822,99.544
0.33333,109.91
0.32845,119.3
0.32356,127.12
0.31867,133.38
0.31378,137.68
0.3089,140.61
0.30401,141.98
0.30108,142.18
0.29814,141.4
0.29521,140.03
0.2913,138.07
0.28641,135.72
0.2825,133.38
0.27957,130.64
0.27566,127.71
0.27175,124.77
0.26784,121.45
0.26393,117.73
0.26002,113.82
0.25611,109.52
0.25415,105.02
0.2522,100.52
0.24927,96.024
0.24633,92.112
0.24242,88.788
0.24047,86.05
0.23949,83.898
0.24242,82.334
0.24927,81.16
0.26393,80.378
0.28641,79.987
0.31574,79.791
0.34702,79.791
0.38025,79.791
0.42033,79.791
0.46432,79.791
0.50733,79.791
0.54839,79.596
0.58553,79.4
0.61779,79.205
0.64516,79.009
0.66667,78.618
0.68328,78.227
0.69501,77.64
0.70088,77.054
0.70381,76.662
0.70381,75.88
0.70088,75.098
0.69599,74.511
0.68817,73.729
0.67644,73.142
0.66276,72.555
0.64712,71.969
0.62854,71.382
0.60899,70.795
0.58749,70.404
0.565,69.818
0.54545,69.231
0.52688,68.84
0.50733,68.253
0.48876,67.666
0.47019,67.08
0.45357,66.493
0.43891,66.102
0.4262,65.515
0.41447,65.124
0.40469,64.537
0.39589,63.95
0.38905,63.559
0.38319,62.973
0.3783,62.582
0.37341,62.19
0.36852,61.995
0.36364,61.799
0.35875,62.19
0.35484,62.973
0.34995,65.319
0.34604,69.426
0.34115,76.271
0.33627,85.072
0.33236,95.241
0.32747,105.22
0.32356,114.41
0.32063,122.43
0.31672,128.88
0.31281,133.57
0.30792,136.7
0.30401,138.46
0.3001,139.05
0.29521,138.46
0.2913,137.29
0.28739,135.33
0.28348,133.18
0.27957,130.64
0.27664,128.1
0.27468,125.16
0.27175,122.03
0.26784,118.71
0.26491,114.8
0.261,110.69
0.25806,106.39
0.25415,101.89
0.25122,97.197
0.24731,93.09
0.2434,89.374
0.24047,86.245
0.23754,83.898
0.23754,81.943
0.23949,80.574
0.24536,79.596
0.25611,79.009
0.2737,78.618
0.29814,78.618
0.3304,78.422
0.36852,78.422
0.41056,78.618
0.45455,78.618
0.49756,78.618
0.53861,78.422
0.57185,78.422
0.59824,78.227
0.62366,78.031
0.64614,77.64
0.66373,77.249
0.67742,76.662
0.68719,76.271
0.69208,75.685
0.69404,75.098
0.69208,74.316
0.68622,73.729
0.6784,73.142
0.66667,72.36
0.65396,71.969
0.64027,71.382
0.62268,70.795
0.60411,70.209
0.5826,69.622
0.56109,69.231
0.53959,68.644
0.51906,68.253
0.49853,67.666
0.47996,67.08
0.46237,66.493
0.44673,65.906
0.43402,65.515
0.42424,64.928
0.41447,64.537
0.40567,63.95
0.39785,63.559
0.39003,62.973
0.38416,62.582
0.3783,61.995
0.37341,61.604
0.36852,61.408
0.36364,61.408
0.35875,61.604
0.35484,62.582
0.35191,64.733
0.34897,69.231
0.34506,76.076
0.34115,85.072
0.33724,95.241
0.33236,105.22
0.32845,114.41
0.32356,122.43
0.31965,128.88
0.31476,133.57
0.31085,136.9
0.30694,138.66
0.30401,139.24
0.30108,138.85
0.29814,137.48
0.29423,135.72
0.2913,133.57
0.28739,131.23
0.28348,128.68
0.27957,125.75
0.27664,122.62
0.27273,119.3
0.26979,115.58
0.26588,111.67
0.26197,107.37
0.26002,102.87
0.25806,98.37
0.25611,94.068
0.2522,90.352
0.24927,87.027
0.24633,84.485
0.24536,82.529
0.24731,80.965
0.25318,79.791
0.26491,79.205
0.28446,78.814
0.31183,78.618
0.34018,78.618
0.37146,78.618
0.41056,78.618
0.45357,78.618
0.49658,78.618
0.53861,78.618
0.57771,78.618
0.61193,78.422
0.64027,78.227
0.66373,77.836
0.68231,77.445
0.69599,77.054
0.70479,76.467
0.7087,75.88
0.70968,75.293
0.70772,74.511
0.70283,73.924
0.69501,73.338
0.68426,72.555
0.67058,72.164
0.65494,71.578
0.63734,70.991
0.61779,70.404
0.59629,69.818
0.5738,69.426
0.55425,68.84
0.53666,68.253
0.51711,67.666
0.49756,67.275
0.47996,66.688
0.46334,66.102
0.44868,65.515
0.435,65.124
0.42424,64.537
0.41447,64.146
0.40567,63.559
0.39785,62.973
0.39198,62.582
0.3871,61.995
0.38221,61.604
0.3783,61.408
0.37341,61.408
0.3695,61.799
0.36461,62.973
0.3607,65.515
0.35582,70.209
0.35191,77.445
0.34702,86.832
0.34311,97.001
0.33822,106.78
0.33431,115.78
0.33138,123.4
0.32747,129.66
0.32356,134.16
0.31965,137.09
0.31476,138.66
0.31085,139.05
0.30694,138.46
0.30303,137.09
0.29912,135.33
0.29521,133.18
0.2913,130.83
0.28739,128.1
0.28446,125.36
0.2825,122.43
0.27957,119.1
0.27664,115.38
0.27273,111.47
0.26979,107.17
0.26588,102.87
0.26197,98.37
0.25806,94.263
0.25513,90.352
0.25122,87.223
0.25318,84.681
0.25806,82.725
0.26393,81.16
0.27175,79.987
0.28446,79.4
0.30401,79.009
0.3304,78.814
0.36559,78.618
0.40665,78.618
0.45064,78.618
0.49756,78.618
0.5435,78.618
0.58651,78.422
0.62072,78.422
0.64809,78.227
0.67449,78.031
0.69697,77.64
0.71554,77.249
0.73021,76.662
0.739,76.271
0.74487,75.685
0.74682,75.098
0.74487,74.316
0.73998,73.729
0.73118,73.142
0.71945,72.555
0.70674,71.969
0.69208,71.382
0.67449,70.795
0.65494,70.404
0.63343,69.818
0.61095,69.231
0.58749,68.644
0.565,68.253
0.5435,67.666
0.52297,67.08
0.5044,66.493
0.48778,66.102
0.4741,65.711
0.46237,65.124
0.45161,64.733
0.44086,64.342
0.43206,63.755
0.42424,63.168
0.41642,62.777
0.40958,62.386
0.40371,61.995
0.39883,61.799
0.39296,61.799
0.38807,62.386
0.38319,63.559
0.37928,66.493
0.37634,71.578
0.37243,79.205
0.36755,88.983
0.36364,99.348
0.35875,109.13
0.35386,118.12
0.34897,125.75
0.34409,131.81
0.34018,136.31
0.33529,139.24
0.33138,140.61
0.32747,141
0.32454,140.42
0.3216,139.05
0.31769,137.09
0.31378,134.94
0.30987,132.79
0.30596,130.25
0.30205,127.51
0.29814,124.58
0.29521,121.45
0.2913,117.93
0.28739,114.21
0.28446,110.1
0.2825,105.8
0.28055,101.3
0.27859,97.001
0.27468,93.09
0.27175,89.57
0.26979,86.832
0.26882,84.681
0.27175,83.116
0.27859,81.943
0.29326,81.16
0.31574,80.769
0.34604,80.574
0.37732,80.378
0.41153,80.574
0.45357,80.574
0.49853,80.574
0.54545,80.574
0.58944,80.574
0.62952,80.574
0.66471,80.378
0.69404,80.183
0.7175,79.791
0.73607,79.4
0.74976,79.009
0.75855,78.422
0.76246,77.836
0.76246,77.249
0.76051,76.467
0.75562,75.88
0.74878,75.293
0.73803,74.511
0.72532,73.924
0.70968,73.533
0.6911,72.947
0.67058,72.36
0.64907,71.969
0.62659,71.382
0.60606,70.795
0.58651,70.404
0.56598,69.818
0.54643,69.231
0.52688,68.644
0.50929,68.253
0.49365,67.666
0.47996,67.275
0.46823,66.688
0.45748,66.297
0.44868,65.711
0.44086,65.319
0.43402,64.733
0.42815,64.342
0.42424,63.95
0.42033,63.755
0.41544,63.95
0.41153,64.537
0.40665,65.906
0.40274,69.426
0.39785,75.098
0.39394,83.507
0.38905,93.677
0.38514,104.24
0.38025,114.02
0.37732,122.82
0.37439,130.05
0.37048,135.72
0.36657,139.44
0.36266,141.59
0.35777,142.57
0.35386,142.37
0.34995,141.2
0.34604,139.44
0.34213,137.48
0.33822,135.14
0.33431,132.99
0.33138,130.44
0.32845,127.71
0.32649,124.97
0.32356,121.84
0.32063,118.51
0.31769,114.8
0.31476,110.69
0.31085,106.58
0.30792,102.09
0.30401,97.979
0.30108,94.068
0.29814,90.743
0.29619,88.201
0.29717,86.05
0.3001,84.289
0.3089,83.116
0.32258,82.334
0.34506,81.943
0.37439,81.552
0.41056,81.552
0.45259,81.356
0.49756,81.356
0.5435,81.16
0.58749,81.16
0.62854,80.965
0.66373,80.769
0.69013,80.378
0.71065,80.183
0.72923,79.791
0.74389,79.205
0.75464,78.618
0.76149,78.031
0.7654,77.445
0.7654,76.662
0.76246,76.076
0.75562,75.293
0.74682,74.707
0.73412,74.12
0.72141,73.533
0.70674,72.751
0.68915,72.164
0.6696,71.773
0.64907,71.186
0.62659,70.6
0.60411,70.013
0.58162,69.426
0.56012,69.035
0.53959,68.253
0.52004,67.666
0.50342,67.08
0.48778,66.688
0.47507,66.102
0.4653,65.515
0.45552,65.124
0.44575,64.537
0.43793,64.146
0.43011,63.559
0.42326,63.168
0.41642,62.777
0.41056,62.582
0.40469,62.582
0.3998,62.973
0.39394,64.146
0.39003,67.08
0.38612,72.555
0.38123,80.574
0.37634,90.548
0.37048,101.3
0.36559,111.47
0.35973,120.67
0.35484,128.29
0.34995,134.35
0.34506,138.46
0.34018,141
0.33529,142.37
0.33138,142.37
0.32845,141.4
0.32454,139.83
0.31965,137.87
0.31574,135.72
0.31183,133.38
0.30694,130.83
0.30303,128.1
0.29814,125.16
0.29423,121.84
0.29032,118.32
0.28641,114.6
0.2825,110.3
0.27957,105.8
0.27761,101.3
0.27468,97.001
0.27077,92.894
0.26686,89.57
0.26393,86.832
0.26295,84.485
0.26491,82.725
0.27175,81.552
0.28543,80.769
0.30694,80.378
0.33724,80.183
0.36852,79.987
0.40274,79.987
0.44379,79.987
0.48974,79.987
0.5347,79.987
0.57771,79.987
0.6129,79.791
0.64027,79.596
0.66471,79.205
0.68524,78.814
0.70088,78.422
0.71261,78.031
0.72043,77.249
0.72336,76.662
0.72239,76.076
0.71945,75.293
0.71359,74.707
0.70577,73.924
0.69501,73.338
0.68133,72.751
0.66569,72.164
0.64712,71.578
0.62757,70.991
0.60606,70.6
0.58358,70.013
0.56305,69.426
0.54448,68.84
0.52395,68.253
0.5044,67.666
0.48485,67.275
0.46725,66.688
0.45161,66.102
0.43793,65.515
0.42522,64.928
0.41544,64.537
0.40567,64.146
0.39785,63.559
0.39101,63.168
0.38514,62.582
0.38025,62.19
0.37537,61.995
0.37146,61.799
0.36657,61.995
0.36168,62.777
0.35777,64.733
0.35288,68.644
0.348,74.902
0.34409,83.507
0.3392,93.481
0.33431,103.65
0.3304,113.04
0.32747,121.25
0.32356,127.9
0.31965,132.99
0.31476,136.31
0.31085,138.27
0.30596,139.05
0.30205,138.66
0.29814,137.48
0.29326,135.53
0.28935,133.38
0.28543,131.03
0.28152,128.29
0.27859,125.36
0.27664,122.23
0.2737,118.71
0.27077,114.99
0.26686,111.08
0.26393,106.78
0.26002,102.09
0.25709,97.588
0.25318,93.286
0.24927,89.57
0.24633,86.441
0.2434,83.898
0.24242,81.943
0.2434,80.378
0.24731,79.4
0.25611,78.814
0.27077,78.618
0.29326,78.422
0.32356,78.422
0.35973,78.618
0.40176,78.618
0.44673,78.618
0.49071,78.814
0.53372,78.618
0.57283,78.422
0.60313,78.422
0.62757,78.227
0.65005,77.836
0.6696,77.445
0.68426,77.054
0.69501,76.467
0.70186,75.88
0.70381,75.098
0.70283,74.511
0.69795,73.924
0.69013,73.142
0.67937,72.555
0.66764,71.969
0.65396,71.382
0.63734,70.795
0.61779,70.209
0.59726,69.818
0.57478,69.231
0.5523,68.84
0.53079,68.253
0.51026,67.862
0.48974,67.275
0.47116,66.688
0.45552,66.102
0.44086,65.515
0.42913,65.124
0.42033,64.537
0.41153,64.146
0.40371,63.559
0.39589,63.168
0.39003,62.582
0.38416,62.19
0.3783,61.799
0.37341,61.408
0.3695,61.408
0.36461,61.604
0.3607,62.19
0.35777,64.146
0.35484,67.666
0.35191,73.729
0.348,82.138
0.34409,91.917
0.3392,101.69
0.33431,111.08
0.3304,119.3
0.32551,126.34
0.32063,131.62
0.31672,135.14
0.31281,137.48
0.3089,138.27
0.30596,138.07
0.30401,137.09
0.30108,135.33
0.29717,133.18
0.29326,130.64
0.29032,128.1
0.28641,125.36
0.2825,122.23
0.27957,118.71
0.27566,114.99
0.27273,111.08
0.26882,106.78
0.26686,102.09
0.26491,97.588
0.26295,93.481
0.25904,89.57
0.25611,86.441
0.25318,84.094
0.25122,81.943
0.25122,80.574
0.25415,79.596
0.26295,79.009
0.27859,78.618
0.30205,78.422
0.33236,78.422
0.36364,78.422
0.39687,78.618
0.43695,78.618
0.47996,78.422
0.52297,78.422
0.56403,78.422
0.6002,78.227
0.63245,78.031
0.65787,77.836
0.67937,77.445
0.69501,76.858
0.70577,76.467
0.71163,75.88
0.71359,75.098
0.71261,74.511
0.70968,73.924
0.70283,73.338
0.69306,72.751
0.68035,72.164
0.66569,71.578
0.64809,70.991
0.62854,70.404
0.60704,69.818
0.58456,69.231
0.56305,68.84
0.54252,68.253
0.52493,67.666
0.50635,67.275
0.48876,66.688
0.47214,66.102
0.45748,65.711
0.44379,65.124
0.43304,64.537
0.42229,64.146
0.41349,63.559
0.40567,63.168
0.39883,62.582
0.39394,62.19
0.39003,61.799
0.38514,61.408
0.38123,61.408
0.37634,61.799
0.37243,62.973
0.36755,65.124
0.36364,69.426
0.35973,76.271
0.35484,85.072
0.35093,95.046
0.34604,104.82
0.34311,113.82
0.34018,121.64
0.33627,128.1
0.33236,132.79
0.32747,135.92
0.32356,137.87
0.31965,138.46
0.31574,138.07
0.31085,136.7
0.30694,134.94
0.30303,132.79
0.3001,130.25
0.29619,127.71
0.29326,124.77
0.2913,121.84
0.28837,118.32
0.28543,114.8
0.28152,110.69
0.27859,106.19
0.27468,101.69
0.27175,97.197
0.26784,93.09
0.26491,89.374
0.261,86.245
0.25904,83.703
0.25806,81.747
0.25904,80.378
0.26393,79.596
0.27273,79.009
0.28837,78.618
0.31183,78.618
0.34213,78.422
0.37928,78.618
0.42033,78.618
0.46432,78.618
0.50929,78.618
0.55132,78.618
0.59042,78.618
0.62072,78.422
0.64516,78.227
0.66764,77.836
0.68719,77.445
0.70186,77.054
0.71261,76.467
0.71945,75.88
0.72239,75.293
0.72141,74.511
0.71652,73.924
0.70968,73.338
0.69892,72.751
0.6911,72.164
0.68524,71.578
0.67253,70.991
0.65494,70.6
0.63441,70.013
0.61193,69.426
0.58944,68.84
0.56696,68.449
0.54545,67.862
0.52493,67.275
0.50635,66.688
0.48974,66.102
0.47507,65.711
0.46334,65.319
0.45357,64.733
0.44379,64.342
0.43597,63.755
0.42815,63.168
0.42033,62.777
0.41447,62.19
0.4086,61.799
0.40274,61.799
0.39785,61.799
0.39394,62.386
0.38905,63.755
0.38514,66.688
0.38221,71.969
0.3783,79.791
0.37439,89.179
0.37048,99.348
0.36559,109.13
0.3607,117.93
0.35582,125.36
0.35191,131.42
0.34702,135.72
0.34213,138.46
0.33822,140.03
0.33431,140.22
0.3304,139.44
0.32845,137.87
0.32454,136.11
0.32063,133.77
0.31672,131.42
0.31281,128.68
0.3089,125.75
0.30499,122.82
0.30205,119.49
0.29814,115.58
0.29423,111.67
0.2913,107.17
0.28837,102.67
0.28739,98.175
0.28446,93.872
0.28152,90.157
0.27761,87.027
0.27566,84.485
0.2737,82.725
0.27566,81.16
0.2825,80.183
0.29521,79.791
0.31476,79.4
0.34311,79.4
0.37928,79.4
0.41447,79.4
0.45064,79.596
0.49267,79.596
0.53763,79.596
0.58065,79.596
0.62072,79.596
0.65689,79.4
0.68719,79.205
0.71163,78.814
0.73118,78.422
0.74585,78.031
0.75562,77.445
0.75953,76.858
0.76051,76.271
0.75855,75.489
0.75367,74.902
0.74585,74.316
0.73509,73.729
0.72141,73.142
0.70479,72.555
0.68622,72.164
0.66569,71.578
0.64321,71.186
0.61975,70.6
0.59629,70.013
0.57478,69.622
0.55621,69.035
0.53763,68.449
0.51808,68.057
0.50147,67.471
0.48583,67.08
0.47214,66.493
0.46041,65.906
0.44966,65.515
0.44086,65.124
0.43304,64.537
0.4262,64.146
0.42033,63.755
0.41642,63.364
0.41153,63.364
0.40762,63.559
0.40274,64.537
0.39883,66.493
0.39394,70.6
0.39003,77.249
0.38514,86.05
0.38025,96.219
0.37537,106.39
0.37048,115.58
0.36657,123.79
0.36266,130.64
0.35973,135.72
0.35582,139.24
0.35191,141.2
0.348,141.98
0.34409,141.79
0.34018,140.61
0.33627,139.05
0.33236,136.9
0.32845,134.75
0.32454,132.2
0.32063,129.47
0.31867,126.73
0.31672,123.6
0.31378,120.27
0.31085,116.56
0.30792,112.65
0.30499,108.54
0.30205,104.04
0.29814,99.739
0.29521,95.632
0.29228,92.112
0.28935,89.179
0.28739,86.832
0.28935,85.072
0.29326,83.703
0.30108,82.921
0.31672,82.529
0.3392,82.138
0.3695,82.138
0.40665,82.138
0.44868,82.138
0.49462,82.334
0.54154,82.334
0.58651,82.334
0.62854,82.334
0.66569,82.138
0.69306,81.747
0.71457,81.552
0.73412,81.16
0.75073,80.574
0.76246,79.987
0.77126,79.4
0.77517,78.814
0.77615,78.227
0.77322,77.445
0.76735,76.858
0.75855,76.271
0.74682,75.685
0.73314,75.098
0.71848,74.511
0.70088,73.924
0.68035,73.338
0.65885,72.751
0.63636,72.164
0.61388,71.578
0.59238,70.991
0.57087,70.404
0.55132,69.622
0.53275,69.035
0.51711,68.253
0.50244,67.666
0.49071,67.08
0.48192,66.493
0.47214,65.906
0.46432,65.515
0.45748,64.928
0.45064,64.537
0.44477,64.342
0.43891,64.146
0.43402,64.146
0.42913,64.537
0.42522,65.906
0.42033,69.231
0.41642,74.902
0.41349,83.312
0.40958,93.286
0.40469,103.85
0.3998,113.82
0.39589,122.82
0.39101,130.44
0.38612,136.31
0.38123,140.61
0.37634,142.96
0.37243,144.13
0.36755,144.33
0.36364,143.35
0.35973,141.79
0.35679,139.83
0.35386,137.68
0.34995,135.33
0.34604,132.99
0.34213,130.25
0.33822,127.51
0.33431,124.38
0.3304,120.86
0.32649,117.14
0.32258,113.04
0.31867,108.74
0.31574,104.24
0.31281,99.739
0.30987,95.828
0.30694,92.308
0.30401,89.374
0.30205,87.027
0.30401,85.267
0.30987,84.094
0.32356,83.116
0.34409,82.529
0.37243,82.138
0.4086,82.138
0.44966,82.138
0.48876,82.138
0.5259,81.943
0.56794,81.943
0.60899,81.747
0.64809,81.552
0.68133,81.356
0.70968,81.16
0.73216,80.574
0.74976,80.183
0.76246,79.596
0.77028,79.009
0.77419,78.227
0.77419,77.64
0.77028,76.858
0.76442,76.076
0.7566,75.293
0.74585,74.707
0.73314,74.12
0.71652,73.533
0.69892,73.142
0.6784,72.555
0.65689,71.969
0.63441,71.382
0.61095,70.795
0.58749,70.404
0.56696,69.622
0.54839,69.035
0.52981,68.644
0.51222,67.862
0.4956,67.471
0.48094,66.884
0.46139,66.297
0.44086,65.906
0.4262,65.319
0.41447,64.928
0.40567,64.342
0.39785,63.95
0.39296,63.559
0.38807,63.364
0.38221,63.364
0.37732,63.755
0.37243,65.124
0.36755,68.253
0.36266,73.729
0.35777,81.747
0.35191,91.721
0.34702,102.28
0.34213,112.26
0.33724,121.45
0.33236,128.88
0.32845,134.75
0.32454,138.85
0.32063,141.2
0.31672,142.37
0.31183,142.37
0.30792,141.4
0.30401,139.83
0.3001,137.68
0.29521,135.53
0.2913,132.99
0.28739,130.25
0.28348,127.51
0.28055,124.38
0.27859,121.06
0.27566,117.54
0.27273,113.43
0.26882,109.13
0.26588,104.63
0.26197,100.13
0.25904,95.828
0.25513,92.112
0.25122,88.983
0.24927,86.441
0.24829,84.485
0.25024,82.921
0.25611,81.943
0.26686,81.356
0.28446,80.965
0.31085,80.769
0.34409,80.574
0.38416,80.574
0.42815,80.574
0.47507,80.574
0.52102,80.378
0.56403,80.378
0.60313,80.183
0.63636,79.987
0.6608,79.791
0.6784,79.4
0.69404,78.814
0.70674,78.422
0.71554,77.836
0.72043,77.249
0.72141,76.467
0.71945,75.88
0.71359,75.098
0.70577,74.511
0.69404,73.924
0.68035,73.338
0.66373,72.751
0.64614,72.164
0.62854,71.578
0.60802,70.991
0.58651,70.6
0.56403,70.013
0.54057,69.231
0.51906,68.84
0.49853,68.253
0.47898,67.666
0.46237,67.08
0.44673,66.493
0.43402,65.906
0.42326,65.515
0.41447,64.928
0.40665,64.537
0.39883,63.95
0.39198,63.364
0.38514,62.973
0.38025,62.777
0.37439,62.582
0.3695,62.582
0.36559,63.168
0.3607,64.537
0.35582,67.471
0.35191,72.555
0.348,80.378
0.34506,89.765
0.34115,99.935
0.33627,109.52
0.33138,118.32
0.32747,125.75
0.32258,131.62
0.31867,135.72
0.31378,138.27
0.30987,139.44
0.30499,139.64
0.30108,138.85
0.29814,137.29
0.29521,135.14
0.29228,132.79
0.28837,130.25
0.28543,127.31
0.28152,124.38
0.27761,121.06
0.2737,117.54
0.26979,113.62
0.26686,109.52
0.26295,105.02
0.25904,100.33
0.25611,96.024
0.25318,91.917
0.2522,88.592
0.24927,85.854
0.24731,83.703
0.24536,81.943
0.24731,80.769
0.25318,79.987
0.26491,79.596
0.28348,79.4
0.31085,79.205
0.34506,79.205
0.38514,79.4
0.42424,79.4
0.46139,79.4
0.50342,79.4
0.54545,79.4
0.58456,79.205
0.61877,79.009
0.64907,78.814
0.67253,78.422
0.6911,78.031
0.70479,77.445
0.71359,76.858
0.71848,76.271
0.71848,75.489
0.71457,74.902
0.7087,74.316
0.70088,73.533
0.68915,72.947
0.67449,72.36
0.65787,71.969
0.63832,71.382
0.61681,70.795
0.59433,70.209
0.57185,69.622
0.54839,69.231
0.52688,68.644
0.50733,68.057
0.49071,67.471
0.4741,66.884
0.45846,66.493
0.44379,65.906
0.43109,65.515
0.41935,64.928
0.41056,64.537
0.40176,63.95
0.39492,63.364
0.38807,62.973
0.38221,62.582
0.3783,62.19
0.37439,61.995
0.37048,62.19
0.36657,62.973
0.36266,64.537
0.35875,68.057
0.35484,73.924
0.34995,82.138
0.34604,91.721
0.34115,101.69
0.33724,111.28
0.33236,119.69
0.32845,126.73
0.32454,132.2
0.3216,135.92
0.31867,138.07
0.31476,139.24
0.31085,139.05
0.30694,138.07
0.30303,136.31
0.29912,134.35
0.29521,132.01
0.2913,129.47
0.28739,126.73
0.28348,123.79
0.28152,120.47
0.27957,116.75
0.27664,112.84
0.2737,108.54
0.26979,104.04
0.26686,99.544
0.26295,95.241
0.26002,91.33
0.25611,88.005
0.25318,85.267
0.25122,83.116
0.25024,81.552
0.25318,80.574
0.26002,79.791
0.27077,79.4
0.28935,79.205
0.31574,79.205
0.34897,79.4
0.39003,79.4
0.43402,79.4
0.48094,79.4
0.5259,79.4
0.56891,79.4
0.60802,79.205
0.64125,79.009
0.66667,78.618
0.68426,78.227
0.70088,77.836
0.71359,77.249
0.72239,76.662
0.72727,76.076
0.72727,75.489
0.72434,74.707
0.71848,74.12
0.7087,73.533
0.69599,72.947
0.68035,72.36
0.66276,71.773
0.64418,71.186
0.62561,70.6
0.60411,70.209
0.58162,69.622
0.55914,69.035
0.53666,68.449
0.51515,68.057
0.4956,67.471
0.47703,66.884
0.46139,66.297
0.44673,65.906
0.435,65.319
0.42522,64.733
0.4174,64.342
0.40958,63.755
0.40274,63.168
0.39687,62.777
0.39101,62.386
0.38514,62.19
0.38025,62.19
0.37634,62.777
0.37146,63.95
0.36657,66.493
0.36266,71.186
0.35777,78.422
0.35679,87.614
0.35679,97.588
0.35484,107.37
0.35093,116.36
0.34702,123.99
0.34311,130.44
0.33822,134.94
0.33431,138.07
0.32942,139.83
0.32551,140.22
0.32063,139.83
0.31672,138.46
0.31378,136.7
0.31085,134.55
0.30792,132.01
0.30401,129.47
0.3001,126.73
0.29619,123.6
0.29228,120.27
0.28837,116.56
0.28543,112.65
0.28152,108.34
0.27859,103.85
0.27468,99.348
0.27077,95.046
0.26882,91.33
0.26686,88.201
0.26491,85.463
0.26295,83.507
0.26295,81.943
0.26686,80.965
0.27664,80.183
0.29423,79.791
0.31867,79.791
0.35191,79.596
0.39198,79.791
0.43695,79.791
0.47801,79.791
0.51711,79.791
0.55914,79.791
0.60117,79.596
0.6393,79.4
0.67253,79.205
0.6999,78.814
0.72141,78.422
0.73803,77.836
0.74878,77.249
0.75562,76.662
0.75758,76.076
0.7566,75.293
0.75171,74.707
0.74389,74.12
0.73412,73.533
0.72043,72.751
0.70479,72.164
0.68622,71.773
0.66569,71.186
0.64321,70.795
0.61877,70.209
0.59531,69.622
0.57087,69.035
0.54741,68.449
0.52786,67.862
0.51124,67.471
0.49365,66.884
0.47703,66.297
0.46237,65.906
0.44966,65.319
0.43793,64.733
0.42815,64.342
0.42033,63.755
0.41251,63.168
0.40567,62.777
0.3998,62.386
0.39492,62.386
0.39003,62.582
0.3871,63.168
0.38221,64.928
0.3783,68.644
0.37341,74.707
0.36852,83.116
0.36364,93.286
0.35875,103.26
0.35484,113.04
0.34995,121.45
0.34506,128.68
0.34018,134.16
0.33627,137.87
0.33333,140.42
0.32942,141.4
0.32551,141.2
0.3216,140.42
0.31672,138.85
0.31281,136.9
0.3089,134.75
0.30499,132.2
0.3001,129.86
0.29619,126.92
0.29326,123.99
0.28935,120.67
0.28641,116.95
0.28446,113.04
0.28152,108.74
0.27761,104.24
0.27468,99.739
0.27077,95.437
0.26686,91.721
0.26393,88.396
0.261,85.854
0.26002,83.898
0.26295,82.529
0.27077,81.552
0.28348,80.965
0.3001,80.769
0.32747,80.574
0.36168,80.574
0.40371,80.769
0.45064,80.769
0.49951,80.965
0.54741,80.965
0.59335,80.965
0.63441,80.769
0.67058,80.574
0.6999,80.378
0.72141,79.987
0.73607,79.596
0.74878,79.205
0.75758,78.618
0.76344,78.031
0.7654,77.249
0.76344,76.662
0.75855,76.076
0.74976,75.489
0.739,74.902
0.72434,74.316
0.70772,73.533
0.68817,73.142
0.66862,72.555
0.64907,71.969
0.62659,71.578
0.60313,70.991
0.57869,70.404
0.55621,69.818
0.53372,69.231
0.5132,68.84
0.49462,68.253
0.47801,67.862
0.46334,67.275
0.45161,66.884
0.44184,66.297
0.43402,65.906
0.42717,65.319
0.42033,64.928
0.41447,64.537
0.4086,64.342
0.40371,64.342
0.39883,64.928
0.39492,66.297
0.39101,69.426
0.38612,74.902
0.38221,82.725
0.3783,92.503
0.37439,102.87
0.37146,112.84
0.36755,122.03
0.36364,129.66
0.35875,135.72
0.35484,139.83
0.34995,142.37
0.34604,143.55
0.34213,143.55
0.33822,142.76
0.33431,141.4
0.3304,139.44
0.32845,137.48
0.32551,135.14
0.32356,132.79
0.31965,130.25
0.31672,127.51
0.31378,124.38
0.30987,121.25
0.30694,117.54
0.30401,113.43
0.30108,109.32
0.29814,104.82
0.29521,100.52
0.29228,96.415
0.29032,92.894
0.28837,89.961
0.28739,87.614
0.28935,85.854
0.29423,84.485
0.30596,83.703
0.32454,83.116
0.35191,82.725
0.38612,82.529
0.42815,82.529
0.4741,82.529
0.52297,82.529
0.56403,82.334
0.6002,82.334
0.63832,82.138
0.67351,81.943
0.70479,81.552
0.73021,81.16
0.75073,80.769
0.7654,80.183
0.77517,79.596
0.78201,78.814
0.78397,78.227
0.78201,77.445
0.77713,76.858
0.77028,76.076
0.76051,75.293
0.74878,74.707
0.73412,74.12
0.71652,73.533
0.69697,72.751
0.67546,72.164
0.65298,71.578
0.62952,70.991
0.60606,70.404
0.5826,69.818
0.56012,69.231
0.54154,68.84
0.52493,68.253
0.50831,67.666
0.49365,67.08
0.47996,66.493
0.46823,66.102
0.45748,65.515
0.44868,65.124
0.43988,64.537
0.43304,64.146
0.42717,63.755
0.42131,63.559
0.41544,63.95
0.41153,64.928
0.40762,67.275
0.40274,71.773
0.39785,79.009
0.39296,88.592
0.3871,98.957
0.38221,109.32
0.37634,118.9
0.37048,127.12
0.36461,133.77
0.35875,138.66
0.35386,141.59
0.34897,143.35
0.34506,143.74
0.34115,143.16
0.33627,141.98
0.33138,140.22
0.32649,138.07
0.3216,135.72
0.31378,133.18
0.30499,130.64
0.29814,127.9
0.29326,124.77
0.28837,121.45
0.28446,117.73
0.28152,113.82
0.27859,109.71
0.27566,105.22
0.27273,100.91
0.26882,96.61
0.26491,92.894
0.261,89.765
0.25806,87.223
0.25806,85.072
0.261,83.703
0.26979,82.725
0.28543,81.943
0.30499,81.552
0.32942,81.356
0.36266,81.356
0.40274,81.356
0.44673,81.356
0.49169,81.356
0.53568,81.16
0.57674,80.965
0.6129,80.769
0.64418,80.574
0.6696,80.183
0.68915,79.791
0.70381,79.205
0.71163,78.618
0.71554,77.836
0.7175,77.249
0.7175,76.662
0.71359,75.88
0.70772,75.293
0.69892,74.511
0.68719,73.924
0.67351,73.338
0.65689,72.751
0.63832,72.164
0.61779,71.578
0.59824,71.186
0.57967,70.6
0.55914,70.013
0.53763,69.426
0.51613,68.84
0.4956,68.253
0.47703,67.666
0.45943,67.275
0.44379,66.688
0.43109,66.102
0.41935,65.515
0.4086,65.124
0.40078,64.537
0.39394,64.146
0.38807,63.559
0.38319,63.168
0.37732,62.973
0.37243,62.973
0.36755,63.168
0.36266,64.537
0.35777,67.08
0.35386,71.969
0.34897,79.4
0.34409,88.983
0.3392,99.348
0.33529,109.52
0.33236,118.71
0.32747,126.73
0.32356,132.99
0.31867,137.48
0.31378,140.22
0.30987,141.79
0.30499,141.98
0.30108,141.2
0.29619,139.83
0.29228,137.87
0.28837,135.72
0.28543,133.18
0.2825,130.64
0.27957,127.9
0.27664,124.97
0.27273,121.84
0.26979,118.32
0.26588,114.41
0.26295,110.3
0.25904,105.8
0.25611,101.11
0.25318,96.806
0.24927,92.894
0.24633,89.57
0.24438,86.832
0.2434,84.485
0.2434,82.725
0.24633,81.747
0.25513,80.965
0.26979,80.574
0.29228,80.183
0.32258,80.183
0.3607,80.183
0.40371,80.183
0.44966,80.183
0.4956,79.987
0.53372,79.987
0.56696,79.987
0.6002,79.791
0.63148,79.4
0.65689,79.205
0.67742,78.618
0.69306,78.227
0.70381,77.64
0.71065,77.054
0.71359,76.467
0.71261,75.685
0.70772,75.098
0.70088,74.316
0.6911,73.729
0.68035,73.142
0.66569,72.555
0.64907,71.969
0.6305,71.382
0.60899,70.795
0.58749,70.404
0.565,69.818
0.54154,69.231
0.52004,68.644
0.49853,68.057
0.47898,67.471
0.46237,67.08
0.44868,66.493
0.43597,65.906
0.42326,65.515
0.41251,64.928
0.40274,64.537
0.39492,63.95
0.3871,63.559
0.38123,62.973
0.37537,62.777
0.37048,62.582
0.36559,62.582
0.3607,63.168
0.35777,64.733
0.35484,68.057
0.35093,73.729
0.34702,81.747
0.34213,91.525
0.33822,101.5
0.33333,111.08
0.32942,119.69
0.32454,126.92
0.32063,132.4
0.31574,136.31
0.31183,138.66
0.30792,139.64
0.30499,139.64
0.30205,138.66
0.29814,137.09
0.29423,134.94
0.29032,132.79
0.28641,130.25
0.2825,127.51
0.27859,124.58
0.27468,121.45
0.27175,117.93
0.26784,114.21
0.26491,110.1
0.26295,105.61
0.261,101.11
0.25806,96.61
0.25513,92.699
0.2522,89.179
0.24927,86.245
0.24633,84.094
0.24536,82.334
0.24633,81.16
0.2522,80.378
0.26393,79.791
0.2825,79.596
0.30499,79.596
0.33138,79.596
0.36657,79.596
0.40762,79.596
0.45259,79.596
0.49756,79.596
0.54154,79.596
0.58065,79.4
0.61584,79.205
0.64516,78.814
0.66862,78.422
0.68719,78.031
0.6999,77.445
0.70772,76.858
0.71065,76.271
0.71065,75.685
0.7087,75.098
0.70381,74.511
0.69599,73.729
0.68524,73.142
0.67155,72.555
0.65494,71.969
0.63636,71.382
0.61584,70.795
0.59335,70.404
0.5738,69.818
0.55425,69.231
0.53275,68.84
0.51222,68.253
0.49267,67.666
0.47312,67.08
0.4565,66.493
0.44184,66.102
0.42913,65.515
0.4174,65.124
0.40762,64.537
0.3998,64.146
0.39198,63.559
0.38612,62.973
0.38221,62.582
0.37732,62.386
0.37243,62.386
0.36755,62.777
0.36364,63.559
0.35973,65.906
0.35582,70.209
0.35191,76.858
0.348,86.05
0.34311,96.024
0.3392,106.19
0.33529,115.38
0.33236,123.6
0.32845,130.25
0.32454,135.33
0.32063,138.66
0.31574,140.42
0.31183,141.2
0.30792,140.81
0.30401,139.44
0.3001,137.68
0.29619,135.72
0.29228,133.38
0.28837,130.83
0.28641,128.1
0.28348,125.16
0.28055,122.03
0.27761,118.32
0.27468,114.6
0.27077,110.3
0.26784,105.8
0.26393,101.3
0.261,96.806
0.25709,93.09
0.25415,89.57
0.25122,87.027
0.24927,84.681
0.2522,83.116
0.25806,81.943
0.26686,81.16
0.28055,80.574
0.30205,80.378
0.33138,80.183
0.36852,80.183
0.41153,80.183
0.45943,80.183
0.50733,80.183
0.55523,80.183
0.59922,79.987
0.63343,79.791
0.6608,79.596
0.68719,79.4
0.71065,79.009
0.72825,78.422
0.74194,78.031
0.75073,77.445
0.75464,76.662
0.75562,76.076
0.75171,75.489
0.74585,74.902
0.73607,74.12
0.72434,73.533
0.71065,72.947
0.69404,72.36
0.67449,71.969
0.65298,71.382
0.6305,70.795
0.60606,70.209
0.5826,69.622
0.55914,69.035
0.53666,68.644
0.51613,68.057
0.49658,67.471
0.47898,67.08
0.4653,66.493
0.45455,65.906
0.44282,65.515
0.43304,64.928
0.42424,64.537
0.41642,63.95
0.40958,63.364
0.40274,62.973
0.39687,62.973
0.39198,62.973
0.38612,63.559
0.38123,64.928
0.37732,68.057
0.37439,73.533
0.3695,81.552
0.36559,91.33
0.3607,101.5
0.35582,111.28
0.35093,120.08
0.34604,127.71
0.34115,133.57
0.33627,137.68
0.33138,140.42
0.32649,141.79
0.32356,141.79
0.32063,141
0.31672,139.44
0.31281,137.68
0.3089,135.53
0.30499,133.18
0.30108,130.64
0.29717,127.9
0.29326,124.97
0.28935,121.64
0.28543,118.12
0.28152,114.21
0.27761,109.91
0.27468,105.41
0.27273,100.91
0.26979,96.415
0.26686,92.503
0.26295,89.179
0.26002,86.636
0.25709,84.485
0.25806,82.725
0.26197,81.747
0.27273,80.965
0.2913,80.574
0.31769,80.378
0.34604,80.183
0.3783,80.183
0.41935,80.183
0.46432,80.183
0.51124,80.183
0.55718,79.987
0.6002,79.987
0.63734,79.791
0.6696,79.596
0.69599,79.205
0.7175,78.814
0.73216,78.422
0.74291,77.836
0.74878,77.249
0.74976,76.662
0.7478,76.076
0.74389,75.293
0.73803,74.707
0.72825,74.12
0.71554,73.533
0.6999,72.947
0.68231,72.36
0.66178,71.773
0.64027,71.186
0.61681,70.795
0.59531,70.209
0.57478,69.622
0.55327,69.231
0.53177,68.644
0.51026,68.253
0.49169,67.666
0.4741,67.275
0.45846,66.688
0.44477,66.102
0.43304,65.711
0.42229,65.124
0.41349,64.733
0.40567,64.146
0.39883,63.755
0.39394,63.559
0.38905,63.559
0.38319,63.95
0.3783,64.928
0.37341,67.471
0.36852,72.164
0.36364,79.4
0.35973,88.788
0.35484,99.153
0.34995,109.52
0.34506,119.1
0.34115,127.12
0.33822,133.77
0.33431,138.66
0.32942,141.79
0.32551,143.55
0.32063,144.13
0.31672,143.55
0.31183,142.37
0.30792,140.61
0.30401,138.46
0.3001,136.31
0.29619,133.96
0.29228,131.42
0.28935,128.49
0.28739,125.55
0.28446,122.23
0.28055,118.51
0.27761,114.6
0.2737,110.3
0.27077,105.8
0.26686,101.3
0.26393,97.001
0.26002,93.481
0.25709,90.352
0.25513,87.81
0.25513,85.854
0.25904,84.485
0.26588,83.703
0.27957,82.921
0.30108,82.725
0.3304,82.529
0.36755,82.529
0.41056,82.529
0.4565,82.529
0.5044,82.529
0.55132,82.529
0.59531,82.529
0.63343,82.334
0.66373,82.138
0.68622,81.747
0.70674,81.356
0.72434,80.965
0.73803,80.378
0.74682,79.791
0.75269,79.205
0.75464,78.422
0.75269,77.836
0.7478,77.054
0.73998,76.467
0.72923,75.88
0.71652,75.293
0.70283,74.707
0.68622,74.12
0.66667,73.533
0.64614,73.142
0.62366,72.555
0.6002,71.969
0.57771,71.382
0.55523,70.795
0.5347,70.404
0.51515,69.818
0.49756,69.231
0.48192,68.84
0.47019,68.253
0.45943,67.666
0.44966,67.275
0.44086,66.688
0.43304,66.297
0.4262,65.906
0.42033,65.515
0.41447,65.515
0.4086,65.711
0.40371,66.884
0.39883,69.231
0.39492,73.729
0.39101,80.965
0.3871,90.352
0.38319,100.91
0.37928,111.08
0.37439,120.67
0.3695,128.88
0.36461,135.53
0.3607,140.42
0.35582,143.55
0.35093,145.31
0.34702,145.7
0.34311,145.31
0.33822,144.13
0.33529,142.37
0.33236,140.61
0.32942,138.27
0.32551,136.11
0.3216,133.57
0.31867,130.83
0.31476,127.71
0.31085,124.58
0.30792,121.06
0.30499,117.14
0.30108,112.84
0.29814,108.34
0.29619,103.85
0.29423,99.348
0.2913,95.437
0.28837,92.112
0.28543,89.374
0.28543,87.223
0.28739,85.463
0.29423,84.289
0.3089,83.507
0.3304,83.116
0.35973,82.921
0.39589,82.725
0.43793,82.725
0.47605,82.725
0.5132,82.725
0.55425,82.725
0.59433,82.529
0.63148,82.334
0.66471,82.138
0.69208,81.552
0.71163,81.16
0.72532,80.769
0.73607,80.183
0.74291,79.4
0.74682,78.814
0.74682,78.031
0.74291,77.445
0.73803,76.662
0.73118,76.076
0.72141,75.293
0.7087,74.707
0.69306,74.12
0.67546,73.533
0.65591,72.947
0.63441,72.36
0.61193,71.969
0.58944,71.382
0.56598,70.795
0.54643,70.209
0.52786,69.622
0.50929,69.035
0.49169,68.449
0.47507,67.862
0.46041,67.471
0.4477,66.884
0.43695,66.297
0.42717,65.906
0.41838,65.319
0.41056,64.733
0.40371,64.342
0.39785,64.146
0.39296,64.146
0.38807,64.537
0.38319,65.711
0.37732,68.449
0.37243,73.729
0.36657,81.747
0.36168,91.721
0.35679,102.67
0.35191,113.23
0.34604,122.82
0.34115,131.03
0.33724,137.48
0.33333,141.98
0.32942,144.92
0.32454,146.28
0.31965,146.28
0.31476,145.5
0.31085,143.94
0.30596,141.98
0.30108,139.83
0.29717,137.48
0.29326,134.75
0.28837,132.01
0.28446,129.07
0.28152,125.95
0.27859,122.62
0.27566,118.71
0.27273,114.6
0.26882,110.1
0.26491,105.41
0.26197,100.72
0.25806,96.61
0.25415,92.699
0.25122,89.765
0.24829,87.223
0.24829,85.463
0.25122,84.094
0.25806,83.116
0.27175,82.529
0.29326,82.334
0.32258,82.138
0.35973,82.138
0.40176,81.943
0.44673,81.943
0.49365,81.943
0.53763,81.943
0.57869,81.747
0.61584,81.552
0.64712,81.16
0.6696,80.965
0.68622,80.378
0.6999,79.987
0.71163,79.4
0.71848,78.618
0.72336,78.031
0.72336,77.445
0.72141,76.662
0.71554,76.076
0.70772,75.293
0.69599,74.707
0.68231,74.12
0.66764,73.533
0.65103,72.947
0.63245,72.36
0.61193,71.773
0.58944,71.186
0.56696,70.6
0.54448,70.209
0.52199,69.622
0.50147,69.035
0.48192,68.449
0.46432,67.862
0.44966,67.275
0.43597,66.688
0.42522,66.297
0.4174,65.711
0.4086,65.319
0.40078,64.733
0.39394,64.146
0.3871,63.755
0.38123,63.559
0.37634,63.755
0.37146,64.342
0.36657,65.906
0.36168,69.035
0.35679,74.511
0.35288,82.725
0.34897,92.503
0.34506,102.67
0.34018,112.65
0.33627,121.45
0.33138,129.07
0.32649,134.94
0.3216,139.24
0.31672,141.79
0.31281,142.96
0.30792,142.96
0.30401,142.18
0.29912,140.61
0.29619,138.46
0.29423,136.11
0.29032,133.57
0.28739,130.64
0.28348,127.71
0.27957,124.19
0.27566,120.67
0.27175,116.75
0.26784,112.45
0.26393,107.95
0.261,103.26
0.25709,98.761
0.25513,94.459
0.25318,90.939
0.25024,87.81
0.24731,85.463
0.24536,83.703
0.24536,82.334
0.24927,81.552
0.25806,81.16
0.2737,80.769
0.29717,80.769
0.32845,80.769
0.36657,80.769
0.4086,80.769
0.44673,80.769
0.48289,80.769
0.52297,80.769
0.56109,80.574
0.59629,80.378
0.62757,79.987
0.65298,79.791
0.67351,79.205
0.68915,78.618
0.6999,78.227
0.70674,77.64
0.70968,76.858
0.70772,76.271
0.70381,75.685
0.69697,74.902
0.68719,74.316
0.67546,73.729
0.6608,73.142
0.64321,72.555
0.62366,71.969
0.60215,71.382
0.57967,70.795
0.55718,70.209
0.53568,69.622
0.51417,69.035
0.4956,68.644
0.47996,68.057
0.46432,67.471
0.44966,66.884
0.43597,66.297
0.42424,65.906
0.41447,65.319
0.40567,64.733
0.39785,64.342
0.39101,63.95
0.38416,63.559
0.37928,63.168
0.37537,63.168
0.37146,63.559
0.36755,64.537
0.36364,67.08
0.35875,71.382
0.35484,78.422
0.35093,87.419
0.34604,97.784
0.34213,107.76
0.33724,117.14
0.33236,125.36
0.32845,132.2
0.32356,137.29
0.32063,140.61
0.31769,142.37
0.31378,142.96
0.30987,142.37
0.30596,141.2
0.30205,139.24
0.29814,136.9
0.29423,134.35
0.29032,131.62
0.28641,128.68
0.2825,125.55
0.27859,122.03
0.27664,118.12
0.27468,114.02
0.27175,109.52
0.26882,104.82
0.26588,100.13
0.26197,95.632
0.25904,91.917
0.25513,88.592
0.25122,86.05
0.24927,84.094
0.24829,82.529
0.25122,81.552
0.25806,80.965
0.26979,80.574
0.28641,80.378
0.31085,80.378
0.34409,80.378
0.38221,80.574
0.4262,80.574
0.47116,80.574
0.51613,80.574
0.55816,80.378
0.59629,80.183
0.62952,79.987
0.65689,79.791
0.67644,79.4
0.69013,78.814
0.70186,78.422
0.71065,77.836
0.71554,77.054
0.7175,76.467
0.71554,75.88
0.71065,75.098
0.70186,74.511
0.69013,73.924
0.67546,73.338
0.65885,72.555
0.64125,71.969
0.62366,71.382
0.60411,70.991
0.5826,70.404
0.56109,69.818
0.53959,69.231
0.51906,68.644
0.49951,68.057
0.48094,67.471
0.4653,67.08
0.45064,66.493
0.43793,65.906
0.42717,65.515
0.41935,64.928
0.41251,64.537
0.40567,63.95
0.3998,63.559
0.39394,63.168
0.38905,63.168
0.38416,63.364
0.37928,64.342
0.37537,66.297
0.37048,70.404
0.36657,76.858
0.36168,85.658
0.35777,95.828
0.35484,106
0.35093,115.58
0.34702,123.99
0.34311,131.03
0.33822,136.31
0.33431,139.83
0.32942,141.98
0.32551,142.57
0.32063,142.18
0.31672,140.81
0.31281,139.05
0.3089,136.9
0.30596,134.55
0.30303,131.81
0.3001,128.88
0.29619,125.95
0.29228,122.62
0.28837,119.1
0.28543,115.19
0.28152,110.89
0.27859,106.39
0.27468,101.69
0.27175,97.393
0.26784,93.481
0.26588,90.157
0.26393,87.223
0.26197,85.072
0.26002,83.312
0.261,82.138
0.26588,81.16
0.27566,80.769
0.29326,80.574
0.31769,80.378
0.34995,80.378
0.38905,80.378
0.43206,80.378
0.47605,80.378
0.51515,80.378
0.54839,80.183
0.58456,79.987
0.61779,79.791
0.64614,79.596
0.67058,79.205
0.69013,78.618
0.70479,78.227
0.71457,77.64
0.72043,77.054
0.72239,76.271
0.72043,75.685
0.71652,75.098
0.7087,74.316
0.69892,73.729
0.68622,73.142
0.67155,72.555
0.65396,72.164
0.63441,71.578
0.6129,70.991
0.5914,70.404
0.56891,69.818
0.54643,69.231
0.52493,68.644
0.50538,68.057
0.48876,67.471
0.47507,67.08
0.46139,66.493
0.44868,66.102
0.43695,65.515
0.42717,64.928
0.41838,64.537
0.40958,63.95
0.40274,63.364
0.39687,63.168
0.39101,62.973
0.38612,63.168
0.38123,63.95
0.3783,65.711
0.37341,69.231
0.3695,75.489
0.36461,84.289
0.3607,94.263
0.35582,104.63
0.35093,114.6
0.34702,123.4
0.34213,130.83
0.33822,136.51
0.33333,140.42
0.32942,142.76
0.32551,143.94
0.32258,143.74
0.31965,142.76
0.31574,141
0.31183,139.05
0.30792,136.7
0.30401,134.16
0.3001,131.42
0.29619,128.49
0.29228,125.16
0.28837,121.84
0.28543,117.93
0.2825,113.82
0.28055,109.52
0.27761,104.82
0.27468,100.13
0.27175,95.828
0.26882,92.112
0.26491,88.983
0.26197,86.245
0.26002,84.289
0.26002,82.921
0.26491,81.943
0.27468,81.356
0.29228,80.965
0.31281,80.769
0.33822,80.769
0.37341,80.769
0.41349,80.965
0.45846,80.965
0.5044,80.965
0.54839,80.965
0.58944,80.965
0.62561,80.769
0.65689,80.574
0.68231,80.183
0.70283,79.791
0.71554,79.4
0.72434,78.814
0.73021,78.227
0.73314,77.64
0.73314,76.858
0.73021,76.271
0.72336,75.685
0.71457,75.098
0.70186,74.511
0.68719,73.924
0.6696,73.338
0.65005,72.751
0.62952,72.164
0.60899,71.773
0.59042,71.186
0.56891,70.6
0.54741,70.013
0.5259,69.426
0.50538,69.035
0.48778,68.449
0.47116,67.862
0.4565,67.471
0.44379,66.884
0.43206,66.493
0.42326,65.906
0.41544,65.515
0.40958,64.928
0.40371,64.537
0.39785,64.537
0.39296,64.733
0.38807,65.319
0.38319,67.08
0.37928,70.795
0.37537,76.858
0.37048,85.463
0.36657,95.437
0.36168,105.8
0.35777,115.58
0.35386,124.58
0.35093,132.01
0.34702,137.68
0.34311,141.59
0.3392,143.94
0.33529,145.11
0.33138,144.92
0.32747,143.94
0.32356,142.18
0.31965,140.22
0.31574,137.87
0.31183,135.53
0.3089,132.99
0.30694,130.25
0.30499,127.31
0.30205,123.99
0.29912,120.47
0.29619,116.56
0.29326,112.26
0.29032,107.76
0.28739,103.26
0.28348,98.957
0.28055,95.046
0.27761,91.917
0.27468,89.179
0.2737,87.223
0.27566,85.658
0.27957,84.681
0.28837,83.898
0.30401,83.507
0.32649,83.312
0.35777,83.312
0.39492,83.312
0.43695,83.312
0.48192,83.507
0.52786,83.507
0.57087,83.312
0.60606,83.116
0.63441,82.921
0.66276,82.725
0.68817,82.334
0.7087,81.747
0.72434,81.16
0.73607,80.574
0.74389,79.987
0.74682,79.4
0.7478,78.618
0.74389,78.031
0.73803,77.445
0.73021,76.662
0.71945,76.076
0.70674,75.489
0.6911,74.902
0.67351,74.316
0.65396,73.729
0.63245,72.947
0.61095,72.36
0.58847,71.578
0.56696,70.991
0.54545,70.209
0.52688,69.622
0.50929,69.035
0.49462,68.449
0.48289,67.862
0.47116,67.471
0.46041,66.884
0.45064,66.297
0.44184,65.906
0.435,65.319
0.42815,65.124
0.42131,64.928
0.41349,64.928
0.40762,65.711
0.40274,67.471
0.39883,71.186
0.39492,77.64
0.39101,86.441
0.38612,96.806
0.38221,107.56
0.37732,117.73
0.37243,126.73
0.36755,134.16
0.36364,139.83
0.35875,143.55
0.35386,145.89
0.34995,146.68
0.34506,146.48
0.34213,145.31
0.3392,143.74
0.33529,141.59
0.33138,139.44
0.32747,137.09
0.32356,134.75
0.31965,132.01
0.31574,129.07
0.31183,125.75
0.30792,122.23
0.30401,118.32
0.3001,114.02
0.29814,109.52
0.29619,104.82
0.29326,100.33
0.28935,96.024
0.28543,92.308
0.2825,89.374
0.27957,87.223
0.27957,85.463
0.2825,84.289
0.29228,83.507
0.3089,82.921
0.33236,82.725
0.36461,82.725
0.39785,82.725
0.43206,82.725
0.47312,82.725
0.51711,82.725
0.56012,82.529
0.6002,82.334
0.63539,82.138
0.66569,81.747
0.6911,81.356
0.70968,80.965
0.72434,80.378
0.73314,79.791
0.73803,79.009
0.73803,78.227
0.73705,77.64
0.73314,76.858
0.72727,76.271
0.71848,75.489
0.70674,74.902
0.69208,74.316
0.67546,73.533
0.65689,73.142
0.63636,72.555
0.61388,71.969
0.59042,71.382
0.56989,70.795
0.55034,70.209
0.52981,69.622
0.50929,69.035
0.48974,68.449
0.47214,67.862
0.4565,67.275
0.44282,66.688
0.43109,66.297
0.42033,65.711
0.41153,65.319
0.40274,64.733
0.39687,64.342
0.39198,64.146
0.3871,63.95
0.38221,64.146
0.37634,65.124
0.37146,67.471
0.36657,71.969
0.36266,79.009
0.35777,88.396
0.35288,98.957
0.348,109.52
0.34311,119.3
0.33822,127.9
0.33431,134.55
0.33138,139.44
0.32649,142.76
0.32258,144.52
0.31769,144.92
0.31378,144.33
0.3089,142.96
0.30499,141
0.30108,138.85
0.29717,136.31
0.29228,133.77
0.28837,131.03
0.28543,128.1
0.28348,124.77
0.28055,121.25
0.27664,117.34
0.2737,113.04
0.26979,108.54
0.26686,103.85
0.26295,99.348
0.26002,95.046
0.25611,91.525
0.2522,88.592
0.24927,86.245
0.24829,84.485
0.24927,83.312
0.25415,82.529
0.26491,81.943
0.28152,81.747
0.30596,81.552
0.3392,81.552
0.3783,81.552
0.42229,81.552
0.46921,81.552
0.51515,81.356
0.55816,81.16
0.59726,80.965
0.62757,80.769
0.65005,80.378
0.67155,79.987
0.69013,79.4
0.70381,79.009
0.71261,78.227
0.71848,77.64
0.71945,77.054
0.71848,76.271
0.71359,75.685
0.70577,75.098
0.69404,74.316
0.68035,73.729
0.66569,73.142
0.65005,72.555
0.63148,71.969
0.60997,71.382
0.58847,70.795
0.565,70.404
0.54252,69.818
0.52004,69.231
0.49951,68.644
0.47996,67.862
0.46237,67.471
0.44673,66.884
0.435,66.297
0.42522,65.906
0.41544,65.319
0.40567,64.733
0.39785,64.342
0.39101,63.755
0.38416,63.364
0.3783,63.168
0.37341,63.364
0.36852,63.755
0.36364,65.124
0.35875,68.057
0.35484,73.338
0.35093,80.965
0.348,90.548
0.34409,100.91
0.34018,110.89
0.33529,120.08
0.33138,127.71
0.32649,133.96
0.3216,138.07
0.31769,140.81
0.31281,142.18
0.3089,142.18
0.30499,141.2
0.30108,139.64
0.29912,137.68
0.29619,135.33
0.29228,132.79
0.28837,129.86
0.28446,126.92
0.28152,123.6
0.27761,119.88
0.2737,115.97
0.26979,111.67
0.26686,107.17
0.26295,102.48
0.261,97.979
0.25904,93.677
0.25611,90.157
0.25318,87.223
0.25024,84.876
0.24731,83.116
0.24633,81.943
0.24829,81.16
0.25513,80.769
0.26784,80.378
0.28935,80.378
0.31769,80.378
0.35386,80.574
0.38905,80.574
0.42522,80.574
0.46725,80.574
0.51124,80.574
0.55327,80.378
0.5914,80.183
0.62561,79.791
0.65396,79.596
0.67644,79.009
0.69404,78.422
0.70577,78.031
0.71359,77.249
0.71652,76.662
0.71554,75.88
0.71261,75.293
0.70577,74.511
0.69697,73.924
0.68426,73.338
0.6696,72.751
0.652,72.164
0.63245,71.578
0.61095,70.991
0.58847,70.6
0.565,70.013
0.54154,69.426
0.52199,68.84
0.5044,68.253
0.48583,67.666
0.46921,67.275
0.45259,66.688
0.43891,66.102
0.42717,65.711
0.41642,65.124
0.40665,64.537
0.39883,64.146
0.39198,63.755
0.38612,63.364
0.38123,62.973
0.37732,62.973
0.37341,63.364
0.3695,64.537
0.36559,66.688
0.36168,70.991
0.35777,77.836
0.35288,86.636
0.34897,96.61
0.34409,106.58
0.3392,115.97
0.33529,123.99
0.3304,130.83
0.32747,135.72
0.32454,139.05
0.32258,141
0.32063,141.59
0.31769,141
0.31378,139.64
0.30987,137.87
0.30596,135.72
0.30205,133.18
0.29912,130.44
0.29521,127.51
0.2913,124.38
0.28837,120.86
0.28641,116.95
0.28348,112.84
0.28055,108.34
0.27664,103.65
0.2737,98.957
0.27077,94.655
0.26686,90.939
0.26393,87.81
0.26002,85.267
0.25806,83.312
0.25611,81.943
0.25806,81.16
0.26295,80.574
0.27175,80.183
0.28739,80.183
0.31085,80.183
0.34115,80.183
0.37928,80.183
0.42229,80.378
0.46725,80.378
0.5132,80.183
0.55718,80.183
0.59726,79.987
0.63245,79.791
0.65787,79.4
0.67742,79.009
0.69599,78.422
0.70968,77.836
0.72043,77.249
0.7263,76.662
0.72825,75.88
0.7263,75.098
0.72141,74.511
0.71261,73.924
0.70088,73.338
0.68719,72.751
0.6696,72.164
0.652,71.578
0.63441,70.991
0.61388,70.404
0.5914,69.818
0.56794,69.426
0.54545,68.84
0.52297,68.253
0.50244,67.666
0.48387,67.275
0.46725,66.688
0.45259,66.102
0.43988,65.711
0.43011,65.124
0.42229,64.537
0.41447,64.146
0.40762,63.755
0.40078,63.364
0.39492,63.168
0.39003,63.168
0.38514,63.559
0.38025,64.537
0.37537,66.493
0.37146,70.795
0.36657,77.445
0.36266,86.245
0.35875,96.415
0.35582,106.58
0.35191,115.97
0.348,124.58
0.34311,131.62
0.3392,136.7
0.33431,140.22
0.3304,142.18
0.32551,142.76
0.3216,142.37
0.31672,141.2
0.31281,139.44
0.30987,137.29
0.30694,134.94
0.30401,132.4
0.3001,129.66
0.29619,126.73
0.29228,123.4
0.28837,119.88
0.28543,115.97
0.28152,111.67
0.27859,106.98
0.27468,102.28
0.27175,97.979
0.26882,93.872
0.26588,90.548
0.26491,87.81
0.26197,85.658
0.261,84.094
0.261,82.921
0.26588,82.334
0.27468,81.943
0.2913,81.747
0.31574,81.943
0.348,81.943
0.3871,82.138
0.43011,82.138
0.47019,82.138
0.50831,82.334
0.54936,82.138
0.58944,82.138
0.62561,81.747
0.65787,81.552
0.68426,80.965
0.70577,80.574
0.72141,79.791
0.73216,79.4
0.739,78.618
0.74096,78.031
0.73998,77.249
0.73509,76.662
0.72825,75.88
0.71848,75.293
0.70577,74.707
0.6911,74.12
0.67351,73.533
0.65298,73.142
0.63148,72.555
0.60899,72.164
0.58553,71.578
0.56305,70.991
0.54154,70.404
0.52297,70.013
0.50635,69.426
0.49071,69.035
0.47507,68.449
0.46139,67.862
0.44966,67.471
0.43988,67.08
0.43109,66.493
0.42326,66.102
0.4174,65.711
0.41153,65.319
0.40665,65.319
0.40176,65.515
0.39785,66.493
0.39492,68.644
0.39198,72.947
0.38807,79.791
0.38416,88.788
0.38025,99.153
0.37634,109.52
0.37243,119.3
0.36755,127.71
0.36364,134.75
0.35973,140.03
0.35582,143.35
0.35191,145.31
0.34897,145.89
0.34604,145.5
0.34213,144.33
0.33822,142.57
0.33529,140.61
0.33138,138.27
0.32845,135.72
0.32454,133.18
0.3216,130.05
0.31769,126.92
0.31476,123.6
0.31281,119.69
0.31085,115.58
0.3089,111.28
0.30596,106.78
0.30303,102.09
0.3001,97.979
0.29717,94.263
0.29423,91.33
0.2913,88.788
0.29032,87.027
0.2913,85.658
0.29619,84.876
0.30694,84.289
0.3216,84.094
0.34115,83.898
0.3695,83.898
0.40567,83.898
0.4477,83.898
0.49267,83.898
0.53763,83.703
0.58162,83.507
0.6217,83.116
0.65787,82.725
0.68719,82.334
0.71163,81.747
0.72825,81.16
0.73998,80.378
0.74878,79.791
0.75464,79.009
0.75758,78.227
0.7566,77.445
0.75269,76.858
0.74585,76.076
0.73607,75.489
0.72434,74.902
0.7087,74.12
0.69208,73.729
0.67253,73.142
0.65396,72.555
0.63441,72.164
0.61388,71.578
0.5914,70.991
0.56989,70.404
0.54839,69.818
0.52786,69.231
0.51026,68.644
0.49365,68.057
0.47898,67.471
0.46628,67.08
0.45552,66.493
0.44673,66.102
0.43891,65.515
0.43206,65.124
0.42522,64.733
0.41935,64.537
0.41251,64.537
0.40665,65.124
0.40078,66.884
0.39589,70.404
0.39003,76.662
0.38416,85.267
0.37928,95.632
0.37341,106.39
0.3695,116.75
0.36461,125.75
0.3607,133.38
0.35484,139.05
0.34995,142.96
0.34506,145.31
0.3392,146.09
0.33431,145.89
0.32942,144.72
0.32551,142.96
0.32063,141
0.31672,138.66
0.31281,136.11
0.31085,133.38
0.30694,130.44
0.30303,127.31
0.29912,123.79
0.29521,120.08
0.2913,116.17
0.28739,111.67
0.28348,107.17
0.27859,102.48
0.27273,97.979
0.26882,94.263
0.26393,90.939
0.261,88.201
0.26002,86.245
0.25904,84.681
0.261,83.703
0.26784,82.921
0.28055,82.529
0.30108,82.334
0.32942,82.334
0.36461,82.334
0.40665,82.529
0.45161,82.334
0.49658,82.334
0.53568,82.334
0.56891,82.138
0.60313,81.747
0.63441,81.356
0.6608,80.965
0.68231,80.574
0.69892,79.987
0.71065,79.205
0.71848,78.618
0.72239,77.836
0.72239,77.249
0.71848,76.467
0.71261,75.685
0.70381,75.098
0.69306,74.511
0.67937,73.729
0.66373,73.338
0.64614,72.555
0.62561,72.164
0.60411,71.578
0.58162,70.991
0.55914,70.404
0.53666,69.818
0.51515,69.231
0.49462,68.644
0.47801,68.057
0.46432,67.471
0.44966,67.08
0.43695,66.493
0.4262,65.906
0.41544,65.515
0.40665,64.928
0.39883,64.537
0.39198,64.146
0.38612,63.95
0.38025,63.755
0.37537,64.146
0.37048,65.124
0.36657,67.275
0.36266,71.382
0.35875,78.227
0.35386,87.419
0.34995,97.588
0.34506,107.95
0.34018,117.54
0.33529,125.95
0.3304,132.79
0.32551,137.68
0.3216,141
0.31672,142.76
0.31281,143.16
0.30987,142.57
0.30694,141.2
0.30303,139.24
0.29814,137.09
0.29423,134.75
0.29032,132.01
0.28641,129.07
0.2825,125.95
0.27859,122.62
0.27468,118.9
0.27175,114.8
0.26784,110.5
0.26588,105.8
0.26393,101.3
0.26197,96.806
0.25904,92.894
0.25611,89.57
0.2522,86.832
0.24927,84.681
0.24731,83.116
0.24829,82.138
0.2522,81.552
0.26197,81.16
0.27859,80.965
0.29814,80.965
0.32356,80.965
0.35679,80.965
0.39687,80.965
0.44086,80.965
0.48583,80.965
0.52981,80.769
0.56989,80.574
0.60606,80.183
0.63734,79.791
0.66276,79.596
0.68231,79.009
0.69599,78.422
0.70479,77.836
0.7087,77.054
0.71065,76.467
0.70968,75.685
0.70577,75.098
0.69892,74.511
0.68817,73.924
0.67546,73.338
0.6608,72.751
0.64223,72.164
0.62268,71.578
0.60117,70.991
0.58162,70.404
0.56207,69.818
0.54154,69.426
0.52102,68.84
0.50049,68.253
0.48094,67.666
0.46334,67.08
0.4477,66.688
0.435,66.102
0.42229,65.515
0.41251,65.124
0.40371,64.537
0.39687,64.146
0.39198,63.559
0.38612,63.168
0.38123,62.973
0.37634,63.168
0.37146,63.755
0.36657,65.124
0.36266,68.057
0.35875,73.338
0.35386,80.965
0.34995,90.548
0.34506,100.72
0.34115,110.69
0.33724,119.88
0.33431,127.71
0.3304,133.77
0.32649,137.87
0.32258,140.61
0.31769,141.79
0.31378,141.98
0.30987,141
0.30596,139.44
0.30205,137.48
0.29814,135.14
0.29423,132.59
0.2913,129.86
0.28935,126.73
0.28641,123.4
0.28348,119.88
0.27957,115.97
0.27664,111.67
0.27273,107.17
0.26979,102.48
0.26588,97.979
0.26295,93.872
0.26002,90.352
0.25611,87.419
0.25318,85.072
0.25122,83.312
0.25122,81.943
0.25318,81.16
0.25806,80.769
0.26784,80.574
0.28543,80.574
0.31085,80.574
0.34311,80.769
0.38221,80.769
0.42522,80.769
0.47116,80.769
0.51613,80.574
0.55327,80.574
0.58553,80.183
0.61681,79.987
0.64516,79.596
0.66862,79.009
0.68817,78.422
0.70283,77.836
0.71261,77.249
0.7175,76.662
0.71945,75.88
0.71652,75.293
0.71163,74.511
0.70283,73.924
0.69208,73.338
0.67937,72.751
0.66373,72.164
0.64516,71.773
0.62561,71.186
0.60313,70.6
0.58065,70.013
0.55816,69.426
0.53568,69.035
0.51417,68.449
0.49462,67.862
0.47703,67.471
0.46237,66.884
0.44966,66.297
0.43793,65.906
0.42717,65.319
0.41838,64.733
0.40958,64.146
0.40274,63.755
0.39589,63.364
0.39003,62.973
0.38514,62.973
0.38025,63.168
0.37634,64.146
0.37146,65.906
0.36755,70.013
0.36461,76.467
0.3607,85.267
0.35679,95.241
0.35288,105.61
0.348,114.99
0.34311,123.6
0.3392,130.44
0.33431,135.72
0.32942,139.24
0.32551,141.2
0.32063,142.18
0.31769,141.79
0.31476,140.61
0.31183,138.85
0.30792,136.9
0.30401,134.55
0.3001,131.81
0.29619,129.07
0.29228,125.95
0.28935,122.62
0.28543,119.1
0.28152,114.99
0.27859,110.69
0.27566,106.19
0.27273,101.5
0.27077,97.197
0.26882,93.286
0.26491,89.765
0.26197,87.027
0.25904,84.876
0.25709,83.312
0.25611,82.334
0.25904,81.552
0.26784,81.356
0.2825,81.16
0.30499,81.16
0.32942,81.16
0.35875,81.356
0.39589,81.356
0.44282,81.552
0.49365,81.356
0.54154,81.356
0.58651,81.16
0.62659,80.965
0.66178,80.769
0.69013,80.378
0.71261,79.791
0.73021,79.4
0.74291,78.814
0.74878,78.227
0.75073,77.64
0.75073,76.858
0.74682,76.271
0.74096,75.685
0.73118,75.098
0.71848,74.511
0.70381,73.924
0.68622,73.338
0.66569,72.751
0.64321,72.36
0.62072,71.773
0.59922,71.186
0.57869,70.6
0.55718,70.209
0.53666,69.622
0.51613,69.231
0.49756,68.84
0.48094,68.253
0.4653,67.862
0.45259,67.275
0.44184,66.884
0.43206,66.297
0.42326,65.906
0.41642,65.319
0.41056,65.124
0.40567,64.928
0.40176,65.124
0.39687,65.906
0.39296,68.057
0.38807,71.969
0.38416,78.422
0.38025,87.223
0.37537,97.393
0.37146,107.76
0.36755,117.54
0.36266,126.14
0.35973,133.38
0.35582,138.85
0.35288,142.37
0.348,144.33
0.34409,145.11
0.34018,144.72
0.33627,143.55
0.33236,141.79
0.32845,139.83
0.32454,137.68
0.32063,135.14
0.31672,132.59
0.31378,129.86
0.31085,126.73
0.30987,123.4
0.30694,119.69
0.30499,115.78
0.30205,111.28
0.29912,106.78
0.29619,102.28
0.29423,98.175
0.2913,94.459
0.28837,91.33
0.28543,88.983
0.28348,87.223
0.28348,85.854
0.28739,84.876
0.29521,84.485
0.30792,84.289
0.32942,84.094
0.35875,84.289
0.39492,84.289
0.43793,84.289
0.48387,84.289
0.53177,84.289
0.57771,84.094
0.62072,83.898
0.65982,83.507
0.68915,82.921
0.71065,82.529
0.73216,81.747
0.74878,80.965
0.76149,80.183
0.77028,79.4
0.77517,78.618
0.77615,77.836
0.77419,77.249
0.76833,76.467
0.75953,75.88
0.74878,75.293
0.73509,74.902
0.72043,74.316
0.70283,73.729
0.68231,73.338
0.6608,72.751
0.63832,72.164
0.61486,71.578
0.59238,70.991
0.56989,70.404
0.54936,69.818
0.52981,69.035
0.5132,68.644
0.49951,68.057
0.48876,67.471
0.47703,66.884
0.46725,66.297
0.45846,65.711
0.45064,65.124
0.44379,64.733
0.43695,64.537
0.43109,64.733
0.42522,65.319
0.42033,67.08
0.41544,70.795
0.40958,77.249
0.40567,86.05
0.40176,96.415
0.39687,107.17
0.39198,117.34
0.38612,126.34
0.38123,133.77
0.37537,139.24
0.37048,143.16
0.36461,145.11
0.35973,145.89
0.35484,145.7
0.35093,144.52
0.34702,142.76
0.34409,140.81
0.34018,138.46
0.33627,136.11
0.33138,133.57
0.32747,130.83
0.32258,127.9
0.31769,124.58
0.31378,121.06
0.3089,117.14
0.30499,112.84
0.30108,108.34
0.29717,103.65
0.29326,99.348
0.2913,95.241
0.28739,91.917
0.28348,89.179
0.27957,87.223
0.27761,85.463
0.27859,84.289
0.28446,83.507
0.29717,83.116
0.31769,82.921
0.34702,82.725
0.38319,82.725
0.41935,82.725
0.4565,82.725
0.50049,82.725
0.54545,82.529
0.58847,82.334
0.62854,82.138
0.66373,81.747
0.69208,81.16
0.71554,80.769
0.73412,80.183
0.74682,79.4
0.75464,78.814
0.75855,78.031
0.75758,77.249
0.75464,76.662
0.74878,75.88
0.74096,75.293
0.73021,74.707
0.71652,73.924
0.70088,73.533
0.68231,72.947
0.66276,72.36
0.64027,71.773
0.61681,71.186
0.59335,70.6
0.57185,70.013
0.5523,69.426
0.53177,68.84
0.51222,68.253
0.49365,67.666
0.47703,67.275
0.46139,66.688
0.44868,66.297
0.43695,65.711
0.42717,65.124
0.41838,64.733
0.41056,64.342
0.40469,63.95
0.39883,63.755
0.39492,63.95
0.39003,64.928
0.38514,66.884
0.38025,70.991
0.37537,77.836
0.37048,86.832
0.36559,97.393
0.3607,107.95
0.35484,117.93
0.34995,126.73
0.34506,133.77
0.34115,138.85
0.33724,142.37
0.33333,144.13
0.32845,144.92
0.32356,144.52
0.31965,143.35
0.31476,141.59
0.31085,139.44
0.30596,137.09
0.30205,134.55
0.29717,131.81
0.29326,128.88
0.28935,125.75
0.28543,122.43
0.28348,118.71
0.28055,114.6
0.27761,110.1
0.2737,105.41
0.27077,100.91
0.26686,96.61
0.26393,93.09
0.26002,89.961
0.25709,87.419
0.25415,85.658
0.25415,84.094
0.25611,83.116
0.26295,82.529
0.27566,82.138
0.29521,81.943
0.32356,81.943
0.3607,81.747
0.40274,81.747
0.45064,81.747
0.49853,81.552
0.54643,81.356
0.5914,81.356
0.6305,81.16
0.66471,80.769
0.69013,80.183
0.7087,79.791
0.72434,79.205
0.73705,78.618
0.74585,78.031
0.75073,77.249
0.75171,76.662
0.74878,75.88
0.74389,75.098
0.72825,74.511
0.70577,73.924
0.68719,73.338
0.6696,72.751
0.65298,72.164
0.63343,71.773
0.61193,70.991
0.59042,70.6
0.56794,70.013
0.54545,69.426
0.52395,68.84
0.50342,68.253
0.48485,67.666
0.46823,67.275
0.45259,66.688
0.43988,66.102
0.42913,65.711
0.42033,65.124
0.41251,64.733
0.40078,64.146
0.39394,63.755
0.38807,63.559
0.37928,63.559
0.37439,63.95
0.3695,64.928
0.36461,67.471
0.35973,72.164
0.35679,79.205
0.35386,88.592
0.34995,98.761
0.34506,108.93
0.34115,118.12
0.33627,126.34
0.33236,132.79
0.32747,137.48
0.32258,140.42
0.31867,141.98
0.31378,142.37
0.30792,141.59
0.30401,140.22
0.30108,138.46
0.29521,136.31
0.2913,133.77
0.28739,131.23
0.2825,128.49
0.27859,125.36
0.27468,122.03
0.27175,118.32
0.26686,114.21
0.26393,109.91
0.26197,105.22
0.25806,100.72
0.25513,96.415
0.25318,92.503
0.25318,89.374
0.25611,86.636
0.26393,84.681
0.27859,83.116
0.30108,82.138
0.33138,81.356
0.36852,81.16
0.41056,80.769
0.44868,80.769
0.48583,80.769
0.5259,80.769
0.565,80.769
0.60117,80.769
0.63343,80.574
0.65982,80.378
0.68133,80.183
0.69697,79.987
0.7087,79.596
0.71554,79.205
0.71945,78.814
0.71848,78.227
0.71457,77.445
0.70772,76.858
0.69892,76.271
0.68719,75.489
0.67253,74.902
0.65591,74.316
0.63636,73.729
0.61584,73.142
0.59335,72.555
0.57087,71.969
0.54839,71.382
0.52884,70.795
0.51124,70.209
0.49365,69.622
0.47605,69.035
0.46041,68.644
0.44673,68.057
0.43402,67.471
0.42326,67.08
0.41447,66.493
0.40567,65.906
0.39883,65.515
0.39198,64.928
0.3871,64.342
0.38221,63.755
0.3783,63.364
0.37439,63.168
0.37048,62.973
0.36559,63.364
0.36168,64.146
0.35679,65.906
0.35288,69.818
0.34897,76.271
0.34409,85.072
0.34018,95.241
0.33529,105.61
0.33236,115.19
0.32942,123.79
0.32551,130.83
0.3216,136.11
0.31672,139.64
0.31281,141.79
0.3089,142.57
0.30499,142.37
0.30108,141.2
0.29717,139.44
0.29326,137.29
0.28935,134.94
0.28543,132.4
0.28348,129.66
0.28152,126.92
0.27859,123.6
0.27566,120.27
0.27273,116.36
0.26882,112.26
0.26588,107.76
0.261,103.06
0.25806,98.566
0.25513,94.459
0.25513,90.939
0.25806,88.005
0.26393,85.658
0.2737,83.703
0.2913,82.529
0.31672,81.552
0.34995,81.16
0.38905,80.769
0.43304,80.769
0.47898,80.574
0.52395,80.574
0.56696,80.574
0.60508,80.574
0.6393,80.378
0.66667,80.378
0.68719,80.183
0.70088,79.987
0.71261,79.596
0.72141,79.205
0.72727,78.814
0.72825,78.227
0.72727,77.64
0.72239,76.858
0.71359,76.271
0.70283,75.685
0.68915,75.098
0.67351,74.511
0.65591,73.729
0.6393,73.142
0.61877,72.555
0.59726,72.164
0.57478,71.578
0.55132,70.991
0.52981,70.404
0.50929,69.818
0.48974,69.231
0.47312,68.644
0.45748,68.057
0.44379,67.471
0.43206,67.08
0.42326,66.493
0.41544,65.906
0.4086,65.515
0.40176,64.928
0.39492,64.537
0.38905,63.95
0.38416,63.364
0.37928,62.973
0.37439,62.777
0.37048,62.777
0.36559,63.168
0.36168,64.537
0.35777,67.471
0.35484,72.751
0.35093,80.769
0.34604,90.352
0.34115,100.91
0.33724,110.89
0.33138,119.88
0.32649,127.71
0.32258,133.96
0.31867,138.27
0.31476,141
0.30987,142.37
0.30596,142.57
0.30303,141.98
0.30108,140.61
0.29717,138.85
0.29326,136.7
0.29032,134.35
0.28641,131.81
0.28348,129.07
0.27957,126.14
0.27566,123.01
0.27273,119.49
0.26882,115.58
0.26588,111.28
0.26295,106.98
0.261,102.28
0.25806,97.979
0.25611,93.872
0.25611,90.548
0.25904,87.81
0.26784,85.658
0.28348,83.898
0.30694,82.725
0.33822,81.943
0.37634,81.552
0.41935,81.356
0.4653,81.356
0.50635,81.356
0.54252,81.356
0.58065,81.356
0.61584,81.356
0.64809,81.356
0.67449,81.356
0.69599,81.16
0.71261,80.965
0.72434,80.574
0.73216,80.183
0.73509,79.791
0.73509,79.205
0.73216,78.618
0.72532,78.031
0.7175,77.445
0.70577,76.662
0.69208,76.076
0.67546,75.489
0.65689,74.902
0.63636,74.316
0.61486,73.729
0.5914,73.338
0.56891,72.751
0.54643,72.164
0.52493,71.578
0.50635,70.991
0.49071,70.6
0.47507,70.013
0.46139,69.426
0.44966,69.035
0.43891,68.644
0.42815,68.057
0.41935,67.471
0.41251,67.08
0.40567,66.493
0.39785,65.906
0.39198,65.515
0.38807,65.124
0.38514,64.733
0.38221,64.733
0.3783,65.124
0.37439,66.297
0.3695,69.035
0.36559,74.12
0.3607,81.747
0.35582,91.525
0.35191,102.09
0.34702,112.45
0.34311,121.84
0.33822,129.86
0.33529,136.31
