0.35093,65.515
0.3607,65.124
0.37732,64.733
0.39785,64.733
0.42229,64.733
0.45455,64.928
0.49267,65.319
0.53275,65.711
0.57185,66.297
0.60899,66.688
0.64125,67.275
0.66764,67.471
0.68719,67.862
0.70088,68.057
0.70968,68.253
0.71261,68.253
0.71163,68.253
0.70772,68.057
0.70088,67.862
0.69013,67.471
0.67644,67.275
0.6608,66.884
0.64223,66.493
0.62366,66.102
0.60215,65.711
0.58065,65.124
0.55914,64.733
0.53666,64.146
0.51906,63.559
0.50342,63.168
0.4868,62.582
0.47116,61.995
0.4565,61.408
0.44379,60.821
0.43402,60.235
0.4262,59.648
0.42033,59.257
0.41642,58.67
0.41349,58.279
0.41153,57.692
0.41251,57.301
0.41447,56.91
0.41642,56.715
0.4174,56.323
0.41935,56.128
0.42033,56.128
0.42131,56.128
0.42131,56.323
0.42131,56.91
0.42033,57.888
0.42033,59.844
0.41935,62.777
0.4174,67.08
0.41642,72.36
0.41544,78.227
0.41251,84.094
0.40958,89.765
0.40665,95.046
0.40371,99.739
0.3998,103.65
0.39589,106.78
0.39101,109.13
0.3871,110.3
0.38319,110.69
0.3783,110.3
0.37537,109.32
0.37341,107.56
0.37048,105.41
0.36657,102.67
0.36168,99.739
0.35679,96.415
0.35288,92.894
0.348,88.983
0.34311,85.267
0.33822,81.356
0.33333,77.836
0.32942,74.511
0.32454,71.773
0.32258,69.426
0.3216,67.471
0.31965,66.102
0.31867,64.928
0.31867,64.146
0.32258,63.755
0.33138,63.364
0.34702,63.364
0.36852,63.364
0.39687,63.559
0.43011,63.95
0.46628,64.342
0.50049,64.928
0.53079,65.319
0.56207,65.711
0.5914,66.102
0.61681,66.493
0.63539,66.688
0.64907,66.884
0.65787,66.884
0.66178,66.884
0.6608,66.688
0.65591,66.493
0.64809,66.297
0.63734,66.102
0.62561,65.906
0.6129,65.515
0.59726,65.124
0.57869,64.733
0.55816,64.342
0.53763,63.95
0.51613,63.364
0.4956,62.973
0.47605,62.386
0.45846,61.799
0.44282,61.408
0.42913,60.821
0.42033,60.235
0.41447,59.648
0.4086,59.061
0.40371,58.475
0.3998,58.083
0.39785,57.497
0.39589,57.106
0.39589,56.519
0.39589,56.128
0.39687,55.737
0.39785,55.346
0.39883,55.15
0.40078,54.954
0.40371,54.954
0.40665,55.15
0.4086,55.346
0.4086,56.128
0.4086,57.497
0.40762,60.039
0.40665,63.755
0.40567,68.644
0.40371,74.12
0.40176,80.183
0.3998,86.05
0.39687,91.525
0.39492,96.61
0.39394,100.91
0.39101,104.63
0.38905,107.17
0.38612,108.93
0.38416,109.91
0.38123,109.91
0.3783,109.13
0.37439,107.76
0.37048,105.61
0.36559,103.26
0.3607,100.33
0.35582,97.197
0.35288,93.677
0.35093,90.157
0.34897,86.245
0.34506,82.529
0.34213,78.814
0.33822,75.489
0.33529,72.555
0.33236,70.013
0.32942,68.057
0.32649,66.297
0.32551,65.124
0.32551,64.146
0.32747,63.559
0.33431,63.168
0.34506,62.973
0.36168,62.973
0.38514,63.168
0.41544,63.364
0.44966,63.95
0.48778,64.342
0.5259,64.733
0.56207,65.124
0.59433,65.515
0.6217,65.906
0.64321,66.297
0.65885,66.493
0.66862,66.493
0.67546,66.493
0.67742,66.493
0.67644,66.297
0.67058,66.102
0.66178,65.906
0.65005,65.515
0.63539,65.319
0.6129,64.928
0.58358,64.537
0.55621,64.146
0.5347,63.755
0.51515,63.168
0.49365,62.777
0.47214,62.386
0.45064,61.799
0.43206,61.213
0.41544,60.821
0.40078,60.235
0.38905,59.648
0.37928,59.061
0.37243,58.67
0.36755,58.083
0.36559,57.692
0.36657,57.106
0.36852,56.715
0.3695,56.323
0.37146,55.932
0.37439,55.541
0.37634,55.346
0.37732,55.15
0.37928,54.954
0.38025,54.954
0.38025,55.15
0.38025,55.737
0.38025,56.91
0.38123,58.866
0.38123,62.19
0.38025,66.884
0.3783,72.36
0.37634,78.422
0.37341,84.485
0.37243,90.548
0.37048,95.828
0.36852,100.72
0.36755,104.43
0.36461,107.56
0.36266,109.71
0.35973,110.89
0.35777,111.08
0.35679,110.5
0.35386,109.32
0.34995,107.37
0.34604,105.22
0.34115,102.67
0.33529,99.739
0.3304,96.415
0.32551,92.894
0.3216,89.179
0.31769,85.267
0.31378,81.552
0.31281,77.836
0.31183,74.707
0.30987,71.773
0.30694,69.426
0.30401,67.666
0.30108,66.102
0.29912,64.928
0.29912,64.146
0.30401,63.559
0.31378,63.364
0.33138,63.364
0.35777,63.559
0.39101,63.755
0.42522,64.146
0.46139,64.537
0.50342,64.928
0.54643,65.515
0.58749,65.711
0.62366,66.102
0.65396,66.297
0.67742,66.688
0.69501,66.884
0.70479,66.884
0.70968,66.884
0.70968,66.688
0.70577,66.493
0.6999,66.297
0.69013,66.102
0.67742,65.711
0.6608,65.319
0.64223,64.928
0.62072,64.537
0.59824,64.146
0.57478,63.755
0.55034,63.168
0.52688,62.777
0.5044,62.19
0.4868,61.604
0.47312,61.213
0.45846,60.626
0.44673,60.039
0.43597,59.452
0.42717,58.866
0.42131,58.279
0.4174,57.888
0.41544,57.497
0.41447,56.91
0.41447,56.519
0.41544,56.128
0.41642,55.737
0.41838,55.346
0.42033,55.346
0.42229,55.15
0.42424,55.15
0.42522,55.15
0.42717,55.541
0.42717,56.519
0.42717,58.279
0.4262,61.408
0.42522,65.711
0.42424,70.991
0.42229,77.054
0.42033,83.507
0.41838,89.765
0.41642,95.437
0.41349,100.52
0.41056,104.82
0.4086,108.34
0.40567,110.89
0.40274,112.26
0.39883,112.84
0.39492,112.65
0.39003,111.67
0.38514,110.1
0.38025,108.15
0.37732,105.61
0.37537,103.06
0.37243,99.935
0.3695,96.61
0.36559,93.09
0.36168,89.374
0.35777,85.658
0.35386,81.943
0.34897,78.618
0.34506,75.685
0.34115,73.142
0.33724,70.795
0.33529,69.231
0.33529,67.862
0.33627,66.884
0.3392,66.102
0.34897,65.711
0.36364,65.515
0.38612,65.711
0.4174,65.906
0.45455,66.102
0.49756,66.688
0.5435,67.08
0.58847,67.471
0.6305,68.057
0.66569,68.449
0.69306,68.84
0.7175,69.035
0.73803,69.426
0.75269,69.426
0.76246,69.426
0.76735,69.426
0.76735,69.231
0.76246,69.035
0.75367,68.644
0.74194,68.253
0.72727,67.862
0.71359,67.471
0.69892,67.08
0.68133,66.493
0.6608,66.102
0.64027,65.515
0.61877,65.124
0.59824,64.537
0.57869,63.95
0.55914,63.364
0.54154,62.973
0.5259,62.582
0.5132,61.995
0.50342,61.408
0.49756,61.017
0.49462,60.626
0.49169,60.039
0.49071,59.844
0.49071,59.452
0.49169,58.866
0.49365,58.475
0.4956,58.083
0.49756,57.888
0.49853,57.692
0.49951,57.692
0.49951,57.692
0.49951,58.083
0.49951,59.061
0.49951,60.821
0.49951,63.755
0.49951,68.253
0.49951,73.729
0.49951,79.987
0.49951,86.441
0.49951,92.699
0.49853,98.566
0.49658,103.85
0.49462,108.15
0.49169,111.47
0.49071,114.02
0.48876,115.38
0.4868,115.97
0.48289,115.58
0.47801,114.8
0.4741,113.23
0.47019,111.47
0.46628,109.13
0.46237,106.58
0.45943,103.65
0.4565,100.52
0.45357,97.197
0.45161,93.481
0.45064,89.765
0.4477,86.05
0.44379,82.529
0.43988,79.205
0.43597,76.076
0.43304,73.533
0.43011,71.382
0.42815,69.818
0.42913,68.644
0.43402,67.666
0.44379,67.275
0.45943,66.884
0.47898,66.884
0.5044,67.08
0.53959,67.275
0.58162,67.666
0.62854,67.862
0.67742,68.253
0.72434,68.644
0.76735,69.035
0.80352,69.426
0.83382,69.622
0.85728,69.818
0.87292,69.818
0.88172,69.622
0.88465,69.426
0.88563,69.231
0.8827,68.84
0.87781,68.449
0.86901,68.057
0.85924,67.666
0.84653,67.275
0.83089,66.884
0.81329,66.297
0.79374,65.906
0.77322,65.319
0.75171,64.733
0.73216,64.342
0.71457,63.755
0.69599,63.168
0.652,62.777
0.59726,62.19
0.565,61.604
0.54448,61.213
0.53079,60.626
0.52199,60.235
0.51613,59.844
0.51222,59.257
0.51026,58.866
0.50929,58.279
0.50929,58.083
0.51026,57.692
0.51124,57.301
0.51222,56.91
0.5132,56.91
0.51417,56.715
0.51515,56.91
0.51613,57.301
0.51613,58.475
0.51515,60.626
0.51417,63.95
0.5132,68.644
0.51124,74.511
0.51026,81.16
0.50831,87.81
0.50538,94.068
0.50244,99.935
0.49951,105.22
0.4956,109.32
0.49365,112.65
0.49071,114.8
0.48778,116.17
0.48485,116.36
0.48094,115.97
0.47898,114.6
0.47703,112.84
0.47312,110.5
0.46921,107.95
0.46432,105.02
0.46041,101.89
0.4565,98.37
0.45357,94.655
0.44966,90.743
0.44575,86.832
0.44282,83.116
0.43891,79.596
0.43597,76.467
0.43304,73.729
0.43109,71.578
0.42815,69.818
0.42522,68.449
0.42424,67.471
0.4262,66.884
0.43304,66.493
0.44673,66.297
0.46628,66.297
0.49365,66.688
0.52786,67.08
0.56598,67.471
0.6002,67.862
0.63343,68.253
0.66862,68.644
0.70186,69.035
0.73118,69.426
0.75562,69.622
0.77419,69.818
0.78788,69.818
0.7957,69.622
0.79961,69.426
0.79961,69.231
0.7957,69.035
0.78886,68.644
0.78104,68.253
0.77126,67.862
0.75953,67.275
0.74487,66.884
0.72825,66.297
0.70968,65.906
0.68915,65.319
0.66862,64.733
0.64809,64.342
0.62854,63.755
0.60997,63.168
0.59335,62.582
0.57967,61.995
0.56891,61.408
0.55914,60.821
0.55034,60.43
0.54252,59.844
0.53666,59.452
0.53275,58.866
0.52981,58.279
0.52884,57.888
0.52786,57.497
0.52786,57.301
0.52786,56.91
0.52786,56.715
0.52786,56.715
0.52786,56.715
0.52688,56.91
0.5259,57.497
0.52493,58.67
0.52395,60.821
0.52199,64.342
0.51906,69.231
0.51613,75.098
0.51222,81.552
0.50733,88.005
0.50244,94.263
0.49853,99.935
0.4956,104.82
0.49169,108.74
0.48778,111.86
0.48289,114.02
0.47898,114.99
0.4741,114.99
0.46921,114.21
0.46334,112.84
0.45846,110.89
0.45455,108.74
0.44868,105.8
0.44477,102.67
0.44086,99.348
0.43597,95.632
0.43011,91.917
0.42522,88.005
0.42033,84.094
0.41544,80.378
0.41056,76.858
0.40567,73.924
0.40176,71.578
0.39687,69.622
0.39296,68.057
0.39101,66.884
0.39101,66.102
0.39296,65.711
0.3998,65.515
0.41153,65.515
0.43109,65.711
0.4565,66.102
0.48778,66.493
0.52395,67.08
0.56109,67.666
0.59922,68.253
0.63539,68.84
0.66764,69.035
0.69208,69.426
0.70968,69.622
0.72532,69.818
0.73705,69.818
0.74389,69.622
0.74585,69.426
0.74487,69.231
0.73998,68.84
0.73314,68.449
0.72336,68.057
0.71065,67.666
0.69599,67.275
0.67937,66.688
0.66276,66.102
0.64614,65.711
0.62757,65.124
0.60802,64.537
0.58847,64.146
0.56989,63.364
0.5523,62.777
0.53666,62.19
0.52395,61.799
0.51222,61.213
0.50342,60.626
0.49658,60.235
0.49169,59.648
0.48876,59.061
0.4868,58.67
0.48485,58.279
0.48387,57.888
0.48485,57.497
0.48583,57.301
0.4868,57.106
0.48778,56.91
0.48974,57.106
0.48974,57.301
0.49071,57.888
0.48974,59.061
0.48974,61.408
0.48876,64.733
0.48778,69.426
0.48485,75.098
0.48192,81.552
0.47801,87.81
0.47507,93.872
0.47019,99.544
0.46628,104.63
0.46237,108.74
0.45846,111.86
0.45455,114.02
0.45161,115.19
0.44868,115.38
0.44575,114.8
0.44184,113.43
0.43695,111.67
0.43206,109.32
0.4262,106.58
0.42131,103.46
0.41642,99.935
0.41153,96.415
0.40665,92.308
0.40176,88.396
0.39687,84.485
0.39296,80.769
0.39003,77.445
0.3871,74.316
0.38319,71.969
0.38025,70.013
0.37732,68.449
0.37537,67.275
0.37537,66.493
0.3783,65.906
0.38514,65.906
0.39883,65.906
0.4174,66.102
0.43988,66.493
0.4653,66.884
0.49756,67.471
0.5347,68.057
0.57185,68.644
0.60997,69.035
0.64321,69.426
0.67253,69.818
0.69501,70.013
0.71261,70.013
0.7263,70.013
0.73412,70.013
0.73803,69.622
0.73803,69.426
0.73509,69.035
0.72923,68.644
0.72141,68.253
0.70968,67.862
0.69599,67.471
0.67937,66.884
0.6608,66.493
0.64125,65.906
0.6217,65.319
0.60215,64.733
0.5826,64.342
0.56598,63.559
0.55132,62.973
0.53666,62.582
0.52395,61.995
0.51222,61.408
0.50342,61.017
0.4956,60.43
0.49071,59.844
0.4868,59.452
0.48485,58.866
0.45748,58.475
0.4174,58.083
0.39785,57.692
0.39003,57.301
0.38612,57.106
0.38514,57.106
0.38514,57.106
0.38416,57.497
0.38416,58.279
0.38416,59.648
0.38319,62.19
0.38123,66.102
0.3783,71.382
0.37634,77.445
0.37341,84.094
0.37048,90.743
0.36755,97.197
0.36266,102.87
0.35777,107.76
0.35288,111.86
0.348,114.99
0.34311,116.95
0.33822,117.73
0.33333,117.73
0.32747,116.95
0.32258,115.38
0.31769,113.43
0.31281,111.08
0.3089,108.34
0.30401,105.22
0.29912,101.89
0.29423,98.175
0.28837,94.263
0.2825,90.352
0.27664,86.245
0.27175,82.529
0.26588,79.009
0.26197,75.88
0.25806,73.338
0.25513,71.186
0.25318,69.622
0.25415,68.449
0.25513,67.471
0.26002,67.08
0.26882,66.884
0.28446,66.884
0.30792,67.08
0.3392,67.471
0.37732,67.862
0.42033,68.449
0.46432,68.84
0.50929,69.426
0.54643,70.013
0.57771,70.404
0.60899,70.6
0.63636,70.991
0.65885,70.991
0.67644,70.991
0.68817,70.795
0.69404,70.6
0.69599,70.404
0.69208,70.013
0.68426,69.622
0.67351,69.035
0.65982,68.644
0.64516,68.253
0.62952,67.666
0.61095,67.08
0.59042,66.493
0.56891,65.906
0.54643,65.319
0.52395,64.733
0.50244,64.146
0.48289,63.559
0.4653,62.973
0.44966,62.386
0.43695,61.995
0.42717,61.408
0.41935,60.821
0.41251,60.235
0.40665,59.844
0.40274,59.452
0.3998,58.866
0.39785,58.475
0.39785,58.279
0.39785,57.888
0.39785,57.692
0.39785,57.692
0.39785,57.692
0.39785,58.083
0.39785,58.866
0.39785,60.43
0.39687,63.168
0.39589,67.471
0.39394,72.947
0.39101,79.4
0.38807,86.05
0.38416,92.894
0.37928,99.348
0.37439,105.02
0.3695,110.1
0.36364,114.02
0.35973,116.75
0.35582,118.51
0.35093,119.1
0.34604,118.9
0.34115,117.93
0.33627,116.36
0.33236,114.41
0.32747,111.86
0.32258,109.13
0.31672,106.19
0.31085,102.67
0.30499,99.153
0.3001,95.241
0.29521,91.33
0.29228,87.419
0.28837,83.507
0.28446,79.791
0.27957,76.662
0.27468,73.924
0.26979,71.773
0.26588,70.209
0.26393,68.84
0.26491,68.057
0.26979,67.471
0.28152,67.275
0.29814,67.275
0.31867,67.471
0.34897,67.862
0.38612,68.253
0.42913,68.84
0.47507,69.426
0.52199,69.818
0.56696,70.404
0.60704,70.795
0.64223,71.186
0.67058,71.382
0.69306,71.382
0.7087,71.382
0.7175,71.186
0.72141,70.991
0.72239,70.6
0.72043,70.404
0.71554,70.013
0.70674,69.622
0.69599,69.035
0.68231,68.644
0.66471,68.057
0.64516,67.666
0.62366,67.08
0.60215,66.493
0.58162,65.906
0.56305,65.319
0.54252,64.733
0.52199,64.146
0.50342,63.755
0.48583,63.168
0.47019,62.777
0.45748,62.19
0.44673,61.604
0.43793,61.213
0.43206,60.821
0.42913,60.235
0.42717,59.844
0.42717,59.452
0.42717,59.061
0.42815,58.866
0.42815,58.67
0.42913,58.67
0.42913,58.67
0.42913,59.257
0.42913,60.235
0.42815,61.995
0.42717,65.319
0.42522,70.013
0.42131,75.88
0.41838,82.725
0.41642,89.57
0.41251,96.61
0.4086,102.87
0.40469,108.54
0.40078,113.23
0.39492,116.95
0.39003,119.3
0.38416,120.67
0.37928,121.06
0.37341,120.67
0.36852,119.49
0.36266,117.93
0.35875,115.78
0.35484,113.23
0.34995,110.5
0.34604,107.56
0.34213,104.24
0.33724,100.91
0.33236,97.001
0.32747,93.286
0.3216,89.179
0.31574,85.658
0.30987,82.138
0.30499,79.009
0.30108,76.271
0.29912,74.12
0.29619,72.164
0.29521,70.991
0.29619,70.209
0.30205,69.622
0.31378,69.426
0.33333,69.622
0.36168,69.818
0.39883,70.209
0.44184,70.795
0.48974,71.382
0.53959,71.969
0.5826,72.36
0.61975,72.947
0.65787,73.142
0.69306,73.533
0.72239,73.533
0.74682,73.338
0.76442,73.142
0.7781,72.555
0.7869,72.164
0.78983,71.382
0.78886,70.795
0.78397,70.013
0.77615,69.035
0.7654,68.253
0.75367,67.471
0.739,66.688
0.72141,65.906
0.70283,65.319
0.68328,64.537
0.66178,63.95
0.64027,63.168
0.61779,62.777
0.59726,62.19
0.57869,61.604
0.56207,61.213
0.54839,60.821
0.53763,60.235
0.52786,59.844
0.52004,59.452
0.51515,58.866
0.51222,58.475
0.51026,58.083
0.51026,57.497
0.51026,57.106
0.51124,56.715
0.51124,56.519
0.51124,56.519
0.51026,56.715
0.50929,57.106
0.50831,57.888
0.50733,59.844
0.49951,62.973
0.48876,67.471
0.48094,73.729
0.4741,80.769
0.46823,88.201
0.46139,95.437
0.45552,102.09
0.44966,107.95
0.44379,112.84
0.43793,116.75
0.43109,119.49
0.42424,120.86
0.4174,121.45
0.41153,121.06
0.40469,120.08
0.39883,118.32
0.39198,116.36
0.38612,113.82
0.38025,111.28
0.37634,108.34
0.37146,105.22
0.36852,101.69
0.36559,98.175
0.36168,94.263
0.35679,90.352
0.35191,86.441
0.34702,82.725
0.34213,79.205
0.33822,76.271
0.33333,73.729
0.32845,71.969
0.32551,70.404
0.32551,69.426
0.32942,69.035
0.33724,68.644
0.35191,68.644
0.37537,68.84
0.40762,69.035
0.4477,69.622
0.49365,70.013
0.54252,70.404
0.59238,70.795
0.64027,71.186
0.68328,71.578
0.72141,71.773
0.75269,71.969
0.77419,71.969
0.78886,71.969
0.79961,71.773
0.80743,71.578
0.81134,71.186
0.81232,70.795
0.81036,70.404
0.80547,69.818
0.79765,69.231
0.7869,68.84
0.77419,68.253
0.75953,67.666
0.74291,67.08
0.72532,66.493
0.70577,65.906
0.68426,65.124
0.66178,64.537
0.64027,64.146
0.61975,63.559
0.60117,62.973
0.58456,62.582
0.56989,61.995
0.55718,61.408
0.54545,61.017
0.53666,60.626
0.52981,60.039
0.52493,59.648
0.52004,59.257
0.51711,58.866
0.51613,58.475
0.51417,58.083
0.51222,57.888
0.51026,57.692
0.50733,57.888
0.50538,58.279
0.50244,59.257
0.49951,61.213
0.4956,64.537
0.49267,69.231
0.48778,75.293
0.48289,82.334
0.47703,89.374
0.47116,96.415
0.46432,102.67
0.45748,108.34
0.45064,113.04
0.44282,116.56
0.43597,118.9
0.42815,120.27
0.42229,120.67
0.41642,120.27
0.41153,119.1
0.40665,117.34
0.40078,115.19
0.39492,112.84
0.38807,109.91
0.38025,106.98
0.37341,103.65
0.36657,99.935
0.3607,96.219
0.35386,92.308
0.34702,88.396
0.34213,84.485
0.33724,80.769
0.33236,77.64
0.32649,74.902
0.32063,72.751
0.31476,70.991
0.30987,69.818
0.30792,68.84
0.31085,68.449
0.31965,68.057
0.33627,68.253
0.36168,68.449
0.39492,68.84
0.42913,69.231
0.46432,69.818
0.50635,70.209
0.55132,70.6
0.59433,71.186
0.63441,71.382
0.6696,71.773
0.69892,71.773
0.72239,71.773
0.74096,71.773
0.75367,71.578
0.76051,71.186
0.76344,70.795
0.76149,70.404
0.75758,70.013
0.75269,69.426
0.74389,68.84
0.73314,68.253
0.71945,67.666
0.70381,67.275
0.68524,66.688
0.66569,65.906
0.64418,65.319
0.62366,64.733
0.60313,64.146
0.58456,63.559
0.56794,62.973
0.55132,62.386
0.53568,61.799
0.52102,61.408
0.50929,61.017
0.49853,60.43
0.49071,60.039
0.48583,59.452
0.48094,59.061
0.47703,58.475
0.47507,58.279
0.47312,57.888
0.47116,57.497
0.47019,57.497
0.46823,57.497
0.4653,57.692
0.46237,58.475
0.45846,60.039
0.45552,62.777
0.45259,66.884
0.44966,72.36
0.44477,79.009
0.44086,85.854
0.43597,92.894
0.43109,99.348
0.4262,105.02
0.42033,109.91
0.41447,113.82
0.4086,116.56
0.40176,118.32
0.39589,118.9
0.39003,118.71
0.38319,117.73
0.37634,116.17
0.3695,114.21
0.36168,111.86
0.35582,109.13
0.34995,106.19
0.34409,102.87
0.33822,99.544
0.33236,95.828
0.32649,91.917
0.32063,87.81
0.31476,84.094
0.3089,80.378
0.30401,77.054
0.29814,74.316
0.29228,72.164
0.28739,70.404
0.28348,69.035
0.28152,68.253
0.2825,67.666
0.28739,67.471
0.29912,67.471
0.31867,67.666
0.348,68.057
0.38319,68.449
0.42424,69.035
0.46823,69.426
0.5132,70.013
0.55621,70.404
0.5914,70.6
0.62072,70.795
0.64907,70.991
0.67351,70.991
0.69404,70.991
0.70968,70.795
0.72141,70.6
0.72727,70.209
0.72923,69.818
0.72825,69.426
0.72434,68.84
0.71652,68.449
0.70772,67.862
0.69697,67.275
0.68328,66.688
0.66667,66.102
0.64809,65.515
0.62757,64.928
0.60704,64.342
0.58553,63.755
0.56598,63.168
0.54643,62.582
0.52884,61.995
0.5132,61.604
0.49853,61.017
0.48778,60.626
0.47898,60.039
0.47116,59.648
0.46432,59.061
0.45846,58.67
0.45357,58.279
0.45161,57.888
0.44966,57.497
0.44868,57.301
0.4477,57.106
0.44673,57.301
0.44477,57.497
0.44379,58.279
0.44184,59.844
0.43988,62.973
0.43695,67.275
0.43402,73.142
0.43011,79.791
0.42522,86.832
0.42033,93.677
0.41544,100.13
0.40958,105.8
0.40469,110.69
0.39003,114.41
0.37048,117.14
0.35777,118.51
0.34995,119.1
0.34213,118.71
0.33529,117.73
0.32845,116.17
0.3216,114.21
0.31378,111.86
0.30792,108.93
0.30303,106
0.29717,102.67
0.2913,99.348
0.28641,95.632
0.28152,91.721
0.27761,87.614
0.27273,83.703
0.26784,79.987
0.26197,76.858
0.25611,74.12
0.24927,71.773
0.2434,70.013
0.23851,68.84
0.23558,67.862
0.23754,67.471
0.24536,67.08
0.26002,67.275
0.27761,67.471
0.3001,67.666
0.3304,68.253
0.36755,68.644
0.4086,69.231
0.45064,69.622
0.49169,70.209
0.53079,70.6
0.56598,70.795
0.59629,70.795
0.62072,70.991
0.64125,70.795
0.65396,70.6
0.66178,70.404
0.66764,70.013
0.67058,69.622
0.67058,69.035
0.66667,68.644
0.6608,68.057
0.652,67.471
0.64125,67.08
0.62757,66.493
0.6129,65.906
0.59531,65.319
0.57674,64.537
0.55914,63.95
0.54252,63.364
0.52493,62.777
0.50733,62.19
0.49071,61.604
0.47605,61.213
0.46237,60.626
0.45161,60.235
0.44184,59.844
0.43304,59.257
0.4262,58.67
0.42131,58.279
0.41642,57.692
0.41349,57.301
0.41153,57.106
0.41056,56.91
0.40958,56.715
0.4086,56.91
0.40665,57.301
0.40469,58.279
0.40274,60.235
0.3998,63.559
0.39687,68.644
0.39394,74.707
0.38905,81.747
0.38514,88.788
0.38123,95.632
0.37634,101.89
0.37146,107.17
0.36657,111.86
0.3607,115.19
0.35484,117.54
0.34897,118.71
0.34311,118.9
0.33724,118.32
0.3304,117.14
0.32454,115.38
0.31867,113.23
0.31378,110.89
0.30792,108.34
0.30205,105.41
0.29619,102.09
0.28935,98.761
0.2825,95.046
0.27664,91.134
0.27077,87.223
0.26491,83.507
0.26002,79.791
0.25513,76.662
0.25024,73.924
0.24536,71.773
0.24242,70.013
0.23851,68.644
0.23754,67.666
0.23949,67.275
0.24731,67.08
0.261,66.884
0.28348,67.08
0.31183,67.471
0.34702,67.862
0.38612,68.253
0.42815,68.644
0.4653,69.035
0.49853,69.426
0.53275,69.818
0.56598,70.013
0.59629,70.013
0.62072,70.013
0.64125,70.013
0.65689,69.818
0.66862,69.426
0.67644,69.035
0.68035,68.84
0.68035,68.253
0.67644,67.862
0.67058,67.471
0.66178,66.884
0.65103,66.297
0.63832,65.711
0.62366,65.124
0.60704,64.537
0.58847,63.95
0.56989,63.364
0.55132,62.777
0.53275,62.19
0.51417,61.604
0.49756,61.213
0.48387,60.626
0.47214,60.039
0.46041,59.648
0.45064,59.061
0.44086,58.67
0.43304,58.083
0.4262,57.692
0.42033,57.106
0.41544,56.91
0.41153,56.519
0.40958,56.323
0.40665,56.128
0.40469,56.323
0.40274,56.715
0.40078,57.888
0.39883,60.039
0.39589,63.755
0.39198,69.035
0.38807,75.489
0.38416,82.725
0.37928,89.961
0.37537,97.001
0.37048,103.26
0.36461,108.54
0.35875,112.84
0.35386,116.17
0.34897,118.12
0.34311,119.1
0.33627,119.3
0.3304,118.51
0.32356,117.34
0.31672,115.58
0.30987,113.43
0.30303,110.89
0.29717,108.34
0.29032,105.41
0.28348,102.28
0.27761,98.957
0.27175,95.241
0.26686,91.525
0.261,87.614
0.25513,83.898
0.24829,80.378
0.24145,77.249
0.2346,74.511
0.22874,72.36
0.22385,70.6
0.22092,69.231
0.21994,68.449
0.22385,67.862
0.23167,67.666
0.24438,67.666
0.26491,67.862
0.29326,68.253
0.32845,68.644
0.3695,69.035
0.41153,69.426
0.45455,69.818
0.4956,70.404
0.53275,70.6
0.56598,70.795
0.59433,70.991
0.61486,70.991
0.62952,70.795
0.64223,70.6
0.652,70.404
0.65885,70.013
0.66178,69.622
0.66276,69.231
0.65982,68.644
0.65396,68.057
0.64614,67.471
0.63539,67.08
0.62268,66.493
0.60704,65.906
0.59238,65.319
0.57576,64.733
0.55816,64.146
0.53861,63.559
0.51808,62.973
0.49951,62.386
0.48192,61.995
0.4653,61.408
0.45064,61.017
0.43793,60.626
0.42717,60.235
0.41838,59.844
0.41251,59.257
0.40762,58.866
0.40371,58.475
0.3998,58.083
0.39785,57.692
0.39589,57.497
0.39394,57.301
0.39198,57.497
0.39003,58.279
0.3871,59.648
0.38319,62.19
0.37928,66.297
0.37537,71.773
0.37243,78.618
0.3695,85.854
0.36657,92.894
0.36168,99.544
0.35679,105.61
0.35093,110.69
0.34604,114.6
0.34018,117.54
0.33431,119.3
0.32747,119.88
0.3216,119.88
0.31574,119.1
0.31085,117.73
0.30596,115.97
0.3001,113.82
0.29521,111.47
0.28935,108.93
0.29521,106
0.30792,102.87
0.31085,99.739
0.30987,96.219
0.30694,92.503
0.30205,88.788
0.29619,84.876
0.29032,81.356
0.28641,78.227
0.2825,75.489
0.27859,73.142
0.27468,71.186
0.27175,69.818
0.27077,68.84
0.2737,68.253
0.28348,67.862
0.30108,67.862
0.32551,67.862
0.35875,68.057
0.39785,68.449
0.43402,68.84
0.47019,69.231
0.51026,69.426
0.55034,69.818
0.58847,70.209
0.6217,70.404
0.65103,70.404
0.67449,70.404
0.69404,70.209
0.70772,69.818
0.7175,69.426
0.72336,69.035
0.7263,68.644
0.72532,68.057
0.72141,67.471
0.71554,66.688
0.70772,66.102
0.69697,65.711
0.68524,64.928
0.67058,64.537
0.65396,63.95
0.63636,63.364
0.61681,62.777
0.59629,62.19
0.57674,61.604
0.55914,61.213
0.54448,60.626
0.52981,60.039
0.51613,59.648
0.50342,59.257
0.49365,58.866
0.48485,58.475
0.47703,58.083
0.47019,57.497
0.4653,57.106
0.46139,56.715
0.45748,56.323
0.45552,55.932
0.45455,55.737
0.45455,55.737
0.45357,55.932
0.45161,56.91
0.44966,58.475
0.44673,61.604
0.44379,66.297
0.43891,72.36
0.435,79.4
0.42913,86.636
0.42424,93.677
0.41838,100.13
0.41349,106
0.40958,110.69
0.40371,114.21
0.39883,116.75
0.39296,118.12
0.3871,118.71
0.38123,118.32
0.37537,117.14
0.36852,115.58
0.36266,113.62
0.35582,111.28
0.34897,108.54
0.34311,105.61
0.33822,102.67
0.33333,99.348
0.32845,95.632
0.32356,91.917
0.31769,88.005
0.31281,84.289
0.30792,80.574
0.30303,77.054
0.29717,74.12
0.29032,71.773
0.28543,69.818
0.28055,68.449
0.27859,67.471
0.27957,66.688
0.28348,66.297
0.29423,66.297
0.31183,66.297
0.33822,66.493
0.37048,66.884
0.40958,67.275
0.45161,67.666
0.4956,68.057
0.53861,68.449
0.57869,68.84
0.61388,69.035
0.64027,69.035
0.65982,69.035
0.6784,69.035
0.69306,68.84
0.70283,68.644
0.7087,68.253
0.71163,67.862
0.71065,67.471
0.70772,66.884
0.70283,66.297
0.69501,65.906
0.68328,65.319
0.67155,64.733
0.65787,64.146
0.63343,63.559
0.61388,62.973
0.59433,62.582
0.565,61.799
0.54545,61.408
0.52786,60.821
0.51026,60.235
0.4956,59.844
0.48289,59.257
0.47116,58.67
0.46237,58.279
0.45552,57.888
0.44966,57.301
0.44379,56.91
0.43891,56.519
0.435,56.128
0.43206,55.737
0.43011,55.346
0.42717,54.954
0.42424,54.759
0.42131,54.759
0.41838,54.954
0.41544,55.737
0.41251,57.106
0.4086,59.844
0.40371,64.146
0.39883,70.013
0.39296,76.662
0.38807,83.703
0.38319,90.743
0.3783,97.197
0.37243,103.06
0.36559,107.95
0.35875,111.67
0.35288,114.21
0.34702,115.78
0.34311,116.36
0.33724,116.17
0.3304,115.19
0.3216,113.82
0.31476,111.86
0.30792,109.52
0.29814,106.98
0.2913,104.04
0.28446,100.91
0.27761,97.393
0.2737,93.872
0.26979,89.961
0.26491,86.05
0.26002,82.138
0.25415,78.618
0.24927,75.293
0.2434,72.555
0.23949,70.209
0.23656,68.449
0.23558,67.08
0.23949,65.906
0.24829,65.319
0.26197,65.124
0.28152,64.928
0.3089,65.124
0.34409,65.319
0.40469,65.711
0.44673,66.102
0.48778,66.493
0.56012,67.08
0.58847,67.471
0.61193,67.666
0.63832,68.057
0.64809,68.057
0.65298,68.253
0.65689,68.057
0.65689,67.862
0.65494,67.666
0.65005,67.471
0.64223,66.884
0.63245,66.493
0.61975,66.102
0.60508,65.515
0.58749,65.124
0.56891,64.537
0.5523,63.95
0.5347,63.364
0.51613,62.777
0.49756,62.19
0.47996,61.604
0.46334,61.017
0.4477,60.43
0.435,59.844
0.42424,59.452
0.41544,58.866
0.40762,58.279
0.40078,57.888
0.39492,57.497
0.39101,57.106
0.38807,56.715
0.38612,56.128
0.38416,55.737
0.38221,55.346
0.38025,54.954
0.3783,54.563
0.37634,54.368
0.37439,54.368
0.37146,54.368
0.36852,54.759
0.36461,55.541
0.3607,57.301
0.35777,60.43
0.35288,65.124
0.348,70.991
0.34213,77.64
0.33627,84.485
0.3304,91.33
0.32454,97.393
0.31965,102.67
0.31378,107.17
0.30792,110.5
0.30205,112.84
0.29619,114.21
0.2913,114.6
0.28641,114.02
0.28152,113.04
0.27566,111.47
0.27077,109.32
0.26491,106.98
0.25904,104.24
0.25318,101.11
0.24731,97.979
0.24242,94.263
0.23754,90.548
0.25024,86.832
0.27175,82.725
0.28055,79.205
0.28348,75.685
0.28348,72.751
0.2825,70.209
0.28348,68.253
0.28837,66.688
0.29717,65.515
0.31183,64.537
0.33236,64.146
0.35777,63.95
0.38807,64.146
0.42131,64.342
0.45064,64.537
0.47898,64.928
0.50831,65.515
0.53666,65.906
0.56207,66.297
0.58358,66.688
0.60117,66.884
0.61486,67.08
0.62463,67.275
0.6305,67.275
0.63343,67.08
0.63441,66.884
0.63245,66.688
0.62757,66.297
0.6217,65.906
0.6129,65.319
0.60215,64.928
0.58944,64.537
0.57576,63.95
0.56012,63.364
0.54448,62.973
0.52981,62.386
0.51417,61.799
0.49951,61.213
0.4868,60.626
0.47507,60.039
0.46628,59.648
0.45748,59.061
0.44966,58.475
0.44282,58.083
0.43695,57.497
0.43206,57.106
0.42913,56.715
0.4262,56.128
0.42522,55.737
0.42424,55.346
0.42326,54.954
0.42229,54.368
0.42131,53.977
0.41935,53.781
0.4174,53.585
0.41544,53.585
0.41349,53.781
0.41056,54.172
0.40762,55.346
0.40469,57.888
0.40078,61.604
0.39687,67.08
0.39296,73.533
0.38807,80.574
0.38416,87.419
0.38123,94.068
0.37732,99.935
0.37341,104.82
0.36852,108.93
0.36461,111.86
0.3607,113.62
0.35582,114.41
0.35093,114.41
0.34604,113.62
0.34115,112.26
0.33627,110.5
0.33236,108.34
0.32942,105.8
0.32551,103.06
0.3216,99.935
0.31672,96.61
0.31183,93.09
0.30792,89.374
0.30401,85.463
0.3001,81.747
0.29619,78.031
0.29228,74.902
0.28935,71.969
0.28739,69.622
0.28935,67.666
0.29521,66.297
0.30596,65.124
0.32258,64.342
0.34604,63.95
0.37439,63.95
0.40762,63.95
0.44184,64.342
0.47801,64.537
0.51222,64.928
0.54545,65.319
0.57478,65.711
0.59726,66.102
0.61486,66.493
0.6305,66.884
0.64321,67.08
0.65298,67.08
0.6608,67.08
0.66471,66.884
0.66667,66.688
0.66471,66.493
0.6608,66.102
0.65396,65.515
0.64418,65.124
0.63245,64.537
0.61975,64.146
0.60704,63.559
0.59238,62.973
0.57576,62.582
0.56012,61.995
0.54448,61.408
0.52981,60.821
0.51613,60.235
0.50342,59.648
0.49267,59.061
0.48289,58.67
0.4741,58.083
0.46823,57.692
0.46334,57.106
0.45846,56.715
0.45455,56.323
0.45161,55.932
0.44966,55.541
0.44868,55.15
0.44673,54.563
0.44575,54.172
0.44477,53.781
0.44379,53.585
0.44282,53.39
0.44086,53.39
0.43891,53.585
0.43597,54.368
0.43206,55.932
0.42815,58.866
0.42424,63.364
0.42033,69.231
0.41642,76.076
0.41251,83.312
0.4086,90.352
0.40469,96.61
0.3998,102.09
0.39492,106.58
0.39101,110.3
0.38807,112.65
0.38416,114.21
0.3783,114.6
0.37341,114.41
0.36755,113.43
0.36266,111.86
0.35777,110.1
0.35191,107.76
0.34604,105.02
0.34115,102.28
0.33724,99.153
0.33333,95.828
0.33138,92.308
0.32747,88.592
0.32258,84.681
0.31867,80.965
0.31378,77.445
0.30987,74.316
0.30694,71.578
0.30694,69.426
0.30987,67.666
0.31769,66.297
0.33236,65.319
0.35386,64.537
0.37732,64.342
0.40274,64.146
0.435,64.342
0.47116,64.537
0.50733,64.928
0.5435,65.319
0.57674,65.711
0.60606,66.102
0.63148,66.493
0.65298,66.688
0.6696,67.08
0.68328,67.275
0.69208,67.275
0.69697,67.275
0.6999,67.08
0.70088,66.884
0.69892,66.493
0.69501,66.102
0.68817,65.711
0.67937,65.124
0.66764,64.733
0.65494,64.146
0.64027,63.755
0.62463,63.168
0.60802,62.777
0.59238,62.19
0.57869,61.604
0.56403,61.017
0.54936,60.626
0.53568,60.039
0.52395,59.648
0.5132,59.061
0.50342,58.475
0.4956,58.083
0.48974,57.692
0.48485,57.301
0.48192,56.91
0.47898,56.715
0.47703,56.128
0.47507,55.737
0.47312,55.346
0.47116,54.954
0.46921,54.563
0.46725,54.368
0.4653,54.172
0.46334,54.172
0.45943,54.563
0.4565,55.541
0.45259,57.497
0.44868,60.821
0.44477,65.906
0.44086,72.164
0.43695,79.205
0.43206,86.441
0.42815,93.286
0.42326,99.348
0.4174,104.63
0.41251,108.74
0.40665,112.06
0.40176,114.21
0.39687,115.19
0.39296,115.38
0.39003,114.99
0.3871,113.82
0.38319,112.26
0.3783,110.3
0.37439,107.95
0.3695,105.41
0.36461,102.67
0.35973,99.739
0.35484,96.61
0.34995,93.09
0.34506,89.57
0.34018,85.854
0.33529,82.138
0.33138,78.618
0.32845,75.489
0.32649,72.751
0.32649,70.6
0.3304,68.644
0.34213,67.471
0.36168,66.493
0.38514,65.906
0.41349,65.515
0.44575,65.515
0.48192,65.515
0.51906,65.906
0.55132,66.102
0.58065,66.493
0.61095,66.884
0.64027,67.275
0.66667,67.471
0.68915,67.862
0.70772,68.057
0.72239,68.253
0.73412,68.253
0.74194,68.057
0.74585,67.862
0.7478,67.666
0.74585,67.275
0.74194,66.884
0.73607,66.297
0.72825,65.906
0.71848,65.319
0.70674,64.733
0.69208,64.342
0.67742,63.755
0.66178,63.168
0.64516,62.582
0.62952,61.995
0.61388,61.408
0.59922,61.017
0.58749,60.43
0.57674,60.039
0.56696,59.648
0.55816,59.061
0.55132,58.67
0.54448,58.279
0.53959,57.692
0.53666,57.301
0.53372,56.91
0.53079,56.323
0.52884,55.932
0.52688,55.346
0.52493,54.954
0.52297,54.368
0.52199,53.977
0.51906,53.781
0.51711,53.977
0.51417,54.368
0.51124,55.346
0.50831,57.301
0.5044,60.821
0.49951,65.906
0.49462,72.36
0.48974,79.596
0.48485,86.832
0.47996,93.677
0.47605,99.739
0.47214,105.02
0.46725,109.13
0.46237,112.06
0.45748,114.21
0.45357,115.19
0.44868,115.38
0.44379,114.8
0.43988,113.62
0.435,112.06
0.43109,110.1
0.4262,107.95
0.42131,105.41
0.41838,102.48
0.41349,99.544
0.40958,96.415
0.40469,92.894
0.40078,89.374
0.39589,85.658
0.39101,81.943
0.38612,78.422
0.38221,75.293
0.37928,72.555
0.37928,70.404
0.38123,68.449
0.38807,67.08
0.40078,66.102
0.41935,65.515
0.44575,65.124
0.47801,64.928
0.5132,65.124
0.55132,65.124
0.58944,65.515
0.62561,65.711
0.65885,65.906
0.68915,66.297
0.71457,66.493
0.73314,66.884
0.74682,67.08
0.76051,67.08
0.77126,67.275
0.77908,67.08
0.78495,66.884
0.78788,66.688
0.78788,66.297
0.78397,65.906
0.77713,65.319
0.76833,64.928
0.7566,64.342
0.74389,63.755
0.73118,63.168
0.71554,62.582
0.69892,61.995
0.68231,61.408
0.66569,61.017
0.65005,60.43
0.63539,60.039
0.62072,59.452
0.60899,59.061
0.59726,58.475
0.58651,58.083
0.57869,57.497
0.57087,57.106
0.56403,56.715
0.55816,56.323
0.55327,55.737
0.54839,55.346
0.54545,55.15
0.54252,54.563
0.53959,54.172
0.53568,53.781
0.53275,53.585
0.52884,53.194
0.52493,52.999
0.52102,52.999
0.51711,53.194
0.51222,53.977
0.50733,55.541
0.50147,58.67
0.4956,63.168
0.48974,69.231
0.48485,76.271
0.47898,83.703
0.47312,90.743
0.46628,97.197
0.46041,102.67
0.4565,107.17
0.45161,110.69
0.44575,113.23
0.44086,114.6
0.435,114.8
0.42913,114.6
0.42326,113.43
0.41642,111.86
0.40958,110.1
0.40371,107.56
0.39687,105.02
0.39101,102.28
0.38514,99.153
0.38123,95.828
0.37732,92.308
0.37341,88.592
0.36852,84.876
0.36266,81.16
0.35777,77.64
0.35288,74.316
0.34897,71.578
0.348,69.426
0.34897,67.471
0.35484,66.102
0.36755,65.124
0.38319,64.537
0.40176,64.342
0.42913,64.146
0.46139,64.342
0.49756,64.537
0.53568,64.733
0.57283,65.124
0.60704,65.515
0.63832,65.711
0.66569,66.102
0.68719,66.297
0.70577,66.688
0.72043,66.688
0.72923,66.688
0.73509,66.688
0.739,66.493
0.73998,66.297
0.73803,65.906
0.73412,65.515
0.7263,65.124
0.71652,64.537
0.70479,63.95
0.69013,63.559
0.67449,62.973
0.65787,62.386
0.64125,61.799
0.62561,61.408
0.60997,60.821
0.59335,60.235
0.57771,59.844
0.56207,59.257
0.54839,58.67
0.53568,58.279
0.52493,57.692
0.51515,57.106
0.50831,56.715
0.50147,56.323
0.49658,55.737
0.49365,55.346
0.49071,54.954
0.48876,54.563
0.48583,54.172
0.48192,53.781
0.47898,53.39
0.47507,52.999
0.47116,52.803
0.46823,52.803
0.46432,52.999
0.46041,53.39
0.45552,54.563
0.45161,56.519
0.44673,60.039
0.44184,65.124
0.43695,71.186
0.43109,78.031
0.4262,84.876
0.42033,91.525
0.41447,97.197
0.4086,102.28
0.40274,106.19
0.39687,108.93
0.39101,110.89
0.38416,111.86
0.38025,111.86
0.37634,111.08
0.37146,109.91
0.36657,107.95
0.3607,105.8
0.35582,103.46
0.35093,100.72
0.34506,97.588
0.34018,94.263
0.33431,90.743
0.32845,87.027
0.32356,83.116
0.31867,79.4
0.31574,75.88
0.31183,72.751
0.3089,70.013
0.30596,67.862
0.30499,66.102
0.30694,64.733
0.31476,63.95
0.32747,63.364
0.34604,62.973
0.37146,62.973
0.40274,63.168
0.42717,63.364
0.44379,63.755
0.46334,64.146
0.4868,64.537
0.51124,64.928
0.53372,65.319
0.55425,65.515
0.57185,65.711
0.58553,65.906
0.59629,65.906
0.60313,65.906
0.60802,65.711
0.60997,65.515
0.60899,65.124
0.60606,64.733
0.60117,64.342
0.59433,63.95
0.58553,63.364
0.57478,62.973
0.56403,62.386
0.55132,61.799
0.53763,61.408
0.52297,60.821
0.50831,60.235
0.49462,59.844
0.48192,59.257
0.47116,58.67
0.46237,58.279
0.45357,57.692
0.44477,57.106
0.43793,56.715
0.43206,56.128
0.42717,55.737
0.42326,55.346
0.42033,54.954
0.41838,54.563
0.41642,54.172
0.41447,53.781
0.41349,53.39
0.41153,52.999
0.40958,52.608
0.40762,52.412
0.40567,52.216
0.40371,52.412
0.40078,52.803
0.39785,53.977
0.39492,56.128
0.39101,59.844
0.3871,64.928
0.38319,71.382
0.37928,78.227
0.37634,85.267
0.37341,91.721
0.3695,97.393
0.36461,102.28
0.3607,106.19
0.35582,109.13
0.35191,111.08
0.34702,111.86
0.34311,111.86
0.3392,111.28
0.33529,110.1
0.33138,108.34
0.32845,106.19
0.32649,103.85
0.32258,101.11
0.31867,98.175
0.31476,94.85
0.31085,91.33
0.30694,87.614
0.30401,83.898
0.3001,79.987
0.29717,76.467
0.29326,73.338
0.2913,70.6
0.28935,68.253
0.29032,66.297
0.29326,64.928
0.3001,63.95
0.31085,63.364
0.32649,62.973
0.34702,62.973
0.37146,62.973
0.3998,63.364
0.42913,63.559
0.46041,64.146
0.48876,64.537
0.51613,64.928
0.53666,65.319
0.55425,65.711
0.56989,65.906
0.58358,66.102
0.59433,66.102
0.60215,66.102
0.60802,65.906
0.61095,65.711
0.61095,65.319
0.60899,64.928
0.60411,64.537
0.59629,64.146
0.58847,63.559
0.57967,63.168
0.56891,62.582
0.55621,62.19
0.54252,61.604
0.52884,61.213
0.51613,60.626
0.50244,60.039
0.49071,59.648
0.47898,59.061
0.46823,58.475
0.45943,57.888
0.45161,57.497
0.44477,56.91
0.43988,56.519
0.435,56.128
0.43206,55.541
0.42913,55.346
0.4262,54.759
0.42424,54.368
0.42229,53.977
0.41935,53.39
0.4174,52.999
0.41544,52.803
0.41349,52.608
0.41056,52.412
0.4086,52.608
0.40665,53.194
0.40371,54.563
0.40078,56.91
0.39687,60.821
0.39296,66.297
0.38905,72.751
0.38514,79.791
0.38123,86.832
0.37732,93.286
0.37341,98.957
0.3695,103.85
0.36657,107.56
0.36364,110.5
0.35973,112.26
0.35582,113.04
0.35093,113.04
0.34702,112.45
0.34213,111.08
0.33822,109.32
0.33431,107.17
0.3304,104.63
0.32649,101.89
0.32258,98.957
0.31867,95.632
0.31574,92.112
0.31281,88.396
0.3089,84.681
0.30499,80.965
0.30108,77.249
0.29717,74.12
0.29326,71.382
0.2913,69.035
0.2913,67.275
0.29521,65.906
0.30303,64.733
0.31574,64.146
0.3304,63.755
0.348,63.755
0.37146,63.755
0.39883,63.95
0.42913,64.342
0.45943,64.733
0.48876,65.124
0.51515,65.515
0.53861,65.906
0.55816,66.297
0.57478,66.493
0.58749,66.688
0.59629,66.688
0.60215,66.688
0.60606,66.493
0.60802,66.297
0.60802,65.906
0.60508,65.711
0.60117,65.124
0.59433,64.733
0.58651,64.146
0.57674,63.755
0.565,63.168
0.55327,62.777
0.54057,62.19
0.52884,61.604
0.51711,61.017
0.50538,60.626
0.49267,60.039
0.48094,59.452
0.46921,58.866
0.45943,58.279
0.44966,57.888
0.44184,57.301
0.43597,56.91
0.43109,56.519
0.42717,56.128
0.42424,55.541
0.42229,55.15
0.42033,54.759
0.41838,54.368
0.41642,53.977
0.41447,53.585
0.41251,53.39
0.40958,53.194
0.40762,52.999
0.40567,53.39
0.40274,53.977
0.40078,55.346
0.39687,58.279
0.39394,62.582
0.39101,68.449
0.38807,75.293
0.38416,82.529
0.38025,89.57
0.37732,96.219
0.37341,101.89
0.3695,106.58
0.36461,110.3
0.3607,112.84
0.35679,114.6
0.35288,115.19
0.34995,114.99
0.34604,114.21
0.34311,112.84
0.3392,111.08
0.33431,108.93
0.3304,106.39
0.32551,103.65
0.32063,100.72
0.31672,97.588
0.31281,94.068
0.3089,90.352
0.30499,86.636
0.30108,82.921
0.29814,79.4
0.29619,76.076
0.29326,73.142
0.29228,70.795
0.29228,69.035
0.29619,67.471
0.30401,66.493
0.31769,65.711
0.33627,65.515
0.35875,65.319
0.38612,65.515
0.41544,65.711
0.44282,65.906
0.46725,66.297
0.49267,66.884
0.51808,67.275
0.54057,67.666
0.55914,68.057
0.59922,68.253
0.64907,68.449
0.67937,68.449
0.69697,68.449
0.70772,68.253
0.71359,67.862
0.71554,67.666
0.71457,67.275
0.71065,66.688
0.70381,66.297
0.69404,65.711
0.68133,65.124
0.66569,64.537
0.64907,63.95
0.63148,63.364
0.61388,62.973
0.59531,62.386
0.57771,61.799
0.56109,61.408
0.54643,60.821
0.5347,60.235
0.52297,59.844
0.51222,59.452
0.50342,59.061
0.4956,58.67
0.48974,58.279
0.48485,57.888
0.48094,57.497
0.47703,57.106
0.4741,56.715
0.47214,56.128
0.47019,55.737
0.46921,55.346
0.46725,55.15
0.4653,54.954
0.46237,55.15
0.46041,55.346
0.4565,56.519
0.45259,58.475
0.44868,61.799
0.44379,66.884
0.43988,73.338
0.435,80.574
0.43011,87.81
0.4262,94.655
0.42229,100.91
0.4174,106
0.41153,110.3
0.40665,113.43
0.40176,115.58
0.39687,116.75
0.39101,117.14
0.38612,116.56
0.38123,115.58
0.37634,114.21
0.37048,112.26
0.36755,110.1
0.36461,107.56
0.3607,104.82
0.35777,101.69
0.35386,98.37
0.34897,94.85
0.34506,91.134
0.34018,87.419
0.33529,83.507
0.3304,79.791
0.32551,76.662
0.3216,73.729
0.32063,71.382
0.32258,69.622
0.32942,68.253
0.34213,67.275
0.36168,66.688
0.38807,66.493
0.42131,66.297
0.45846,66.493
0.49951,66.688
0.54057,67.08
0.58065,67.275
0.61779,67.666
0.652,68.057
0.67742,68.253
0.69795,68.449
0.71652,68.644
0.73314,68.644
0.74585,68.644
0.75562,68.449
0.76149,68.253
0.7654,68.057
0.7654,67.666
0.76246,67.08
0.7566,66.493
0.7478,65.906
0.73705,65.515
0.72532,64.733
0.71261,64.342
0.69795,63.755
0.68133,63.168
0.66373,62.582
0.64614,61.995
0.62854,61.604
0.6129,61.017
0.59726,60.43
0.5826,60.039
0.56989,59.452
0.55914,58.866
0.54936,58.475
0.54252,58.083
0.53666,57.692
0.53177,57.301
0.52786,56.91
0.52493,56.519
0.52297,56.128
0.52102,55.541
0.51906,55.15
0.51711,54.759
0.51417,54.368
0.51124,54.172
0.50733,54.172
0.5044,54.563
0.50147,55.346
0.49756,56.91
0.49267,60.039
0.48778,64.733
0.48192,70.795
0.47703,78.031
0.47116,85.463
0.46628,92.699
0.46139,98.957
0.45552,104.63
0.45064,109.13
0.44575,112.65
0.44086,114.99
0.43597,116.36
0.43011,116.75
0.42424,116.36
0.41838,115.38
0.41251,113.82
0.40665,111.86
0.40176,109.52
0.39687,106.98
0.39198,104.04
0.38612,100.91
0.38123,97.588
0.37732,94.068
0.37341,90.352
0.36852,86.636
0.36364,82.725
0.35777,79.205
0.35191,75.88
0.348,73.142
0.34604,70.795
0.34702,68.84
0.35191,67.471
0.36364,66.493
0.38221,65.906
0.40274,65.711
0.42815,65.515
0.46041,65.711
0.49756,65.906
0.53666,66.102
0.57674,66.493
0.61388,66.884
0.64809,67.275
0.6784,67.471
0.70381,67.666
0.72532,68.057
0.74194,68.057
0.75562,68.057
0.76344,68.057
0.76735,67.862
0.76931,67.666
0.76931,67.275
0.76637,66.884
0.76051,66.297
0.75171,65.711
0.74096,65.319
0.72825,64.733
0.71261,64.146
0.69697,63.559
0.67937,62.973
0.66276,62.582
0.64712,61.995
0.62952,61.408
0.6129,60.821
0.59726,60.235
0.5826,59.844
0.56891,59.257
0.55718,58.67
0.54741,58.279
0.53861,57.888
0.53177,57.301
0.5259,56.91
0.52102,56.519
0.51613,56.128
0.51222,55.737
0.50929,55.346
0.50538,54.954
0.50342,54.563
0.50049,54.172
0.49756,53.977
0.49462,53.977
0.48974,53.977
0.48485,54.368
0.47898,55.346
0.4741,57.497
0.46921,60.821
0.4653,65.906
0.46041,72.164
0.45552,79.205
0.45064,86.441
0.44477,93.09
0.43793,99.348
0.43206,104.43
0.4262,108.74
0.41935,111.86
0.41251,113.82
0.40567,114.99
0.39883,115.19
0.39296,114.6
0.38807,113.43
0.38221,111.67
0.37732,109.52
0.37243,107.17
0.36755,104.24
0.36168,101.11
0.35582,97.979
0.34995,94.263
0.34409,90.548
0.33822,86.636
0.33236,82.725
0.32747,79.205
0.32356,75.685
0.31965,72.947
0.31574,70.6
0.31378,68.644
0.31574,67.08
0.3216,65.906
0.33431,65.319
0.35288,64.928
0.37928,64.928
0.41056,64.928
0.44673,65.124
0.48583,65.515
0.52004,65.906
0.55132,66.297
0.58456,66.688
0.61584,67.08
0.64418,67.471
0.66862,67.666
0.68915,67.862
0.70479,67.862
0.71652,67.862
0.72434,67.666
0.72923,67.471
0.73021,67.08
0.71457,66.688
0.6911,66.297
0.67449,65.711
0.65982,65.124
0.64614,64.733
0.63245,64.146
0.61681,63.559
0.60117,62.973
0.58358,62.582
0.56696,61.995
0.55034,61.408
0.5347,60.821
0.52004,60.43
0.50733,59.844
0.49658,59.257
0.4868,58.67
0.47801,58.279
0.47019,57.692
0.46334,57.301
0.45748,56.91
0.45357,56.519
0.44966,56.128
0.44673,55.737
0.44379,55.346
0.44184,54.759
0.43891,54.368
0.43695,54.172
0.43402,53.781
0.43109,53.781
0.42815,53.781
0.42522,54.368
0.42131,55.346
0.4174,57.301
0.41251,60.626
0.40762,65.515
0.40176,71.578
0.39687,78.422
0.39198,85.658
0.38807,92.112
0.38319,98.175
0.37732,103.26
0.37243,107.37
0.36755,110.5
0.36266,112.65
0.35679,113.62
0.35191,113.82
0.34604,113.23
0.34018,112.06
0.33431,110.3
0.32845,108.34
0.32454,105.8
0.32063,103.06
0.31574,99.935
0.31085,96.61
0.30596,92.894
0.30108,89.179
0.29521,85.267
0.28935,81.356
0.28446,77.836
0.27957,74.511
0.27468,71.773
0.27175,69.426
0.27175,67.471
0.2737,66.102
0.27957,65.124
0.29032,64.537
0.30596,64.146
0.32845,64.146
0.35679,64.342
0.38905,64.537
0.42522,64.928
0.46237,65.319
0.49853,65.711
0.53372,66.102
0.565,66.493
0.59042,66.884
0.60997,67.08
0.62854,67.275
0.64418,67.275
0.65689,67.275
0.66569,67.08
0.67155,66.884
0.67449,66.493
0.67351,66.102
0.67058,65.711
0.66373,65.124
0.65396,64.537
0.64418,64.146
0.63245,63.559
0.61681,63.168
0.60117,62.582
0.58358,62.19
0.56598,61.604
0.54936,61.213
0.53275,60.626
0.51711,60.039
0.50342,59.648
0.49071,59.061
0.47898,58.67
0.47019,58.279
0.46237,57.888
0.45748,57.301
0.45161,56.91
0.44673,56.715
0.44282,56.323
0.43988,55.932
0.43695,55.541
0.435,55.15
0.43304,54.759
0.43206,54.563
0.43011,54.368
0.42717,54.368
0.42522,54.563
0.42229,55.15
0.41838,56.519
0.41349,58.866
0.4086,62.777
0.40371,68.057
0.39883,74.707
0.39296,81.747
0.38807,88.983
0.38319,95.632
0.37732,101.5
0.37243,106.39
0.36755,110.3
0.36364,113.23
0.35973,114.99
0.35386,115.97
0.34897,115.97
0.34409,115.19
0.33822,113.82
0.33236,112.26
0.32747,110.1
0.32258,107.56
0.31672,104.82
0.31183,101.89
0.30694,98.566
0.30401,94.85
0.30108,91.134
0.29717,87.223
0.29228,83.312
0.28837,79.791
0.28446,76.467
0.28055,73.533
0.27761,71.186
0.27664,69.426
0.27859,68.057
0.28641,67.08
0.3001,66.297
0.31965,66.102
0.34213,66.102
0.36657,66.297
0.39785,66.688
0.43402,67.275
0.47214,67.666
0.50929,68.057
0.54448,68.644
0.57674,69.035
0.60411,69.231
0.62757,69.426
0.64614,69.622
0.6608,69.622
0.67058,69.622
0.67644,69.426
0.68133,69.035
0.68328,68.84
0.68328,68.253
0.67937,67.862
0.67351,67.275
0.66569,66.688
0.65396,66.102
0.64125,65.515
0.62659,64.928
0.60997,64.342
0.59238,63.755
0.57674,63.168
0.56207,62.777
0.54643,62.19
0.53177,61.604
0.51711,61.213
0.5044,60.626
0.49267,60.235
0.48289,59.844
0.47507,59.648
0.46823,59.257
0.46334,58.866
0.45943,58.475
0.45748,58.083
0.45552,57.692
0.45455,57.301
0.45259,56.91
0.45161,56.519
0.44868,56.128
0.44673,55.932
0.44282,55.932
0.43988,56.128
0.43597,56.715
0.43304,58.279
0.43011,61.213
0.42522,65.515
0.42229,71.382
0.41838,78.227
0.41447,85.658
0.40958,92.699
0.40371,99.153
0.39883,104.63
0.39296,109.32
0.3871,112.84
0.38123,115.38
0.37634,116.75
0.37048,117.54
0.36559,117.34
0.36168,116.56
0.35777,115.19
0.35288,113.23
0.348,111.28
0.34311,108.74
0.33822,105.8
0.33333,102.67
0.32845,99.348
0.32454,95.828
0.31867,92.112
0.31476,88.396
0.30987,84.485
0.30596,80.965
0.30303,77.445
0.30108,74.511
0.29912,72.164
0.29814,70.209
0.30108,68.84
0.30792,67.666
0.3216,67.08
0.34115,66.688
0.36755,66.688
0.3998,66.688
0.43597,67.08
0.47312,67.275
0.50635,67.471
0.53568,67.862
0.56696,68.253
0.59531,68.644
0.62072,68.84
0.64321,69.035
0.66178,69.035
0.67546,69.231
0.68622,69.035
0.69306,69.035
0.69599,68.644
0.69697,68.253
0.69501,67.862
0.69013,67.275
0.68328,66.688
0.67449,66.102
0.66373,65.515
0.65103,64.928
0.63539,64.342
0.62463,63.755
0.61681,63.168
0.60313,62.582
0.58749,62.19
0.57087,61.604
0.55523,61.017
0.54154,60.626
0.52981,60.039
0.51808,59.648
0.50831,59.061
0.49951,58.67
0.49169,58.279
0.48485,57.888
0.47996,57.301
0.47703,56.91
0.4741,56.519
0.47116,56.128
0.46921,55.737
0.46725,55.346
0.4653,55.15
0.46237,54.759
0.45943,54.563
0.45552,54.563
0.45161,54.759
0.4477,55.346
0.44282,56.91
0.43793,59.648
0.43304,63.95
0.42717,69.818
0.42033,76.858
0.41447,84.485
0.4086,91.721
0.40469,98.37
0.39883,104.24
0.39296,109.13
0.3871,112.84
0.38123,115.58
0.37537,117.14
0.3695,117.93
0.36266,117.73
0.35582,116.95
0.34995,115.38
0.34311,113.43
0.33822,111.28
0.33431,108.54
0.32942,105.61
0.32356,102.48
0.31769,99.153
0.31183,95.437
0.30596,91.721
0.30108,87.614
0.29521,83.898
0.28935,80.183
0.28348,76.858
0.27957,73.924
0.27664,71.382
0.27761,69.622
0.28055,68.057
0.28837,67.08
0.30205,66.493
0.32258,66.102
0.34995,66.102
0.38416,66.102
0.42131,66.297
0.46139,66.688
0.50147,67.08
0.54057,67.471
0.57576,67.862
0.60411,68.253
0.62561,68.449
0.64614,68.84
0.66373,69.035
0.67742,69.035
0.68817,68.84
0.69404,68.84
0.69697,68.449
0.69697,68.057
0.69306,67.666
0.68719,67.275
0.6784,66.688
0.66764,66.102
0.65494,65.515
0.64125,64.928
0.62463,64.342
0.60508,63.95
0.58456,63.364
0.565,62.777
0.54545,62.19
0.52786,61.604
0.51124,61.017
0.49658,60.626
0.48289,60.039
0.47214,59.648
0.46237,59.061
0.45552,58.475
0.4477,58.083
0.44184,57.692
0.43695,57.301
0.43304,56.91
0.43011,56.519
0.42717,56.128
0.42522,55.541
0.42229,55.346
0.41935,54.954
0.41642,54.759
0.41349,54.563
0.41153,54.563
0.40958,54.954
0.40567,55.737
0.40274,57.301
0.39785,60.235
0.39296,64.537
0.3871,70.404
0.38123,77.249
0.37634,84.289
0.37048,91.33
0.36364,97.588
0.35679,103.06
0.35191,107.76
0.34702,111.28
0.34213,113.82
0.33627,115.19
0.3304,115.78
0.32454,115.58
0.31867,114.6
0.31281,113.04
0.30792,111.08
0.30205,108.74
0.29619,105.8
0.29032,102.67
0.28543,99.348
0.28152,95.828
0.27859,91.917
0.2737,88.005
0.26979,84.094
0.26491,80.378
0.26002,76.858
0.25513,73.924
0.25122,71.382
0.24829,69.426
0.24829,67.862
0.25318,66.688
0.26295,65.906
0.27664,65.515
0.29423,65.319
0.32063,65.319
0.35191,65.711
0.38807,65.906
0.4262,66.297
0.46334,66.688
0.49951,67.08
0.53275,67.471
0.56305,67.862
0.58847,68.057
0.60899,68.253
0.62463,68.449
0.63539,68.449
0.64125,68.253
0.64516,68.057
0.64614,67.666
0.64321,67.275
0.63832,66.884
0.63148,66.297
0.62072,65.906
0.60899,65.319
0.59335,64.733
0.57674,64.342
0.55914,63.755
0.5435,63.168
0.52884,62.582
0.51222,62.19
0.4956,61.604
0.47996,61.017
0.4653,60.43
0.45161,59.844
0.43988,59.452
0.43011,58.866
0.42131,58.279
0.41447,57.888
0.40958,57.497
0.40469,57.106
0.40176,56.715
0.3998,56.323
0.39785,55.932
0.39589,55.541
0.39296,55.15
0.39101,54.759
0.38905,54.563
0.3871,54.368
0.38514,54.368
0.38319,54.759
0.38025,55.346
0.3783,56.91
0.37537,59.452
0.37341,63.755
0.3695,69.426
0.36559,76.076
0.3607,83.116
0.35484,90.157
0.34995,96.61
0.34409,102.28
0.33822,107.17
0.33236,110.89
0.32649,113.43
0.32063,115.19
0.31574,115.78
0.31281,115.58
0.30987,114.8
0.30499,113.23
0.30108,111.28
0.29619,108.93
0.29032,106.19
0.28543,103.26
0.28152,99.935
0.27664,96.415
0.27175,92.503
0.26686,88.592
0.26197,84.485
0.25806,80.769
0.25513,77.249
0.2522,74.12
0.24829,71.382
0.24633,69.231
0.24536,67.471
0.24927,66.297
0.25709,65.515
0.27077,64.928
0.2913,64.733
0.31867,64.733
0.35288,65.124
0.38514,65.319
0.4174,65.711
0.45357,66.102
0.48974,66.688
0.52493,67.08
0.55621,67.471
0.58358,67.862
0.60606,68.057
0.62366,68.253
0.63832,68.253
0.64712,68.253
0.65298,68.057
0.65591,67.862
0.65396,67.471
0.65005,67.08
0.64321,66.688
0.63343,66.102
0.6217,65.711
0.60802,65.124
0.59238,64.537
0.57576,63.95
0.55718,63.559
0.53861,62.973
0.52004,62.386
0.50244,61.995
0.4868,61.408
0.47996,60.821
0.47605,60.43
0.46823,59.844
0.45943,59.452
0.45161,59.061
0.44379,58.67
0.43793,58.279
0.43402,58.083
0.43011,57.692
0.42717,57.106
0.42522,56.715
0.42424,56.323
0.42326,55.932
0.42229,55.737
0.42131,55.541
0.42033,55.346
0.41838,55.346
0.41642,55.737
0.41447,56.715
0.41056,58.279
0.40665,61.408
0.40274,65.906
0.39883,72.164
0.39492,79.205
0.39101,86.441
0.38807,93.481
0.38319,99.935
0.3783,105.41
0.37243,109.91
0.36755,113.43
0.36266,115.97
0.35777,117.34
0.35288,117.73
0.34702,117.54
0.34213,116.36
0.33627,114.99
0.3304,113.04
0.32747,110.69
0.32454,108.15
0.32063,105.41
0.31574,102.28
0.31085,98.761
0.30596,95.241
0.3001,91.33
0.29521,87.419
0.29032,83.703
0.28641,79.987
0.28348,76.858
0.28055,74.12
0.28055,71.969
0.28348,70.209
0.28837,69.035
0.29814,68.057
0.31378,67.471
0.33724,67.275
0.36755,67.275
0.40469,67.471
0.44673,67.666
0.49071,68.057
0.5347,68.449
0.57771,68.84
0.61681,69.231
0.64712,69.622
0.67058,70.013
0.69306,70.209
0.71261,70.404
0.72825,70.404
0.73998,70.209
0.7478,70.013
0.75073,69.818
0.75171,69.426
0.74878,69.035
0.74389,68.449
0.73509,68.057
0.72434,67.471
0.71261,66.884
0.69795,66.297
0.68133,65.711
0.66276,64.928
0.64321,64.342
0.62366,63.755
0.60508,63.168
0.58749,62.777
0.57087,62.19
0.55621,61.799
0.54252,61.408
0.53079,60.821
0.52199,60.43
0.51417,60.039
0.50733,59.648
0.50244,59.061
0.49756,58.67
0.4956,58.083
0.49462,57.692
0.49365,57.106
0.49365,56.519
0.49267,56.128
0.49169,55.737
0.48974,55.737
0.48778,55.737
0.48583,56.128
0.48289,56.91
0.47898,58.67
0.4741,61.799
0.47019,66.688
0.46628,72.947
0.46334,79.987
0.45943,87.419
0.45455,94.655
0.44868,100.91
0.44282,106.58
0.43695,111.08
0.43206,114.6
0.42717,116.95
0.42229,118.32
0.41642,118.9
0.40958,118.51
0.40371,117.73
0.39883,116.17
0.39394,114.41
0.38905,112.06
0.38416,109.52
0.3783,106.78
0.37243,103.85
0.36852,100.52
0.36461,97.001
0.3607,93.286
0.35582,89.374
0.35191,85.463
0.34702,81.747
0.34213,78.422
0.33822,75.489
0.33431,72.947
0.33431,70.991
0.33822,69.426
0.34897,68.449
0.36755,67.666
0.38905,67.275
0.41544,67.275
0.44966,67.275
0.48974,67.471
0.53372,67.666
0.57869,68.057
0.6217,68.449
0.66178,68.644
0.69795,69.035
0.72923,69.231
0.75562,69.426
0.77713,69.426
0.79277,69.622
0.80254,69.426
0.81036,69.231
0.81623,69.035
0.81916,68.644
0.81818,68.253
0.81427,67.666
0.80645,67.275
0.7957,66.688
0.78201,65.906
0.7654,65.515
0.74682,64.733
0.72727,64.342
0.7087,63.559
0.69208,62.973
0.67351,62.582
0.65494,61.995
0.63636,61.604
0.61877,61.017
0.60313,60.626
0.58847,60.039
0.57576,59.648
0.565,59.061
0.55523,58.67
0.54839,58.279
0.54252,57.888
0.53861,57.497
0.5347,57.106
0.53275,56.715
0.52981,56.323
0.52786,55.932
0.5259,55.541
0.52297,55.15
0.51906,54.954
0.51515,54.759
0.51026,54.954
0.50538,55.346
0.50147,56.519
0.49658,58.67
0.49169,62.386
0.48583,67.862
0.47996,74.511
0.4741,81.943
0.46725,89.57
0.45943,96.61
0.45259,102.87
0.44477,108.34
0.43891,112.65
0.43206,115.78
0.42522,117.73
0.41935,118.71
0.41447,118.9
0.4086,118.32
0.40176,116.95
0.39589,115.19
0.38905,113.23
0.38319,110.69
0.37732,107.76
0.37243,104.82
0.36657,101.5
0.3607,97.979
0.35484,94.263
0.34995,90.352
0.34604,86.245
0.34018,82.529
0.33431,78.814
0.32942,75.685
0.32551,72.947
0.32258,70.795
0.32356,69.035
0.32845,67.862
0.34018,67.08
0.35875,66.688
0.38514,66.493
0.41935,66.493
0.45357,66.688
0.48876,66.884
0.52981,67.275
0.57283,67.666
0.61584,68.057
0.65689,68.449
0.69306,68.84
0.72434,69.035
0.74976,69.035
0.77126,69.231
0.7869,69.231
0.79863,69.035
0.8045,68.84
0.80645,68.449
0.80743,68.057
0.8045,67.666
0.79863,67.08
0.78983,66.493
0.77713,65.906
0.76246,65.515
0.74487,64.928
0.7263,64.537
0.70577,63.95
0.68524,63.364
0.66373,62.777
0.64614,62.19
0.6305,61.604
0.61388,61.017
0.59726,60.43
0.58162,60.039
0.56696,59.452
0.55523,59.061
0.53275,58.475
0.50538,58.083
0.48974,57.692
0.47996,57.301
0.4741,56.91
0.46921,56.519
0.4653,56.128
0.46237,55.737
0.45943,55.346
0.4565,55.15
0.45357,54.954
0.45064,54.759
0.44673,54.954
0.44282,55.346
0.43793,56.519
0.43304,58.866
0.42717,62.386
0.42131,67.666
0.41642,74.12
0.41153,81.16
0.40469,88.396
0.39883,95.046
0.39198,101.11
0.38612,106.19
0.37928,110.3
0.37341,113.23
0.36755,115.19
0.36168,115.97
0.35582,116.17
0.34995,115.38
0.34506,114.21
0.34018,112.26
0.33431,110.1
0.32845,107.56
0.3216,104.63
0.31574,101.5
0.3089,98.175
0.30303,94.459
0.29814,90.548
0.29228,86.636
0.28739,82.725
0.28152,79.205
0.27468,75.88
0.27077,72.947
0.26784,70.6
0.26491,68.84
0.26491,67.471
0.26882,66.297
0.27761,65.711
0.29423,65.515
0.31867,65.319
0.34897,65.515
0.38514,65.906
0.42424,66.102
0.46628,66.493
0.50147,66.884
0.53275,67.275
0.56598,67.666
0.59726,68.057
0.62659,68.253
0.65103,68.449
0.67058,68.449
0.68719,68.449
0.69795,68.253
0.70577,68.057
0.71065,67.666
0.71163,67.275
0.7087,66.688
0.70283,66.102
0.69501,65.711
0.68524,65.124
0.67253,64.537
0.65689,63.95
0.6393,63.364
0.6217,62.777
0.60215,62.386
0.58358,61.799
0.56598,61.213
0.54936,60.626
0.53275,60.235
0.52004,59.648
0.50831,59.061
0.49658,58.67
0.4868,58.279
0.47801,57.888
0.47116,57.497
0.4653,57.106
0.46041,56.715
0.4565,56.323
0.45357,55.737
0.45161,55.346
0.44966,54.954
0.44673,54.563
0.44477,54.368
0.44184,54.172
0.43793,54.172
0.43402,54.368
0.42913,55.346
0.42424,56.91
0.41935,60.039
0.41447,64.733
0.4086,70.991
0.40274,78.031
0.39687,85.267
0.39101,92.308
0.3871,98.566
0.38221,104.04
0.37732,108.54
0.37146,111.86
0.36559,114.41
0.35875,115.58
0.35093,116.17
0.34409,115.78
0.33724,114.8
0.3304,113.23
0.32454,111.08
0.31769,108.74
0.31183,106
0.30694,103.06
0.30205,99.935
0.29717,96.415
0.29228,92.699
0.28641,88.788
0.28152,84.681
0.27664,80.965
0.27077,77.445
0.26588,74.316
0.261,71.578
0.25806,69.426
0.25709,67.666
0.26002,66.493
0.26686,65.711
0.27859,65.124
0.29814,64.928
0.32454,65.124
0.35679,65.319
0.39492,65.711
0.43597,66.102
0.47801,66.688
0.52004,67.08
0.56012,67.471
0.59726,67.862
0.62952,68.057
0.65298,68.253
0.67155,68.449
0.68915,68.449
0.70381,68.449
0.71554,68.253
0.72336,67.862
0.72825,67.471
0.73021,67.08
0.72825,66.493
0.72434,65.906
0.71554,65.515
0.70381,64.928
0.6911,64.537
0.67644,63.95
0.65885,63.364
0.64027,62.973
0.6217,62.386
0.60215,61.799
0.58358,61.408
0.56598,60.821
0.55034,60.43
0.53568,60.039
0.52297,59.648
0.51124,59.257
0.50244,58.866
0.4956,58.475
0.48876,58.083
0.48289,57.692
0.47898,57.301
0.47507,56.91
0.47214,56.519
0.46823,56.128
0.4653,55.932
0.46237,55.541
0.45943,55.541
0.4565,55.541
0.45357,55.932
0.45064,56.715
0.44673,58.475
0.44282,61.604
0.43793,66.102
0.43206,72.164
0.42717,79.205
0.42131,86.441
0.41544,93.481
0.40958,99.935
0.40371,105.41
0.39687,110.1
0.39003,113.62
0.38514,115.97
0.38025,117.34
0.37439,117.93
0.36852,117.73
0.36266,116.75
0.35679,115.38
0.35191,113.62
0.34604,111.47
0.34115,108.93
0.33627,106.39
0.3304,103.26
0.32551,100.13
0.31965,96.61
0.31574,93.09
0.31085,89.179
0.30596,85.463
0.30108,81.943
0.29619,78.618
0.29228,75.685
0.28935,73.338
0.28837,71.382
0.29032,70.013
0.29717,69.035
0.31085,68.253
0.3304,67.862
0.35386,67.666
0.38025,67.862
0.41642,67.862
0.45748,68.253
0.50147,68.449
0.54643,68.84
0.59042,69.035
0.6305,69.426
0.66667,69.622
0.69892,69.622
0.72532,69.622
0.7478,69.426
0.76637,69.426
0.7781,69.231
0.78592,68.84
0.79179,68.644
0.7957,68.057
0.7957,67.666
0.79374,67.08
0.7869,66.493
0.7781,65.906
0.76637,65.515
0.75269,64.928
0.73705,64.342
0.72043,63.755
0.70381,63.168
0.68719,62.582
0.67058,61.995
0.65298,61.408
0.63636,61.017
0.62072,60.43
0.60606,60.039
0.59238,59.648
0.57967,59.061
0.56891,58.67
0.55914,58.279
0.55132,58.083
0.54448,57.692
0.53861,57.106
0.52688,56.715
0.51222,56.323
0.50342,55.932
0.49756,55.346
0.49267,55.15
0.48778,54.954
0.48387,55.15
0.47898,55.346
0.4741,56.519
0.46921,58.475
0.46432,61.995
0.45943,67.275
0.45455,73.729
0.44966,81.16
0.44379,88.592
0.43695,95.632
0.43109,102.09
0.42326,107.37
0.41642,111.67
0.40958,114.8
0.40274,116.95
0.39589,118.12
0.38905,118.32
0.38319,117.93
0.37732,116.75
0.37243,115.19
0.36657,113.23
0.35973,110.89
0.35288,108.34
0.34604,105.61
0.3392,102.48
0.33333,99.153
0.32747,95.632
0.3216,91.917
0.31476,88.201
0.3089,84.289
0.30401,80.574
0.3001,77.249
0.29423,74.511
0.29032,72.164
0.28837,70.209
0.28935,68.84
0.29619,67.862
0.3089,67.275
0.32942,66.884
0.35679,66.688
0.38905,66.688
0.4262,66.884
0.4653,67.275
0.50049,67.471
0.53177,67.666
0.565,68.057
0.59824,68.253
0.62854,68.449
0.65591,68.644
0.6784,68.84
0.69697,68.84
0.71163,68.644
0.72239,68.449
0.72825,68.253
0.73118,67.862
0.73118,67.471
0.72727,66.884
0.72239,66.297
0.71457,65.711
0.70381,65.124
0.6911,64.733
0.67546,64.146
0.65787,63.559
0.6393,62.973
0.62072,62.582
0.60117,61.995
0.58358,61.408
0.56598,61.017
0.55132,60.43
0.53763,59.844
0.52493,59.452
0.51222,58.866
0.50147,58.475
0.49071,58.083
0.48192,57.692
0.4741,57.301
0.46823,56.91
0.46237,56.715
0.45748,56.323
0.45357,55.737
0.44966,55.346
0.44575,54.954
0.44184,54.759
0.43793,54.368
0.43304,54.172
0.42913,54.368
0.42326,54.759
0.4174,55.737
0.41056,57.692
0.40469,61.408
0.39785,66.493
0.39101,73.142
0.38416,80.574
0.37928,88.005
0.37439,95.046
0.36852,101.5
0.3607,106.98
0.35386,111.28
0.34702,114.6
0.34018,116.56
0.33333,117.73
0.32649,117.93
0.32063,117.34
0.31378,116.17
0.30792,114.41
0.30205,112.45
0.29717,110.1
0.2913,107.37
0.28543,104.43
0.27859,101.11
0.27175,97.784
0.26588,94.068
0.26002,90.352
0.25415,86.441
0.24829,82.725
0.24242,79.009
0.23656,75.88
0.23167,73.338
0.22972,70.991
0.22874,69.231
0.23167,68.057
0.23851,67.08
0.25122,66.688
0.26979,66.297
0.29619,66.297
0.32845,66.493
0.36461,66.688
0.40371,66.884
0.44379,67.275
0.48289,67.471
0.51417,67.862
0.54154,68.057
0.56891,68.449
0.59433,68.644
0.61681,68.644
0.63441,68.644
0.64907,68.644
0.65982,68.449
0.66667,68.057
0.67058,67.666
0.67058,67.275
0.66764,66.688
0.66178,66.297
0.65396,65.711
0.64418,65.124
0.63148,64.537
0.61681,64.146
0.6002,63.559
0.5826,62.973
0.56403,62.386
0.54545,61.799
0.52786,61.408
0.51124,60.821
0.4956,60.235
0.48094,59.844
0.46921,59.257
0.45943,58.866
0.44966,58.279
0.44086,57.888
0.43304,57.497
0.42717,57.106
0.42131,56.715
0.41544,56.323
0.41153,55.932
0.40762,55.541
0.40469,55.15
0.40176,54.759
0.39785,54.563
0.39492,54.368
0.39198,54.368
0.38807,54.563
0.38319,55.346
0.3783,56.91
0.37341,59.844
0.36852,64.342
0.36266,70.209
0.35679,77.249
0.35093,84.485
0.34506,91.525
0.3392,97.979
0.33333,103.46
0.32845,108.15
0.32258,111.67
0.31672,114.02
0.31085,115.58
0.30401,115.97
0.29717,115.78
0.2913,114.8
0.28543,113.23
0.27957,111.28
0.2737,109.13
0.26784,106.39
0.26295,103.65
0.25904,100.33
0.25415,97.001
0.24927,93.286
0.2434,89.374
0.23851,85.463
0.23265,81.552
0.22776,78.031
0.22287,74.902
0.21799,72.164
0.21408,69.818
0.21212,68.057
0.21408,66.884
0.21994,65.906
0.22874,65.319
0.24438,65.124
0.26588,65.124
0.29423,65.319
0.32747,65.515
0.36461,65.906
0.40371,66.102
0.44184,66.493
0.47898,66.884
0.51417,67.275
0.54448,67.471
0.56794,67.666
0.58553,67.666
0.60313,67.666
0.61779,67.666
0.62952,67.471
0.63734,67.275
0.64223,66.884
0.64321,66.493
0.64223,65.906
0.63734,65.515
