0.73118,68.84
0.71848,68.253
0.70186,67.862
0.68328,67.471
0.66178,66.884
0.6393,66.297
0.61486,65.906
0.58944,65.515
0.565,65.124
0.54057,64.537
0.51808,64.146
0.49853,63.559
0.48192,63.168
0.4653,62.777
0.44966,62.19
0.43597,61.604
0.42424,61.213
0.41349,60.626
0.40469,60.039
0.39687,59.648
0.39003,59.257
0.38416,58.67
0.37928,58.279
0.37537,57.888
0.37146,57.497
0.36852,57.301
0.36559,57.301
0.36266,57.888
0.35875,59.648
0.35484,63.168
0.35093,69.231
0.34702,77.445
0.34409,86.832
0.34018,96.024
0.33627,104.63
0.33236,112.45
0.32942,118.9
0.32747,123.99
0.32454,127.31
0.3216,129.27
0.31867,130.05
0.31574,129.66
0.31281,128.68
0.3089,126.92
0.30596,124.77
0.30303,122.43
0.29912,119.88
0.29619,117.34
0.29326,114.41
0.29032,111.28
0.28935,107.76
0.28641,104.04
0.28348,100.13
0.28055,96.024
0.27761,91.917
0.2737,88.005
0.27077,84.681
0.26882,81.943
0.26979,79.596
0.27566,77.836
0.28837,76.467
0.30499,75.489
0.32747,74.707
0.3607,74.316
0.40274,74.12
0.44966,73.924
0.49951,74.12
0.55034,74.12
0.59726,74.12
0.64027,74.316
0.67644,74.316
0.70674,74.12
0.73021,74.12
0.7478,73.924
0.75758,73.533
0.76246,73.338
0.76442,72.751
0.76246,72.36
0.75855,71.773
0.75073,71.186
0.73998,70.6
0.7263,70.209
0.70968,69.622
0.6911,69.035
0.6696,68.644
0.64712,68.057
0.62659,67.666
0.60606,67.275
0.58358,66.688
0.56109,66.297
0.53959,65.711
0.51906,65.319
0.50049,64.733
0.48387,64.342
0.46921,63.755
0.45748,63.364
0.44673,62.777
0.43793,62.19
0.43011,61.799
0.42424,61.408
0.42033,60.821
0.41642,60.235
0.41251,59.844
0.4086,59.257
0.40567,59.061
0.40176,58.866
0.39883,59.061
0.39589,60.235
0.39198,62.973
0.38905,68.253
0.38514,76.076
0.38221,85.463
0.38025,95.046
0.37732,104.24
0.37341,112.45
0.37048,119.49
0.36657,125.16
0.36364,129.27
0.35973,131.62
0.35679,132.59
0.35386,132.4
0.35093,131.42
0.34702,129.86
0.34409,127.9
0.34213,125.75
0.3392,123.4
0.33724,120.86
0.33333,118.12
0.3304,114.99
0.32747,111.86
0.32356,108.34
0.32063,104.43
0.31672,100.52
0.31378,96.219
0.30987,92.112
0.30596,88.396
0.30401,85.072
0.30303,82.138
0.30499,79.987
0.31281,78.227
0.32747,76.858
0.34995,75.88
0.38221,75.098
0.42229,74.707
0.46823,74.316
0.51711,74.316
0.56598,74.316
0.61193,74.316
0.65298,74.12
0.68524,74.12
0.7087,73.924
0.73021,73.729
0.7478,73.533
0.76051,73.338
0.76735,72.947
0.77126,72.555
0.77028,71.969
0.7654,71.382
0.75758,70.795
0.74682,70.404
0.73314,69.622
0.71945,69.035
0.70283,68.644
0.68426,68.057
0.66276,67.471
0.64027,67.08
0.61584,66.493
0.5914,65.906
0.56696,65.515
0.5435,64.928
0.52102,64.537
0.50049,63.95
0.48192,63.364
0.4653,62.777
0.45259,62.19
0.44184,61.604
0.43109,61.213
0.42229,60.626
0.41349,60.039
0.40665,59.648
0.40078,59.061
0.39492,58.67
0.39003,58.279
0.38514,57.888
0.38025,57.497
0.37634,57.497
0.37243,58.083
0.3695,59.452
0.36559,62.973
0.36168,68.84
0.35679,76.858
0.35288,86.441
0.348,96.024
0.34409,104.82
0.3392,112.84
0.33431,119.49
0.3304,124.58
0.32551,128.1
0.3216,130.05
0.31867,130.83
0.31672,130.44
0.31281,129.47
0.30987,127.71
0.30596,125.55
0.30303,123.21
0.29912,120.67
0.29521,117.93
0.2913,114.99
0.28739,111.86
0.28446,108.34
0.28055,104.63
0.27566,100.72
0.26882,96.61
0.26393,92.503
0.25904,88.396
0.25513,84.876
0.2522,81.943
0.25122,79.4
0.25513,77.445
0.26491,75.88
0.2825,74.707
0.3089,73.924
0.34409,73.338
0.38612,72.947
0.4262,72.751
0.4653,72.751
0.50929,72.751
0.55425,72.555
0.59433,72.555
0.6305,72.555
0.65982,72.36
0.68328,72.36
0.70088,72.164
0.71261,71.969
0.71945,71.578
0.72141,71.186
0.71945,70.6
0.71457,70.209
0.70674,69.622
0.69599,69.035
0.68328,68.449
0.66764,67.862
0.65005,67.471
0.62952,66.884
0.60802,66.297
0.58456,65.906
0.56109,65.319
0.53763,64.928
0.51613,64.342
0.49853,63.755
0.47898,63.364
0.46041,62.777
0.44379,62.386
0.42913,61.799
0.41544,61.213
0.40371,60.626
0.39296,60.039
0.38514,59.648
0.37732,59.061
0.37146,58.67
0.36559,58.083
0.36168,57.692
0.35875,57.301
0.35484,56.91
0.35191,56.715
0.348,56.715
0.34409,57.106
0.34018,58.475
0.33724,61.408
0.33333,66.493
0.32942,73.924
0.32551,82.921
0.3216,91.917
0.31867,100.72
0.31574,108.34
0.31281,114.99
0.3089,120.08
0.30499,123.79
0.30205,125.95
0.29814,126.92
0.29521,126.73
0.2913,125.55
0.28739,123.79
0.28446,121.64
0.28055,119.3
0.27761,116.56
0.27468,113.62
0.2737,110.5
0.27077,107.17
0.26784,103.46
0.26491,99.544
0.26197,95.437
0.25806,91.134
0.25513,87.223
0.25122,83.507
0.24829,80.574
0.24536,78.031
0.24536,75.88
0.24829,74.316
0.25611,73.142
0.26882,72.36
0.29032,71.773
0.32063,71.382
0.35875,71.186
0.40274,71.186
0.44966,71.186
0.49756,71.186
0.54252,71.186
0.58456,71.186
0.62072,71.186
0.65005,71.186
0.67058,70.991
0.68426,70.795
0.69599,70.6
0.70283,70.404
0.70674,70.013
0.70577,69.426
0.70186,69.035
0.69306,68.449
0.68231,67.862
0.66764,67.471
0.65103,66.884
0.63148,66.297
0.6129,65.711
0.59335,65.319
0.57185,64.928
0.54936,64.537
0.5259,63.95
0.50342,63.559
0.48289,62.973
0.46334,62.582
0.44575,61.995
0.43011,61.408
0.41642,61.017
0.40469,60.43
0.39492,59.844
0.3871,59.452
0.38123,58.866
0.37537,58.475
0.37048,58.083
0.36559,57.497
0.36168,57.106
0.35777,56.715
0.35484,56.323
0.35093,56.128
0.348,56.323
0.34506,56.91
0.34213,58.475
0.3392,61.995
0.33724,67.666
0.33431,75.293
0.3304,84.094
0.32747,92.894
0.32356,101.11
0.31965,108.15
0.31672,114.41
0.31281,119.1
0.3089,122.43
0.30499,124.38
0.30205,125.16
0.29814,124.77
0.29619,123.6
0.29423,121.64
0.2913,119.49
0.28837,116.95
0.28543,114.21
0.2825,111.28
0.27957,107.95
0.27566,104.43
0.27273,100.52
0.26979,96.61
0.26686,92.308
0.26295,88.201
0.261,84.485
0.25904,81.16
0.25709,78.422
0.25513,76.076
0.25415,74.316
0.25806,72.947
0.26686,72.164
0.2825,71.382
0.30694,70.991
0.3392,70.6
0.37928,70.6
0.42424,70.6
0.47116,70.6
0.51222,70.6
0.54741,70.6
0.58456,70.795
0.61877,70.6
0.64809,70.6
0.67155,70.6
0.69013,70.404
0.70186,70.013
0.7087,69.622
0.71163,69.231
0.70968,68.84
0.70479,68.449
0.69599,67.862
0.68524,67.275
0.67155,66.884
0.65396,66.297
0.63539,65.906
0.61388,65.319
0.59042,64.733
0.56696,64.342
0.5435,63.95
0.52102,63.364
0.49853,62.973
0.47801,62.386
0.45943,61.995
0.44477,61.604
0.43304,61.017
0.42131,60.626
0.41056,60.039
0.40078,59.648
0.39296,59.061
0.38612,58.475
0.38025,58.083
0.37439,57.692
0.37048,57.106
0.36657,56.715
0.36266,56.323
0.35973,56.128
0.35777,56.128
0.35484,56.323
0.35191,57.497
0.34897,59.844
0.34506,64.537
0.34213,71.382
0.33822,79.791
0.33431,88.983
0.3304,97.588
0.32747,105.61
0.32356,112.45
0.31965,118.12
0.31769,122.23
0.31476,124.77
0.31183,126.14
0.3089,126.34
0.30596,125.55
0.30205,123.99
0.29912,122.23
0.29521,119.88
0.29228,117.14
0.28837,114.41
0.28543,111.47
0.28152,108.15
0.27957,104.63
0.27761,100.91
0.27468,96.806
0.27175,92.503
0.26882,88.396
0.26588,84.681
0.26197,81.552
0.25904,79.009
0.25709,76.662
0.25904,75.098
0.26588,73.729
0.27957,72.751
0.29717,72.164
0.32063,71.773
0.35386,71.578
0.39394,71.578
0.43988,71.578
0.48778,71.578
0.5347,71.773
0.58456,71.773
0.63148,71.969
0.6696,71.969
0.6999,71.969
0.72239,71.773
0.73803,71.578
0.74682,71.382
0.74976,70.991
0.75073,70.6
0.7478,70.209
0.74194,69.818
0.73216,69.231
0.71945,68.84
0.70283,68.253
0.68426,67.666
0.66276,67.275
0.64027,66.688
0.61584,66.297
0.59335,65.906
0.57283,65.515
0.55034,65.124
0.52786,64.733
0.50733,64.342
0.48778,63.755
0.47019,63.364
0.45455,62.777
0.44086,62.386
0.42913,61.799
0.42033,61.408
0.41153,61.017
0.40469,60.43
0.3998,60.039
0.39589,59.648
0.39198,59.061
0.38905,58.67
0.38514,58.475
0.38221,58.279
0.37928,58.475
0.37634,59.452
0.37243,61.604
0.3695,65.906
0.36657,72.555
0.36266,80.965
0.35973,90.352
0.35777,99.153
0.35484,107.37
0.35191,114.6
0.34897,120.47
0.34604,124.97
0.34213,127.9
0.3392,129.27
0.33627,129.66
0.33333,129.07
0.3304,127.51
0.32747,125.75
0.32454,123.6
0.32258,121.25
0.32063,118.9
0.31867,116.17
0.31574,113.23
0.31378,109.91
0.31085,106.39
0.30792,102.67
0.30499,98.761
0.30205,94.655
0.29912,90.743
0.29619,87.223
0.29423,84.289
0.29326,81.747
0.29521,79.791
0.3001,78.227
0.31085,76.858
0.32942,76.271
0.35679,75.685
0.39198,75.293
0.435,75.098
0.48289,75.098
0.53275,75.293
0.58162,75.293
0.62757,75.293
0.66764,75.293
0.69795,75.293
0.72141,75.098
0.74194,74.707
0.75855,74.316
0.77028,73.924
0.77713,73.533
0.78006,72.751
0.77908,72.164
0.77419,71.578
0.76637,70.795
0.75464,70.209
0.74096,69.622
0.72532,69.035
0.7087,68.644
0.68915,68.057
0.66764,67.666
0.64516,67.275
0.6217,66.884
0.59824,66.297
0.57576,65.906
0.55425,65.319
0.5347,64.733
0.51613,64.342
0.50049,63.755
0.4868,63.168
0.47605,62.582
0.46725,61.995
0.45943,61.408
0.45161,60.821
0.44575,60.43
0.43988,59.844
0.43402,59.452
0.43011,58.866
0.42522,58.475
0.42033,58.279
0.41642,58.279
0.41251,59.061
0.4086,60.821
0.40469,64.733
0.40078,70.991
0.39589,79.596
0.39101,89.179
0.38612,98.761
0.38123,107.37
0.37732,115.19
0.37243,121.64
0.36755,126.53
0.36266,129.86
0.35875,131.62
0.35386,132.2
0.34995,131.62
0.34702,130.25
0.34311,128.49
0.3392,126.34
0.33529,123.99
0.3304,121.45
0.32551,118.51
0.3216,115.58
0.31672,112.45
0.31281,108.93
0.30792,105.22
0.30401,101.11
0.3001,97.001
0.29717,92.894
0.29326,88.983
0.28935,85.658
0.28543,82.725
0.28446,80.378
0.28739,78.422
0.29619,77.054
0.31378,76.076
0.3392,75.293
0.37439,74.902
0.4174,74.511
0.4653,74.511
0.50831,74.316
0.54839,74.316
0.5914,74.316
0.63245,74.316
0.66862,74.12
0.69892,73.924
0.72336,73.729
0.74096,73.533
0.75367,73.338
0.76051,72.947
0.76246,72.36
0.76051,71.969
0.75464,71.186
0.74682,70.6
0.73607,70.013
0.72239,69.622
0.70577,69.035
0.68719,68.449
0.66667,67.862
0.64418,67.471
0.62072,66.884
0.59629,66.493
0.57185,66.102
0.54741,65.515
0.52493,65.124
0.50538,64.537
0.48876,64.146
0.47312,63.559
0.45748,62.973
0.44379,62.386
0.43206,61.799
0.42229,61.213
0.41349,60.821
0.40567,60.235
0.39883,59.844
0.39394,59.257
0.38807,58.866
0.38514,58.279
0.38123,58.083
0.3783,57.888
0.37439,58.083
0.37048,58.475
0.36559,60.235
0.36168,63.95
0.35777,69.818
0.35386,78.031
0.34897,87.223
0.34506,96.61
0.34018,105.22
0.33627,112.84
0.33236,119.3
0.3304,123.99
0.32649,127.31
0.32356,129.07
0.31965,129.66
0.31574,129.27
0.31183,128.1
0.30792,126.14
0.30499,123.99
0.30108,121.64
0.29717,118.9
0.29326,116.17
0.2913,113.04
0.28935,109.71
0.28641,106
0.2825,102.09
0.27957,97.979
0.27566,93.677
0.27273,89.57
0.26882,85.854
0.26491,82.725
0.26295,79.987
0.26197,77.836
0.26686,76.271
0.27468,75.098
0.28739,74.12
0.30987,73.533
0.34213,73.142
0.38123,72.947
0.42717,72.947
0.47703,72.947
0.52688,72.947
0.57478,72.947
0.61877,72.947
0.65591,72.947
0.68719,72.751
0.71065,72.555
0.7263,72.555
0.73607,72.164
0.74291,71.969
0.74585,71.382
0.74487,70.991
0.73998,70.404
0.73216,70.013
0.72141,69.426
0.70674,68.84
0.69013,68.253
0.67058,67.666
0.64907,67.275
0.62757,66.688
0.60117,66.297
0.56891,65.711
0.54057,65.319
0.51515,64.733
0.49267,64.342
0.47214,63.755
0.45357,63.168
0.43695,62.777
0.42229,62.19
0.40958,61.604
0.39883,61.213
0.39003,60.626
0.38319,60.039
0.3783,59.648
0.37341,59.061
0.36852,58.67
0.36364,58.279
0.35973,57.888
0.35679,57.497
0.35288,57.497
0.34995,57.497
0.34604,58.279
0.34311,59.844
0.3392,63.364
0.33627,69.231
0.33431,76.858
0.33138,85.854
0.32747,94.655
0.32454,102.87
0.32063,110.3
0.31672,116.36
0.31378,121.25
0.30987,124.38
0.30596,126.34
0.30303,126.92
0.29912,126.53
0.29619,125.36
0.29326,123.6
0.2913,121.45
0.28837,118.9
0.28543,116.17
0.2825,113.23
0.27859,109.91
0.27566,106.39
0.27175,102.48
0.26882,98.37
0.26588,94.068
0.26197,89.961
0.25904,86.05
0.25611,82.725
0.25513,79.987
0.25318,77.836
0.2522,76.076
0.25513,74.707
0.26295,73.729
0.27761,73.142
0.3001,72.555
0.3304,72.36
0.36852,72.164
0.41251,72.164
0.45943,72.164
0.50538,72.164
0.54448,72.36
0.57771,72.164
0.61095,72.164
0.64027,72.164
0.66471,71.969
0.68328,71.773
0.69697,71.382
0.70479,71.186
0.70772,70.6
0.70674,70.209
0.70186,69.622
0.69404,69.231
0.68328,68.644
0.67058,68.057
0.65494,67.666
0.63636,67.08
0.61584,66.688
0.59335,66.102
0.56989,65.711
0.54643,65.124
0.52297,64.733
0.50147,64.342
0.48094,63.755
0.46237,63.168
0.44575,62.777
0.43206,62.19
0.42131,61.604
0.41056,61.213
0.40176,60.626
0.39394,60.235
0.38612,59.648
0.38025,59.257
0.37537,58.67
0.37048,58.279
0.36657,57.888
0.36266,57.497
0.35875,57.106
0.35679,57.106
0.35386,57.497
0.35093,58.67
0.348,61.213
0.34506,65.906
0.34115,72.751
0.33822,81.356
0.33431,90.352
0.3304,99.153
0.32649,106.78
0.32356,113.62
0.31965,119.1
0.31672,123.21
0.31378,125.55
0.31183,126.73
0.3089,126.73
0.30499,125.95
0.30205,124.38
0.29912,122.43
0.29521,120.27
0.29228,117.73
0.28837,114.99
0.28543,112.06
0.28152,108.74
0.27859,105.22
0.27664,101.3
0.27468,97.197
0.27175,92.894
0.26882,88.983
0.26588,85.267
0.26197,81.943
0.25904,79.4
0.25709,77.249
0.25806,75.489
0.26295,74.316
0.27468,73.533
0.29521,72.947
0.32356,72.555
0.35386,72.36
0.3871,72.164
0.42913,72.164
0.4741,72.164
0.52102,72.164
0.565,72.164
0.60411,72.36
0.63832,72.164
0.66569,72.164
0.68719,72.164
0.70283,71.773
0.71359,71.578
0.7175,71.186
0.7175,70.795
0.71554,70.404
0.70968,69.818
0.70088,69.426
0.68915,68.84
0.67351,68.449
0.65591,67.862
0.63636,67.471
0.61486,66.884
0.59238,66.493
0.56794,66.102
0.54448,65.711
0.52395,65.319
0.50538,64.733
0.4868,64.342
0.46823,63.755
0.45161,63.364
0.43695,62.777
0.42326,62.386
0.41251,61.799
0.40274,61.408
0.39394,60.821
0.3871,60.43
0.38123,59.844
0.37732,59.452
0.37341,59.061
0.3695,58.67
0.36657,58.475
0.36364,58.475
0.35973,58.67
0.35679,59.648
0.35386,61.995
0.34995,66.493
0.34702,73.533
0.34311,82.138
0.34018,91.33
0.33627,100.33
0.33333,108.34
0.33138,115.58
0.32845,121.45
0.32551,125.55
0.32258,128.49
0.31965,129.86
0.31574,130.05
0.31281,129.47
0.30987,128.1
0.30694,126.14
0.30401,123.99
0.30108,121.45
0.29814,118.9
0.29619,115.97
0.29423,113.04
0.2913,109.71
0.28837,106.19
0.28543,102.28
0.2825,98.175
0.27859,94.263
0.27566,90.352
0.27273,87.027
0.26979,84.094
0.26882,81.552
0.26979,79.791
0.2737,78.227
0.28348,77.054
0.3001,76.467
0.32454,75.88
0.35777,75.685
0.39883,75.685
0.44477,75.489
0.49267,75.685
0.54057,75.685
0.58553,75.685
0.62561,75.685
0.6608,75.685
0.68524,75.489
0.70381,75.293
0.71848,75.098
0.73021,74.707
0.73803,74.316
0.74194,73.729
0.74096,73.338
0.73705,72.751
0.72923,72.164
0.71848,71.578
0.70577,70.991
0.68915,70.6
0.67351,70.013
0.65591,69.622
0.63539,69.035
0.61388,68.644
0.5914,68.057
0.56891,67.666
0.54741,67.08
0.5259,66.493
0.50733,65.906
0.48974,65.319
0.47507,64.733
0.46139,64.146
0.45064,63.364
0.44184,62.777
0.435,62.19
0.42815,61.799
0.42229,61.213
0.4174,60.821
0.41349,60.235
0.40958,59.844
0.40567,59.648
0.40274,59.452
0.3998,59.844
0.39589,61.017
0.39296,63.755
0.38905,68.84
0.3871,76.271
0.38319,85.267
0.37928,94.85
0.37537,104.04
0.37146,112.26
0.36755,119.49
0.36364,125.16
0.35973,129.27
0.35582,131.62
0.35191,132.79
0.348,132.99
0.34409,132.01
0.34115,130.64
0.3392,128.68
0.33529,126.73
0.33236,124.38
0.32845,122.03
0.32454,119.3
0.31965,116.36
0.31574,113.23
0.31183,109.71
0.30792,106
0.30401,102.09
0.29912,97.784
0.29619,93.677
0.29326,89.765
0.29032,86.441
0.28739,83.507
0.28641,81.16
0.29032,79.4
0.3001,77.836
0.31867,76.858
0.34506,76.076
0.38025,75.685
0.42229,75.489
0.46823,75.293
0.51613,75.293
0.55718,75.098
0.5914,75.098
0.62757,75.098
0.65982,75.098
0.68622,74.902
0.70772,74.707
0.72336,74.316
0.73412,73.924
0.739,73.533
0.74096,73.142
0.73803,72.555
0.73314,71.969
0.72532,71.382
0.71457,70.795
0.70186,70.209
0.68719,69.622
0.6696,69.035
0.65005,68.644
0.62854,68.057
0.60606,67.471
0.5826,67.08
0.55914,66.688
0.53568,66.102
0.5132,65.515
0.49169,64.928
0.4741,64.537
0.45943,63.95
0.44575,63.364
0.43206,62.777
0.42033,62.19
0.41056,61.604
0.40176,61.017
0.39394,60.626
0.38807,60.039
0.38221,59.648
0.37634,59.257
0.37146,58.866
0.36755,58.67
0.36461,58.67
0.3607,59.257
0.35679,61.017
0.35288,64.537
0.34897,70.6
0.34409,79.009
0.34018,88.592
0.33529,97.979
0.33138,106.98
0.32649,114.8
0.32258,121.45
0.31867,126.34
0.31574,129.86
0.31281,131.62
0.30987,132.4
0.30596,132.2
0.30303,131.03
0.29912,129.27
0.29521,127.31
0.2913,124.97
0.28739,122.43
0.28446,119.69
0.28055,116.75
0.27664,113.43
0.27468,110.1
0.27273,106.19
0.26979,102.28
0.26686,98.175
0.26393,93.872
0.26002,89.961
0.25611,86.245
0.25318,83.312
0.25122,80.769
0.25415,78.814
0.26197,77.249
0.27664,76.076
0.30108,75.293
0.32845,74.902
0.35973,74.511
0.40078,74.316
0.4477,74.316
0.49658,74.12
0.54448,74.12
0.58847,74.12
0.62757,73.924
0.65982,73.924
0.68524,73.729
0.70479,73.533
0.71945,73.338
0.7263,72.947
0.72923,72.555
0.72923,71.969
0.7263,71.382
0.71945,70.991
0.71065,70.404
0.69892,69.818
0.68426,69.231
0.66667,68.84
0.64712,68.253
0.62561,67.666
0.60313,67.275
0.57869,66.688
0.55718,66.102
0.53763,65.711
0.51613,65.124
0.49462,64.537
0.47507,64.146
0.4565,63.559
0.43988,62.973
0.4262,62.582
0.41349,61.995
0.40176,61.408
0.39296,61.017
0.38514,60.43
0.37928,60.039
0.37439,59.452
0.3695,59.061
0.36559,58.67
0.36168,58.279
0.35777,58.279
0.35386,58.475
0.34995,59.257
0.34604,61.408
0.34213,65.711
0.33822,72.164
0.33333,80.574
0.3304,89.765
0.32747,98.566
0.32454,106.78
0.32063,113.82
0.31672,119.69
0.31281,123.99
0.3089,126.73
0.30499,128.29
0.30108,128.68
0.29717,127.9
0.29423,126.73
0.29032,124.77
0.28739,122.62
0.28446,120.27
0.2825,117.54
0.27957,114.8
0.27664,111.47
0.2737,108.15
0.26979,104.24
0.26686,100.33
0.26393,96.024
0.26002,91.917
0.25611,87.81
0.25318,84.289
0.24927,81.356
0.24731,79.009
0.24829,77.054
0.25122,75.685
0.25904,74.707
0.27468,73.924
0.29717,73.338
0.32942,73.142
0.36852,72.947
0.41349,72.947
0.46139,72.947
0.50929,72.751
0.55523,72.751
0.59531,72.751
0.62659,72.751
0.65103,72.555
0.67253,72.555
0.69013,72.164
0.70283,71.969
0.71163,71.578
0.71457,71.186
0.71457,70.795
0.70968,70.209
0.70283,69.818
0.6911,69.231
0.67742,68.644
0.66178,68.253
0.64614,67.666
0.62659,67.275
0.60508,66.688
0.58162,66.297
0.55816,65.711
0.5347,65.319
0.51124,64.733
0.48974,64.342
0.46921,63.755
0.45161,63.168
0.435,62.777
0.42131,62.19
0.41056,61.604
0.40176,61.213
0.39394,60.626
0.38612,60.235
0.38025,59.844
0.37439,59.257
0.36852,58.67
0.36461,58.279
0.3607,58.083
0.35679,57.888
0.35288,58.083
0.34995,58.866
0.34702,60.626
0.34506,64.537
0.34213,70.6
0.33822,78.814
0.33529,88.005
0.33138,97.197
0.32747,105.41
0.32454,112.84
0.32063,119.1
0.31672,123.79
0.31378,127.12
0.30987,128.68
0.30596,129.27
0.30303,128.88
0.30303,127.71
0.30205,125.75
0.29912,123.79
0.29717,121.45
0.29326,118.9
0.29032,116.17
0.28739,113.04
0.28348,109.71
0.28055,106
0.27664,101.89
0.2737,97.784
0.27077,93.677
0.26882,89.57
0.26588,85.854
0.26295,82.725
0.26002,79.987
0.25904,78.031
0.261,76.467
0.26882,75.293
0.28348,74.511
0.30596,73.924
0.33822,73.533
0.37732,73.338
0.42326,73.338
0.4653,73.338
0.5044,73.338
0.54741,73.338
0.58944,73.142
0.62757,73.142
0.6608,72.947
0.68719,72.947
0.70674,72.751
0.72141,72.36
0.73021,72.164
0.73412,71.578
0.73412,71.186
0.73118,70.6
0.72434,70.013
0.71457,69.622
0.70186,69.035
0.68719,68.644
0.66862,68.057
0.64907,67.471
0.62659,67.08
0.60313,66.493
0.57869,66.102
0.55425,65.515
0.53079,65.124
0.50831,64.537
0.48974,63.95
0.4741,63.559
0.45748,62.973
0.44282,62.582
0.43011,61.995
0.41838,61.604
0.4086,61.017
0.3998,60.626
0.39296,60.039
0.38612,59.648
0.38123,59.257
0.37634,58.866
0.37243,58.475
0.3695,58.279
0.36559,58.475
0.36266,59.257
0.35875,61.017
0.35484,64.733
0.35093,70.795
0.34702,78.814
0.34311,88.005
0.3392,97.393
0.33529,105.8
0.33138,113.43
0.32747,120.08
0.32454,124.97
0.3216,128.49
0.31867,130.44
0.31574,131.23
0.31183,130.83
0.3089,129.86
0.30499,128.1
0.30108,126.14
0.29814,123.79
0.29423,121.45
0.29032,118.71
0.28739,115.97
0.28446,112.65
0.2825,109.32
0.27957,105.61
0.27664,101.5
0.2737,97.393
0.27077,93.481
0.26686,89.57
0.26393,86.441
0.261,83.703
0.26002,81.356
0.26197,79.596
0.26979,78.227
0.28543,77.054
0.30401,76.467
0.32845,76.076
0.36364,75.88
0.40567,75.685
0.45259,75.685
0.50244,75.685
0.55034,75.685
0.59433,75.685
0.63343,75.685
0.66764,75.685
0.69404,75.489
0.71554,75.293
0.72825,75.098
0.73607,74.707
0.73998,74.316
0.74194,73.729
0.73998,73.338
0.73412,72.751
0.7263,72.36
0.71457,71.773
0.70088,71.186
0.68328,70.795
0.66471,70.209
0.64321,69.818
0.62072,69.231
0.6002,68.84
0.57967,68.449
0.55816,67.862
0.53666,67.471
0.51613,66.884
0.49658,66.297
0.47898,65.906
0.46334,65.319
0.44966,64.928
0.43793,64.342
0.42815,63.95
0.42033,63.364
0.41447,62.973
0.40958,62.386
0.40469,61.995
0.3998,61.408
0.39589,61.213
0.39296,61.017
0.38905,61.213
0.38612,61.995
0.38221,64.146
0.37928,68.253
0.37537,74.902
0.37243,83.703
0.3695,93.286
0.36657,102.67
0.36364,111.47
0.3607,119.3
0.35777,125.75
0.35484,130.64
0.35093,133.77
0.348,135.33
0.34506,135.92
0.34213,135.33
0.33822,134.16
0.33529,132.59
0.33236,130.64
0.32942,128.49
0.32747,126.14
0.32551,123.6
0.32258,120.86
0.31965,117.93
0.31574,114.6
0.31281,110.89
0.30987,106.98
0.30694,102.67
0.30303,98.37
0.3001,94.263
0.29619,90.548
0.29423,87.419
0.29423,84.876
0.29619,82.725
0.30303,81.16
0.31769,79.791
0.3392,79.009
0.37048,78.422
0.4086,78.031
0.45357,77.836
0.50147,77.836
0.54936,77.836
0.59629,77.64
0.63832,77.64
0.67058,77.445
0.69501,77.249
0.7175,77.054
0.73607,76.662
0.75073,76.271
0.75953,75.88
0.76442,75.293
0.7654,74.707
0.76246,74.12
0.7566,73.533
0.7478,72.947
0.73607,72.164
0.72239,71.773
0.70772,71.186
0.69013,70.6
0.67058,70.013
0.64907,69.622
0.62561,69.035
0.60215,68.644
0.57869,68.057
0.55523,67.471
0.53372,67.08
0.5132,66.493
0.49462,65.906
0.47801,65.319
0.4653,64.733
0.45455,64.342
0.44379,63.755
0.43402,63.168
0.4262,62.582
0.41838,61.995
0.41251,61.604
0.40567,61.213
0.40078,60.821
0.39492,60.43
0.39003,60.43
0.38514,61.017
0.38025,62.582
0.37732,66.102
0.37243,72.164
0.36755,80.574
0.36266,90.352
0.35777,100.13
0.35288,109.52
0.34702,117.73
0.34213,124.58
0.33724,129.66
0.33333,133.18
0.32845,135.14
0.32454,135.92
0.32063,135.72
0.31769,134.55
0.31476,132.79
0.31085,130.83
0.30694,128.68
0.30205,126.14
0.29814,123.6
0.29423,120.67
0.29032,117.73
0.28641,114.21
0.2825,110.5
0.27957,106.58
0.27664,102.28
0.27468,97.979
0.27077,93.872
0.26686,89.961
0.26393,86.636
0.261,83.898
0.26197,81.747
0.26686,79.987
0.27761,78.618
0.29521,77.836
0.32356,77.054
0.3607,76.662
0.40371,76.467
0.44379,76.467
0.48289,76.271
0.5259,76.271
0.56696,76.076
0.60508,76.076
0.63734,75.88
0.66471,75.685
0.68524,75.489
0.6999,75.098
0.7087,74.902
0.71457,74.511
0.71554,73.924
0.71261,73.533
0.70674,72.947
0.69892,72.36
0.68915,71.773
0.67546,71.186
0.6608,70.6
0.64321,70.013
0.62366,69.426
0.60215,69.035
0.57967,68.449
0.55621,68.057
0.53275,67.471
0.51026,66.884
0.49071,66.297
0.4741,65.906
0.4565,65.319
0.43988,64.733
0.42522,64.146
0.41251,63.559
0.40176,62.973
0.39198,62.582
0.38319,61.995
0.37634,61.408
0.37048,60.821
0.36461,60.43
0.3607,60.039
0.35777,59.648
0.35386,59.452
0.34995,59.648
0.34604,60.43
0.34213,62.582
0.33822,66.688
0.33431,73.142
0.3304,81.552
0.32649,91.134
0.32258,100.52
0.31769,109.13
0.31378,116.75
0.31085,123.01
0.3089,127.71
0.30499,130.64
0.30205,132.4
0.29814,132.99
0.29521,132.4
0.2913,131.03
0.28739,129.07
0.28446,126.92
0.28055,124.58
0.27761,122.03
0.2737,119.1
0.27077,115.97
0.26882,112.65
0.26588,108.93
0.26295,105.02
0.26002,100.72
0.25611,96.61
0.25318,92.308
0.24927,88.592
0.24536,85.267
0.24242,82.529
0.24145,80.378
0.24438,78.422
0.25318,77.249
0.26491,76.271
0.28348,75.489
0.31085,75.098
0.34702,74.902
0.38905,74.707
0.43597,74.707
0.48289,74.707
0.52884,74.511
0.57087,74.511
0.60802,74.316
0.63832,74.12
0.66276,74.12
0.67937,73.924
0.68915,73.533
0.69697,73.338
0.70088,72.947
0.70186,72.36
0.69892,71.969
0.69306,71.382
0.68328,70.795
0.67155,70.209
0.65689,69.622
0.6393,69.035
0.61975,68.644
0.60117,68.057
0.58162,67.471
0.56012,67.08
0.53763,66.688
0.51515,66.102
0.49267,65.711
0.47214,65.124
0.45357,64.537
0.43597,64.146
0.42131,63.559
0.40762,62.973
0.39687,62.582
0.3871,61.995
0.37928,61.408
0.37341,61.017
0.36755,60.43
0.36266,59.844
0.35777,59.452
0.35288,59.061
0.34897,58.67
0.34506,58.866
0.34213,59.257
0.33822,60.626
0.33529,63.364
0.33138,68.449
0.32845,75.88
0.32649,84.876
0.32356,94.263
0.31965,102.87
0.31672,110.89
0.31281,117.73
0.3089,123.01
0.30499,126.92
0.30205,129.27
0.29814,130.25
0.29521,130.25
0.2913,129.27
0.28837,127.71
0.28543,125.75
0.28348,123.4
0.28055,120.86
0.27761,118.12
0.27468,114.99
0.27175,111.67
0.26882,108.15
0.26588,104.24
0.26197,99.935
0.25904,95.632
0.25611,91.525
0.2522,87.614
0.25024,84.094
0.24829,81.356
0.24633,79.009
0.24536,77.249
0.24927,76.076
0.25806,75.098
0.27468,74.511
0.3001,74.12
0.33333,73.924
0.37341,73.729
0.41838,73.729
0.46628,73.729
0.51222,73.533
0.55132,73.533
0.5826,73.533
0.61388,73.533
0.64223,73.338
0.66471,72.947
0.68133,72.751
0.69404,72.36
0.70088,71.969
0.70283,71.578
0.70186,70.991
0.69697,70.6
0.68817,70.013
0.67742,69.426
0.66569,68.84
0.65005,68.253
0.63148,67.666
0.61193,67.275
0.58944,66.688
0.56696,66.102
0.54252,65.711
0.51906,65.319
0.49658,64.733
0.47507,64.342
0.4565,63.755
0.43891,63.364
0.42522,62.777
0.41447,62.386
0.40371,61.799
0.39394,61.408
0.38514,61.017
0.3783,60.43
0.37146,60.039
0.36657,59.648
0.36168,59.257
0.35679,58.866
0.35288,58.475
0.34897,58.475
0.34702,58.67
0.34409,59.844
0.34115,62.19
0.33724,66.688
0.33431,73.533
0.3304,82.334
0.32649,91.917
0.32258,100.91
0.31867,109.32
0.31476,116.56
0.31085,122.62
0.30694,127.12
0.30303,129.86
0.30108,131.42
0.29814,131.81
0.29521,131.23
0.29228,129.86
0.28935,127.9
0.28543,125.75
0.2825,123.4
0.27957,120.67
0.27566,117.73
0.27273,114.6
0.26979,111.28
0.26588,107.56
0.26393,103.46
0.26295,99.348
0.261,95.046
0.72532,72.36
0.71945,71.773
0.7087,71.186
0.69501,70.6
0.67742,70.209
0.65787,69.622
0.63636,69.231
0.6129,68.84
0.58944,68.253
0.56598,67.862
0.54448,67.275
0.5259,66.884
0.50733,66.297
0.48876,65.906
0.47214,65.319
0.45748,64.928
0.44477,64.342
0.43402,63.95
0.42424,63.364
0.4174,62.973
0.41056,62.386
0.40567,61.995
0.40176,61.408
0.39883,61.017
0.39589,60.821
0.39296,60.626
0.39003,60.626
0.3871,61.408
0.38416,63.559
0.38025,67.666
0.37732,74.316
0.37439,83.116
0.37048,92.699
0.36755,102.28
0.36364,110.89
0.36168,118.71
0.35875,125.16
0.35582,130.05
0.35288,132.99
0.34995,134.55
0.34604,134.94
0.34311,134.35
0.34018,132.99
0.33724,131.03
0.33333,128.88
0.3304,126.34
0.32747,123.99
0.32454,121.25
0.32356,118.32
0.32063,115.19
0.31769,111.86
0.31476,108.34
0.31183,104.43
0.3089,100.13
0.30499,96.024
0.30205,92.112
0.29814,88.592
0.29521,85.658
0.29423,83.312
0.29717,81.16
0.30303,79.791
0.31476,78.422
0.33431,77.64
0.36266,77.054
0.3998,76.662
0.44282,76.467
0.48974,76.467
0.53763,76.271
0.58456,76.271
0.62757,76.076
0.66471,75.88
0.69599,75.685
0.71848,75.489
0.73314,75.293
0.74585,74.902
0.75367,74.316
0.75855,73.924
0.75855,73.338
0.75562,72.751
0.74878,72.164
0.73998,71.578
0.72825,70.991
0.71359,70.404
0.69697,69.818
0.67937,69.231
0.66178,68.84
0.64125,68.253
0.61877,67.862
0.59531,67.275
0.57185,66.884
0.54936,66.297
0.52688,65.906
0.50635,65.319
0.48778,64.733
0.47116,64.146
0.4565,63.559
0.44282,62.973
0.43304,62.582
0.42522,61.995
0.4174,61.408
0.40958,61.017
0.40371,60.43
0.39785,59.844
0.39198,59.648
0.3871,59.257
0.38221,59.061
0.37732,59.452
0.37243,60.626
0.36755,63.364
0.36364,68.449
0.3607,76.076
0.35582,85.463
0.35191,95.241
0.34702,104.82
0.34213,113.43
0.33724,120.67
0.33236,126.53
0.32845,130.64
0.32356,133.18
0.31965,134.35
0.31574,134.35
0.31183,133.38
0.3089,131.62
0.30596,129.66
0.30303,127.31
0.29912,124.97
0.29521,122.23
0.2913,119.49
0.28739,116.36
0.28348,112.84
0.27957,109.32
0.27566,105.41
0.27175,101.3
0.26784,97.001
0.26491,92.699
0.26295,88.983
0.25904,85.463
0.25611,82.725
0.25513,80.378
0.25709,78.422
0.26491,77.054
0.28055,76.076
0.30596,75.489
0.3392,75.098
0.38123,74.707
0.42815,74.511
0.47801,74.511
0.52102,74.511
0.55914,74.511
0.59824,74.511
0.63441,74.316
0.66569,74.316
0.69013,74.12
0.7087,73.729
0.72141,73.533
0.72923,73.142
0.73216,72.555
0.73118,71.969
0.72727,71.382
0.71945,70.795
0.70968,70.209
0.69795,69.622
0.68328,69.035
0.66569,68.449
0.64614,67.862
0.62561,67.471
0.60215,66.884
0.57869,66.493
0.55425,65.906
0.53079,65.515
0.50733,64.928
0.48583,64.537
0.46725,63.95
0.45259,63.364
0.43793,62.777
0.42326,62.19
0.41153,61.604
0.40078,61.213
0.39198,60.626
0.38416,60.235
0.37732,59.648
0.37146,59.257
0.36657,58.67
0.36266,58.279
0.35875,58.083
0.35679,57.888
0.35288,58.083
0.34995,58.67
0.34604,60.626
0.34213,64.537
0.33822,70.991
0.33431,79.4
0.3304,88.788
0.32551,97.979
0.3216,106.39
0.31769,113.82
0.31378,120.08
0.31085,124.77
0.30792,127.9
0.30499,129.47
0.30108,129.86
0.29814,129.27
0.29423,127.71
0.29032,125.75
0.28739,123.6
0.28348,121.06
0.27957,118.32
0.27664,115.38
0.27273,112.26
0.27077,108.74
0.26882,105.02
0.26588,101.11
0.26295,97.001
0.26002,92.699
0.25611,88.788
0.25318,85.267
0.24927,82.138
0.24536,79.596
0.24438,77.445
0.24536,75.88
0.2522,74.707
0.26588,73.729
0.28348,73.142
0.30792,72.947
0.34115,72.751
0.38319,72.555
0.43011,72.555
0.47996,72.555
0.52786,72.555
0.57283,72.36
0.6129,72.36
0.64614,72.36
0.67253,72.164
0.69306,72.164
0.70577,71.773
0.71261,71.382
0.71652,70.991
0.7175,70.6
0.71457,70.013
0.7087,69.426
0.69892,69.035
0.68622,68.449
0.67155,67.862
0.65298,67.275
0.63343,66.884
0.61095,66.297
0.58847,65.906
0.56696,65.319
0.54643,64.733
0.52395,64.342
0.50244,63.755
0.48094,63.168
0.46139,62.777
0.44379,62.19
0.42815,61.799
0.41544,61.213
0.40469,60.626
0.39492,60.235
0.3871,59.648
0.38123,59.257
0.37732,58.67
0.37243,58.279
0.36755,57.888
0.36364,57.497
0.3607,57.106
0.35679,56.91
0.35386,57.106
0.35093,57.888
0.348,59.648
0.34506,63.168
0.34213,69.231
0.33822,77.249
0.33627,86.245
0.33333,95.241
0.3304,103.65
0.32747,111.08
0.32356,117.14
0.32063,122.03
0.31672,125.16
0.31378,126.92
0.30987,127.51
0.30694,126.92
0.30303,125.55
0.3001,123.79
0.29814,121.64
0.29619,119.1
0.29326,116.36
0.29032,113.62
0.28739,110.3
0.28446,106.98
0.28152,103.06
0.27859,99.153
0.27566,95.046
0.27175,90.743
0.26882,86.832
0.26588,83.312
0.26197,80.378
0.26002,78.031
0.25904,76.076
0.26002,74.511
0.26393,73.533
0.2737,72.751
0.2913,72.164
0.31769,71.969
0.35191,71.773
0.39198,71.578
0.43695,71.578
0.48387,71.578
0.52981,71.578
0.56794,71.578
0.59922,71.578
0.62952,71.578
0.65591,71.382
0.67742,71.186
0.69306,70.795
0.70381,70.6
0.70968,70.209
0.71065,69.622
0.7087,69.231
0.70283,68.644
0.69306,68.057
0.68231,67.471
0.6696,67.08
0.65396,66.493
0.63539,65.906
0.61486,65.515
0.59238,64.928
0.56989,64.537
0.54643,64.146
0.52395,63.559
0.50244,62.973
0.48192,62.582
0.46334,62.19
0.44673,61.604
0.43402,61.213
0.42326,60.626
0.41349,60.039
0.40371,59.648
0.39589,59.061
0.38905,58.67
0.38319,58.279
0.37732,57.692
0.37341,57.301
0.3695,56.91
0.36559,56.519
0.36266,56.323
0.35973,56.519
0.35777,57.106
0.35484,59.061
0.35191,62.777
0.34897,68.84
0.34604,77.054
0.34213,86.245
0.33822,95.241
0.33431,103.46
0.33138,110.69
0.32747,116.95
0.32356,121.64
0.32063,124.77
0.31769,126.53
0.31574,127.12
0.31281,126.73
0.30987,125.55
0.30596,123.79
0.30303,121.64
0.3001,119.3
0.29619,116.56
0.29326,113.82
0.29032,110.69
0.28641,107.37
0.28348,103.85
0.28152,99.935
0.27957,95.828
0.27761,91.721
0.27468,87.81
0.27077,84.289
0.26784,81.16
0.26393,78.814
0.26197,76.662
0.26295,75.098
0.26784,73.924
0.27859,73.142
0.29814,72.555
0.32551,72.164
0.35484,71.969
0.38807,71.969
0.42913,71.969
0.47507,71.969
0.52102,71.773
0.565,71.773
0.60411,71.773
0.63832,71.773
0.66569,71.773
0.68817,71.578
0.70381,71.382
0.71457,70.991
0.71848,70.6
0.71945,70.209
0.7175,69.818
0.71261,69.231
0.70479,68.84
0.69306,68.253
0.67937,67.666
0.66373,67.275
0.64516,66.688
0.62463,66.297
0.60215,65.906
0.57869,65.319
0.55621,64.928
0.53568,64.537
0.51711,64.146
0.49756,63.559
0.47898,63.168
0.46237,62.777
0.44673,62.19
0.43304,61.799
0.42229,61.213
0.41153,60.821
0.40371,60.43
0.39589,59.844
0.39003,59.452
0.38514,59.061
0.38221,58.67
0.3783,58.279
0.37537,58.083
0.37146,57.888
0.36852,58.083
0.36461,59.061
0.36168,61.408
0.35875,65.711
0.35484,72.555
0.35191,81.16
0.348,90.548
0.34506,99.544
0.34213,107.76
0.34018,114.99
0.33724,121.06
0.33431,125.36
0.33138,128.1
0.32845,129.66
0.32551,129.86
0.32258,129.27
0.31965,127.9
0.31672,125.95
0.31378,123.79
0.31085,121.45
0.30792,118.9
0.30694,116.17
0.30499,113.23
0.30205,109.91
0.3001,106.39
0.29717,102.48
0.29521,98.566
0.29228,94.459
0.28935,90.352
0.28641,86.832
0.28348,83.898
0.28152,81.356
0.28055,79.205
0.2825,77.64
0.28837,76.662
0.29912,75.685
0.31867,75.293
0.34506,74.902
0.38025,74.902
0.42229,74.902
0.46823,74.902
0.51515,74.902
0.56109,75.098
0.60411,75.098
0.64125,74.902
0.66862,74.902
0.68915,74.511
0.70772,74.12
0.72239,73.729
0.73216,73.338
0.73803,72.751
0.73998,72.164
0.73803,71.382
0.73314,70.795
0.72434,70.013
0.71359,69.426
0.6999,68.84
0.68328,68.253
0.66667,67.666
0.65005,67.08
0.62952,66.688
0.60802,66.102
0.58553,65.711
0.56403,65.319
0.54252,64.733
0.52199,64.342
0.5044,63.755
0.48778,63.364
0.47312,62.777
0.46041,62.19
0.45064,61.604
0.44282,61.213
0.43597,60.626
0.43011,60.039
0.42424,59.648
0.41935,59.061
0.41544,58.67
0.41056,58.279
0.40665,57.888
0.40371,57.692
0.3998,57.888
0.39589,58.866
0.39198,61.408
0.38807,66.297
0.38514,73.729
0.38025,82.921
0.37439,92.503
0.3695,101.69
0.36461,109.91
0.35973,117.14
0.35484,123.01
0.34995,127.12
0.34604,129.66
0.34115,130.83
0.33724,130.83
0.33431,130.05
0.33138,128.49
0.32747,126.53
0.32356,124.19
0.31965,121.84
0.31574,119.3
0.31183,116.56
0.30792,113.43
0.30401,110.3
0.29912,106.78
0.29521,103.06
0.2913,98.957
0.28837,94.85
0.28543,90.939
0.2825,87.223
0.27761,83.898
0.2737,81.16
0.27175,79.009
0.27175,77.249
0.27761,75.88
0.29032,74.902
0.31183,74.316
0.34115,73.729
0.37928,73.533
0.42326,73.533
0.46432,73.533
0.50342,73.338
0.54545,73.338
0.58651,73.338
0.62366,73.142
0.65591,73.142
0.68133,72.751
0.6999,72.555
0.71359,72.164
0.72239,71.773
0.7263,71.382
0.7263,70.795
0.72239,70.209
0.71554,69.622
0.70674,69.035
0.69599,68.644
0.68231,68.057
0.66569,67.471
0.64712,66.884
0.62659,66.493
0.60508,65.906
0.58162,65.515
0.55816,65.124
0.5347,64.537
0.51222,64.146
0.49267,63.559
0.47605,62.973
0.45943,62.582
0.44379,61.995
0.43011,61.408
0.4174,60.821
0.40665,60.235
0.39785,59.844
0.39003,59.257
0.38416,58.866
0.3783,58.475
0.37341,58.083
0.3695,57.497
0.36657,57.106
0.36266,56.91
0.35973,57.106
0.35582,57.692
0.35191,59.452
0.348,62.973
0.34409,69.035
0.34018,77.249
0.33627,86.636
0.33236,96.024
0.32845,104.63
0.32356,112.06
0.32063,118.51
0.31867,123.4
0.31476,126.53
0.31183,128.29
0.30792,128.88
0.30499,128.49
0.30108,127.12
0.29814,125.36
0.29521,123.21
0.2913,120.67
0.28739,118.12
0.28446,115.19
0.28152,112.26
0.27957,108.93
0.27664,105.22
0.2737,101.3
0.26979,97.197
0.26686,93.09
0.26295,89.179
0.26002,85.463
0.25611,82.334
0.2522,79.596
0.25024,77.445
0.25024,75.685
0.25415,74.511
0.26295,73.533
0.27664,72.947
0.3001,72.555
0.33138,72.164
0.37146,72.164
0.41642,71.969
0.46432,71.969
0.51222,71.969
0.55718,71.969
0.59824,71.969
0.63343,71.773
0.66178,71.773
0.68133,71.578
0.69404,71.186
0.70381,70.991
0.71065,70.6
0.71359,70.013
0.71261,69.622
0.70772,69.035
0.6999,68.449
0.68915,67.862
0.67546,67.471
0.65885,66.884
0.64027,66.297
0.61975,65.906
0.6002,65.319
0.58065,64.928
0.55816,64.537
0.53666,63.95
0.51417,63.364
0.49267,62.973
0.47214,62.386
0.45455,61.995
0.43793,61.408
0.42424,60.821
0.41153,60.43
0.40078,59.844
0.39296,59.452
0.38612,58.866
0.38025,58.475
0.37439,58.083
0.3695,57.497
0.36461,57.106
0.3607,56.715
0.35777,56.519
0.35386,56.323
0.35093,56.715
0.348,57.692
0.34409,60.039
0.34115,64.537
0.33822,71.382
0.33529,79.596
0.33236,88.592
0.32845,97.001
0.32454,104.63
0.32063,111.28
0.31672,116.75
0.31281,120.86
0.3089,123.4
0.30596,124.58
0.30205,124.58
0.29814,123.79
0.29619,122.23
0.29423,120.08
0.2913,117.73
0.28837,114.99
0.28543,112.06
0.2825,108.93
0.27859,105.61
0.27566,102.09
0.27175,97.979
0.26882,94.068
0.26588,89.961
0.26295,86.05
0.25904,82.529
0.25709,79.596
0.25513,77.249
0.25318,75.098
0.25122,73.729
0.2522,72.555
0.25709,71.773
0.26882,71.186
0.28837,70.991
0.31574,70.795
0.35093,70.795
0.39296,70.795
0.43793,70.795
0.47898,70.795
0.51515,70.795
0.55425,70.795
0.59042,70.6
0.62268,70.6
0.64907,70.404
0.6696,70.209
0.68426,69.818
0.69404,69.426
0.69795,69.035
0.69892,68.644
0.69501,68.057
0.68817,67.471
0.67937,67.08
0.66764,66.493
0.65298,65.906
0.63539,65.515
0.61584,64.928
0.59433,64.537
0.57185,64.146
0.54936,63.755
0.52688,63.168
0.5044,62.777
0.48387,62.386
0.4653,61.799
0.44966,61.408
0.43695,60.821
0.42424,60.235
0.41349,59.844
0.40274,59.257
0.39394,58.866
0.3871,58.475
0.38025,57.888
0.37537,57.497
0.37048,56.91
0.36657,56.519
0.36266,56.323
0.35973,55.932
0.35679,55.932
0.35484,56.128
0.35191,57.106
0.34897,59.452
0.34604,63.755
0.34311,70.404
0.3392,78.814
0.33529,87.614
0.33236,96.219
0.32845,104.04
0.32454,110.89
0.3216,116.56
0.31867,120.86
0.31672,123.4
0.31378,124.77
0.31085,125.16
0.30694,124.58
0.30401,123.21
0.30108,121.25
0.29814,119.1
0.29423,116.56
0.29228,113.82
0.28935,110.69
0.28739,107.56
0.28543,104.04
0.28348,100.13
0.28055,96.219
0.27859,92.112
0.27468,88.005
0.27175,84.289
0.26882,81.16
0.26491,78.422
0.261,76.271
0.25904,74.511
0.26002,73.338
0.26588,72.36
0.27859,71.773
0.29521,71.186
0.31769,70.991
0.34995,70.991
0.39003,70.795
0.43597,70.991
0.48387,70.991
0.53177,70.991
0.57674,70.991
0.61681,70.991
0.652,70.991
0.68035,70.795
0.70186,70.6
0.71652,70.404
0.72434,70.013
0.73021,69.818
0.73216,69.231
0.73021,68.84
0.72532,68.449
0.71652,67.862
0.70381,67.471
0.68915,66.884
0.67058,66.493
0.65103,66.102
0.62854,65.515
0.60508,65.124
0.58456,64.733
0.56403,64.342
0.54252,63.95
0.52102,63.559
0.49951,62.973
0.48094,62.582
0.46334,61.995
0.4477,61.604
0.435,61.213
0.42326,60.626
0.41349,60.235
0.40567,59.844
0.39883,59.452
0.39394,58.866
0.38905,58.475
0.38514,58.083
0.38123,57.692
0.37732,57.497
0.37341,57.497
0.3695,57.888
0.36657,59.061
0.36266,61.604
0.35973,66.493
0.35582,73.729
0.35191,82.334
0.34897,91.134
0.34702,99.739
0.34409,107.37
0.34115,114.21
0.33724,119.69
0.33431,123.6
0.3304,125.95
0.32747,127.12
0.32356,127.31
0.32063,126.34
0.31769,124.97
0.31378,122.82
0.31183,120.67
0.31085,118.12
0.30792,115.38
0.30499,112.45
0.30205,109.32
0.29912,106
0.29717,102.28
0.29423,98.37
0.2913,94.459
0.28837,90.352
0.28543,86.832
0.2825,83.703
0.27957,81.16
0.27761,79.009
0.27761,77.249
0.27859,75.88
0.28446,75.098
0.29717,74.511
0.31672,74.12
0.34506,73.924
0.38123,73.924
0.42424,73.924
0.47116,73.924
0.51906,74.12
0.56598,74.12
0.60411,74.12
0.63539,74.12
0.66569,73.924
0.69208,73.729
0.71359,73.338
0.72923,72.947
0.73998,72.555
0.74682,72.164
0.7478,71.773
0.74585,71.186
0.73998,70.6
0.73118,70.209
0.71945,69.622
0.70577,69.035
0.6911,68.644
0.67351,68.253
0.65298,67.666
0.63148,67.275
0.60899,66.884
0.58651,66.297
0.56403,65.906
0.5435,65.319
0.52395,64.733
0.50538,64.342
0.48974,63.755
0.47703,63.168
0.46628,62.582
0.4565,61.799
0.4477,61.213
0.43988,60.626
0.43402,60.235
0.42815,59.648
0.42326,59.257
0.41935,58.67
0.41544,58.279
0.41153,58.279
0.40762,58.279
0.40469,58.866
0.40176,60.821
0.39883,64.537
0.39589,70.795
0.39198,79.205
0.38807,88.592
0.38416,97.979
0.38025,106.58
0.37634,114.21
0.37243,120.67
0.36852,125.55
0.36461,128.68
0.3607,130.44
0.35777,131.03
0.35582,130.64
0.35288,129.47
0.34897,127.71
0.34604,125.75
0.34213,123.4
0.33822,121.06
0.33431,118.51
0.32942,115.58
0.32551,112.65
0.3216,109.13
0.31769,105.61
0.31378,101.5
0.31085,97.393
0.3089,93.286
0.30596,89.374
0.30205,85.854
0.29814,83.116
0.29423,80.574
0.29326,78.618
0.29521,77.249
0.30401,76.076
0.31965,75.293
0.34506,74.902
0.3783,74.511
0.41251,74.316
0.44868,74.316
0.49267,74.316
0.53861,74.316
0.58358,74.12
0.62463,74.12
0.65982,73.924
0.68915,73.729
0.71261,73.533
0.73021,73.338
0.74194,72.947
0.74878,72.555
0.75171,71.969
0.74976,71.382
0.74487,70.795
0.73803,70.209
0.72825,69.622
0.71652,69.035
0.70088,68.644
0.68426,68.057
0.66373,67.471
0.64223,66.884
0.61975,66.493
0.59629,65.906
0.57185,65.515
0.55132,65.124
0.53177,64.537
0.51222,63.95
0.49365,63.559
0.47605,62.973
0.45943,62.386
0.44575,61.799
0.43402,61.213
0.42326,60.821
0.41447,60.235
0.40665,59.844
0.3998,59.257
0.39394,58.866
0.38905,58.279
0.38514,58.083
0.38123,57.888
0.37732,57.888
0.37341,58.279
0.3695,59.648
0.36559,62.777
0.36168,68.253
0.35679,76.076
0.35288,85.267
0.348,94.655
0.34311,103.46
0.34018,111.28
0.33724,117.93
0.33333,123.01
0.32942,126.53
0.32551,128.68
0.3216,129.66
0.31769,129.47
0.31378,128.49
0.30987,126.73
0.30596,124.58
0.30303,122.23
0.29912,119.69
0.29619,116.95
0.29423,114.02
0.2913,110.69
0.28837,107.17
0.28543,103.26
0.28152,99.348
0.27761,95.046
0.27468,91.134
0.27077,87.223
0.26686,83.898
0.26295,81.16
0.26002,78.814
0.25904,77.054
0.261,75.685
0.26686,74.707
0.27859,73.924
0.29717,73.533
0.32454,73.338
0.3607,73.142
0.40371,73.142
0.45064,72.947
0.49951,72.947
0.54643,72.947
0.58944,72.947
0.62757,72.751
0.65494,72.751
0.67644,72.555
0.69404,72.164
0.70772,71.773
0.7175,71.382
0.72239,70.991
0.72239,70.6
0.71945,70.013
0.71261,69.426
0.70283,68.84
0.6911,68.253
0.67546,67.666
0.65787,67.275
0.6393,66.688
0.6217,66.297
0.6002,65.711
0.57771,65.319
0.55425,64.733
0.53079,64.342
0.50831,63.755
0.4868,63.364
0.46823,62.777
0.45064,62.19
0.43597,61.799
0.42229,61.213
0.41251,60.626
0.40371,60.039
0.39589,59.648
0.38905,59.257
0.38221,58.67
0.37634,58.279
0.37146,57.888
0.36657,57.497
0.36266,57.106
0.35875,57.106
0.35484,57.497
0.35191,58.475
0.348,60.821
0.34506,64.928
0.34213,71.578
0.3392,79.987
0.33529,88.983
0.33138,97.588
0.32747,105.41
0.32356,112.26
0.31965,117.93
0.31574,122.23
0.31183,124.77
0.30792,126.14
0.30401,126.34
0.30108,125.55
0.29912,123.99
0.29619,122.03
0.29326,119.49
0.29032,116.95
0.28641,114.21
0.28348,111.28
0.27957,107.95
0.27566,104.43
0.27273,100.52
0.26882,96.415
0.26588,92.308
0.26295,88.396
0.261,84.681
0.25904,81.552
0.25611,79.009
0.25318,76.858
0.25122,75.293
0.25122,73.924
0.25513,73.142
0.26588,72.555
0.28348,72.164
0.30987,71.969
0.34409,71.969
0.38612,71.969
0.42522,71.969
0.46432,71.969
0.50831,71.969
0.55132,71.969
0.59238,71.773
0.62757,71.773
0.65689,71.578
0.67937,71.382
0.69697,70.991
0.70772,70.6
0.71457,70.209
0.71554,69.622
0.71359,69.231
0.70772,68.644
0.69892,68.253
0.68817,67.666
0.67351,67.275
0.65591,66.688
0.63734,66.102
0.61584,65.711
0.59335,65.124
0.56989,64.733
0.54643,64.342
0.52297,63.755
0.50147,63.364
0.48289,62.777
0.46725,62.19
0.45161,61.799
0.43695,61.213
0.42424,60.821
0.41349,60.235
0.40371,59.844
0.39492,59.257
0.38807,58.866
0.38221,58.279
0.37732,57.888
0.37243,57.497
0.36852,57.106
0.36559,56.91
0.36364,56.91
0.3607,57.301
0.35777,58.475
0.35386,61.213
0.35093,66.102
0.34702,73.338
0.34311,81.747
0.34018,90.548
0.33627,98.957
0.33236,106.39
0.32845,113.04
0.32551,118.12
0.32258,122.03
0.31965,124.19
0.31672,125.36
0.31281,125.16
0.30987,124.19
0.30596,122.62
0.30303,120.86
0.29912,118.51
0.29619,115.97
0.29228,113.23
0.28935,110.3
0.28641,106.98
0.28348,103.26
0.28152,99.544
0.27957,95.241
0.27664,91.134
0.27273,87.223
0.26979,83.703
0.26588,80.769
0.26197,78.227
0.25904,76.467
0.25709,74.902
0.25904,73.729
0.26491,72.947
0.27566,72.36
0.2913,72.164
0.31574,72.164
0.34897,72.164
0.39003,72.164
0.435,72.164
0.48289,72.164
0.52981,72.164
0.57478,72.164
0.61388,72.164
0.64712,72.164
0.67449,72.164
0.69599,71.773
0.7087,71.578
0.71652,71.186
0.72141,70.6
0.72239,70.209
0.72043,69.818
0.71457,69.426
0.70577,68.84
0.69306,68.449
0.67742,67.862
0.65982,67.471
0.6393,66.884
0.61779,66.493
0.59629,66.102
0.57674,65.711
0.55425,65.124
0.53177,64.733
0.51026,64.342
0.48974,63.755
0.47116,63.364
0.45455,62.973
0.43988,62.386
0.42815,61.995
0.4174,61.408
0.40762,61.017
0.40176,60.626
0.39589,60.235
0.39101,59.844
0.38612,59.452
0.38221,59.061
0.3783,58.866
0.37537,58.67
0.37146,58.866
0.36852,59.844
0.36559,62.19
0.36266,66.688
0.35973,73.338
0.35679,81.747
0.35386,90.939
0.35191,99.739
0.34897,107.76
0.34506,114.8
0.34213,120.86
0.33822,125.16
0.33529,127.9
0.33138,129.47
0.32845,129.66
0.32551,128.88
0.3216,127.51
0.31867,125.75
0.31672,123.6
0.31476,121.25
0.31281,118.71
0.30987,115.97
0.30694,112.84
0.30401,109.71
0.30108,106.19
0.29814,102.28
0.29521,98.37
0.29326,94.263
0.29032,90.548
0.28739,87.223
0.28446,84.289
0.2825,81.943
0.2825,79.987
0.2825,78.618
0.28641,77.64
0.29619,76.858
0.31281,76.271
0.33822,76.076
0.37146,75.88
0.41153,75.88
0.45748,75.88
0.50635,76.076
0.55425,76.076
0.59433,76.076
0.62757,76.076
0.65982,75.88
0.68915,75.685
0.71359,75.293
0.73216,74.902
0.74487,74.316
0.75367,73.729
0.7566,73.142
0.7566,72.36
0.74878,71.773
0.73705,71.186
0.72434,70.6
0.71163,69.818
0.69697,69.426
0.68035,68.84
0.6608,68.253
0.64027,67.862
0.61877,67.471
0.59629,66.884
0.57478,66.493
0.55327,65.906
0.53275,65.515
0.51417,64.928
0.49658,64.342
0.48289,63.755
0.47116,63.168
0.46041,62.582
0.45064,61.995
0.44282,61.604
0.43597,61.017
0.42913,60.43
0.42424,60.039
0.41935,59.648
0.41544,59.257
0.41153,59.061
0.40762,59.061
0.40371,59.844
0.40078,61.799
0.39687,65.906
0.39198,72.36
0.38905,80.965
0.38514,90.352
0.38123,99.544
0.37634,108.34
0.37146,115.97
0.36657,122.23
0.36266,126.92
0.35777,129.86
0.35288,131.42
0.34995,131.81
0.34702,131.42
0.34311,130.05
0.3392,128.29
0.33529,126.14
0.33138,123.79
0.32649,121.25
0.32258,118.71
0.31867,115.78
0.31378,112.65
0.30987,109.13
0.30499,105.41
0.30108,101.5
0.29717,97.393
0.29521,93.286
0.2913,89.374
0.28739,86.05
0.2825,83.312
0.27957,80.965
0.27761,79.205
0.27957,77.836
0.28641,76.662
0.30108,75.88
0.32454,75.489
0.35679,75.098
0.38905,74.902
0.42424,74.902
0.46725,74.902
0.51222,74.707
0.55718,74.707
0.59824,74.511
0.63441,74.511
0.66471,74.316
0.68817,74.12
0.70577,73.729
0.7175,73.338
0.72434,72.751
0.72727,72.36
0.72532,71.773
0.72043,71.186
0.71359,70.6
0.70381,70.013
0.69208,69.622
0.67742,69.035
0.6608,68.644
0.64125,68.057
0.62072,67.471
0.59824,67.08
0.57576,66.493
0.5523,65.906
0.53177,65.515
0.5132,64.928
0.49365,64.342
0.47507,63.95
0.45846,63.364
0.44282,62.777
0.42913,62.19
0.4174,61.604
0.40762,61.213
0.39883,60.626
0.39101,60.235
0.38514,59.844
0.37928,59.257
0.37537,58.866
0.37146,58.67
0.36755,58.475
0.36461,58.67
0.3607,59.648
0.35679,61.799
0.35288,66.297
0.34897,73.142
0.34409,81.747
0.34018,91.33
0.33627,100.52
0.33236,108.74
0.32942,116.17
0.32649,122.23
0.32356,126.53
0.31965,129.07
0.31672,130.64
0.31281,130.83
0.3089,130.05
0.30596,128.68
0.30205,126.73
0.29912,124.38
0.29521,122.03
0.2913,119.3
0.28837,116.36
0.28543,113.23
0.28348,109.91
0.28055,106.19
0.27664,102.28
0.2737,98.175
0.27077,94.068
0.26686,89.961
0.26295,86.245
0.26002,82.921
0.25611,80.378
0.25415,78.422
0.25415,76.858
0.25709,75.685
0.26491,74.902
0.27859,74.316
0.30205,73.924
0.33333,73.729
0.37243,73.729
0.41642,73.729
0.46432,73.729
0.51222,73.729
0.55816,73.729
0.59922,73.533
0.63441,73.533
0.66276,73.338
0.68328,73.142
0.69599,72.751
0.70674,72.555
0.71359,72.164
0.71457,71.773
0.71359,71.186
0.70968,70.6
0.70283,70.013
0.68817,69.426
0.67253,69.035
0.65982,68.449
0.64321,67.862
0.62561,67.275
0.60704,66.688
0.58651,66.297
0.56403,65.711
0.54057,65.319
0.51711,64.733
0.4956,64.146
0.47507,63.559
0.4565,63.168
0.43988,62.582
0.42522,61.995
0.41251,61.604
0.40371,61.017
0.39589,60.626
0.38905,60.039
0.38221,59.648
0.37634,59.061
0.37146,58.475
0.36657,58.279
0.36266,58.083
0.35875,58.083
0.35582,58.475
0.35191,59.648
0.34897,62.19
0.34506,66.884
0.34311,73.924
0.34018,82.529
0.33724,91.525
0.33431,99.935
0.3304,107.76
0.32747,114.6
0.32356,120.08
0.31965,123.99
0.31574,126.53
0.31183,127.51
0.3089,127.71
0.30499,126.73
0.30205,125.16
0.3001,123.01
0.29717,120.67
0.29423,118.12
0.29032,115.38
0.28739,112.26
0.28348,108.93
0.28055,105.41
0.27664,101.5
0.2737,97.393
0.26979,93.286
0.26686,89.179
0.26393,85.658
0.261,82.529
0.25904,79.791
0.25611,77.836
0.25415,76.076
0.25415,74.902
0.25806,73.924
0.26784,73.533
0.28446,73.142
0.30987,72.947
0.34311,72.751
0.38319,72.751
0.42815,72.751
0.46921,72.751
0.50733,72.751
0.54741,72.751
0.58651,72.555
0.6217,72.555
0.65005,72.164
0.67351,72.164
0.69013,71.773
0.70186,71.382
0.7087,70.991
0.70968,70.6
0.70772,70.013
0.70186,69.426
0.69404,69.035
0.68328,68.449
0.6696,67.862
0.65298,67.471
0.63441,66.884
0.61388,66.297
0.5914,65.906
0.56794,65.319
0.54448,64.928
0.52199,64.537
0.50049,63.95
0.47996,63.364
0.46334,62.973
0.44966,62.386
0.43597,61.799
0.42326,61.408
0.41251,60.821
0.40469,60.43
0.39687,59.844
0.39003,59.452
0.38416,58.866
0.3783,58.475
0.37439,58.083
0.37048,57.888
0.36657,57.692
0.36364,58.083
0.3607,58.866
0.35777,61.213
0.35484,65.319
0.35191,71.969
0.348,80.378
0.34506,89.57
0.34115,98.37
0.33724,106.58
0.33333,113.62
0.32942,119.49
0.32649,123.99
0.32356,126.92
0.32063,128.49
0.31769,128.88
0.31476,128.29
0.30987,126.73
0.30596,124.97
0.30303,122.82
0.3001,120.47
0.29521,117.93
0.2913,114.99
0.28837,111.86
0.28543,108.54
0.2825,104.63
0.28055,100.72
0.27859,96.61
0.27566,92.503
0.27273,88.592
0.26882,85.072
0.26588,82.138
0.26197,79.791
0.26002,77.836
0.26002,76.467
0.26295,75.293
0.27175,74.707
0.28837,74.12
0.3089,73.924
0.33529,73.924
0.37243,73.924
0.41642,73.924
0.46432,73.924
0.51417,73.924
0.56207,73.924
0.60704,73.924
0.64516,73.924
0.67742,73.729
0.70577,73.533
0.72727,73.338
0.739,73.142
0.74389,72.751
0.74487,72.36
0.74389,71.773
0.73998,71.382
0.73216,70.795
0.72141,70.404
0.70772,69.818
0.6911,69.426
0.67253,68.84
0.64418,68.449
0.61779,67.862
0.59824,67.471
0.57869,66.884
0.55327,66.493
0.52395,65.906
0.49951,65.515
0.47801,64.928
0.46041,64.537
0.44477,64.146
0.43402,63.559
0.42424,62.973
0.41349,62.582
0.40469,62.19
0.39883,61.604
0.39394,61.213
0.38905,60.821
0.38612,60.43
0.38221,60.039
0.3783,60.039
0.37439,60.43
0.37048,61.408
0.36755,63.95
0.36461,68.644
0.36168,75.685
0.35777,84.485
0.35484,93.677
0.35191,102.67
0.34995,110.89
0.34702,117.93
0.34311,123.79
0.34018,128.1
0.33724,130.64
0.33333,132.01
0.3304,132.2
0.32747,131.62
0.32454,130.25
0.32063,128.49
0.31769,126.34
0.31476,123.99
0.31183,121.64
0.31085,118.9
0.30792,115.97
0.30596,112.84
0.30303,109.32
0.3001,105.41
0.29717,101.3
0.29423,97.197
0.2913,93.09
0.28837,89.57
0.28543,86.441
0.28348,83.898
0.28348,81.747
0.28739,80.183
0.29619,79.009
0.31183,78.031
0.33627,77.64
0.36852,77.249
0.40958,77.249
0.45552,77.054
0.5044,77.054
0.55327,77.054
0.6002,77.249
0.64223,77.054
0.67449,77.054
0.69892,76.858
0.72043,76.662
0.739,76.467
0.75269,75.88
0.76051,75.293
0.76442,74.902
0.76442,74.12
0.76149,73.533
0.75367,72.947
0.74389,72.36
0.73021,71.773
0.71457,70.991
0.69795,70.404
0.68035,70.013
0.65982,69.426
0.63734,69.035
0.61388,68.449
0.59042,67.862
0.56696,67.471
0.54448,66.884
0.52395,66.297
0.50538,65.906
0.48876,65.319
0.4741,64.733
0.46237,64.146
0.45357,63.559
0.44477,62.973
0.43695,62.386
0.43011,61.799
0.42424,61.408
0.41935,61.017
0.41447,60.43
0.40958,60.039
0.40567,60.039
0.40176,60.235
0.39785,61.408
0.39394,64.146
0.39003,69.426
0.3871,77.054
0.38319,86.441
0.3783,96.415
0.37341,105.61
0.36852,114.21
0.36364,121.45
0.35875,127.31
0.35484,131.42
0.34995,134.16
0.34506,135.33
0.34115,135.33
0.33724,134.55
0.33431,132.99
0.33138,131.03
0.32649,128.68
0.32258,126.34
0.31769,123.79
0.31378,121.06
0.3089,117.93
0.30401,114.6
0.3001,111.08
0.29521,107.17
0.2913,103.26
0.28641,98.957
0.28348,94.85
0.28055,90.939
0.27664,87.419
0.27273,84.485
0.27175,82.138
0.2737,80.378
0.2825,79.009
0.3001,77.836
0.32551,77.249
0.3607,76.662
0.40371,76.467
0.45064,76.271
0.49462,76.271
0.53372,76.271
0.57674,76.076
0.61779,76.076
0.65396,76.076
0.68426,75.88
0.70772,75.489
0.72532,75.293
0.73705,74.902
0.74389,74.511
0.74585,74.12
0.74487,73.533
0.739,72.947
0.73118,72.36
0.72141,71.773
0.7087,71.186
0.69306,70.6
0.67546,70.209
0.65591,69.622
0.63343,69.035
0.61095,68.644
0.58651,68.057
0.56207,67.471
0.53763,66.884
0.51417,66.493
0.49462,65.906
0.47801,65.319
0.46041,64.733
0.44477,64.342
0.43109,63.755
0.41838,62.973
0.40762,62.582
0.39785,61.995
0.39003,61.408
0.38319,61.017
0.37732,60.626
0.37243,60.039
0.36755,59.844
0.36461,59.648
0.36168,59.648
0.35777,60.235
0.35386,62.19
0.34995,65.906
0.34604,72.164
0.34213,80.574
0.33822,90.157
0.33333,99.544
0.32942,108.34
0.32258,116.17
0.31574,122.62
0.31085,127.31
0.30694,130.64
0.30401,132.59
0.3001,133.18
0.29717,132.79
0.29326,131.62
0.28935,129.66
0.28543,127.51
0.28152,125.16
0.27761,122.43
0.27468,119.69
0.27077,116.56
0.26686,113.23
0.26491,109.71
0.26295,105.8
0.26002,101.69
0.25709,97.393
0.25415,93.286
0.25024,89.374
0.24633,85.854
0.24242,83.116
0.24047,80.769
0.24242,78.814
0.24829,77.445
0.26197,76.467
0.28055,75.685
0.30401,75.293
0.33822,75.098
0.38025,74.902
0.42717,74.707
0.47605,74.707
0.52395,74.707
0.56794,74.707
0.60704,74.707
0.6393,74.511
0.66569,74.316
0.68524,74.12
0.69892,73.729
0.70674,73.533
0.7087,73.142
0.7087,72.555
0.70577,72.164
0.6999,71.578
0.6911,70.991
0.67937,70.6
0.66471,70.013
0.64712,69.426
0.62757,68.84
0.60606,68.449
0.58358,67.862
0.56207,67.471
0.54252,66.884
0.52004,66.493
0.49853,65.906
0.47703,65.515
0.45748,64.928
0.43891,64.342
0.42326,63.95
0.4086,63.364
0.39687,62.777
0.38612,62.19
0.37732,61.799
0.37048,61.213
0.36461,60.626
0.35973,60.235
0.35582,59.648
0.35191,59.257
0.34702,59.061
0.34409,59.061
0.34018,59.452
0.33627,60.626
0.33333,63.364
0.32942,68.253
0.32551,75.293
0.32258,84.094
0.31965,93.481
0.31672,102.28
0.31378,110.5
0.31085,117.54
0.30694,123.21
0.30303,127.12
0.3001,129.66
0.29619,131.03
0.29326,131.03
0.28935,130.05
0.28641,128.68
0.2825,126.53
0.27957,124.19
0.27761,121.84
0.27566,119.1
0.27273,116.17
0.26979,112.84
0.26686,109.13
0.26393,105.22
0.26002,101.11
0.25709,96.806
0.25318,92.503
0.25024,88.788
0.24633,85.267
0.2434,82.529
0.24145,80.183
0.24145,78.227
0.24438,76.858
0.25318,75.88
0.26784,75.098
0.2913,74.707
0.32356,74.511
0.36266,74.316
0.4086,74.12
0.4565,74.12
0.5044,74.12
0.54936,74.12
0.58651,73.924
0.61486,73.924
0.64223,73.924
0.66569,73.729
0.68328,73.533
0.69599,73.142
0.70381,72.751
0.70674,72.36
0.70674,71.969
0.70186,71.382
0.69404,70.795
0.68328,70.404
0.6696,69.818
0.65396,69.231
0.63832,68.84
0.61877,68.449
0.59726,67.862
0.5738,67.471
0.55034,66.884
0.52688,66.493
0.50342,65.906
0.48192,65.515
0.46139,64.928
0.44379,64.342
0.42717,63.755
0.41447,63.168
0.40469,62.777
0.39492,62.19
0.38612,61.604
0.3783,61.213
0.37146,60.626
0.36559,60.039
0.3607,59.648
0.35582,59.061
0.35191,58.866
0.348,58.67
0.34506,59.061
0.34115,60.039
0.3392,62.386
0.33724,66.884
0.33431,73.533
0.33138,82.138
0.32845,91.525
0.32454,100.72
0.32063,108.93
0.31769,116.36
0.31378,122.43
0.30987,126.73
0.30694,129.66
0.30303,131.03
0.30108,131.42
0.29912,130.83
0.29619,129.47
0.29326,127.51
0.29032,125.36
0.28641,123.01
0.28348,120.47
0.27957,117.54
0.27664,114.41
0.27273,110.69
0.26979,106.98
0.26588,102.87
0.26295,98.566
0.26002,94.263
0.25806,90.157
0.25513,86.636
0.2522,83.507
0.24927,80.965
0.24731,79.009
0.24927,77.249
0.25709,76.076
0.27077,75.293
0.29423,74.707
0.32551,74.316
0.36461,74.12
0.40371,73.924
0.44282,73.924
0.4868,73.924
0.53275,73.924
0.57576,73.924
0.61388,73.924
0.64712,73.924
0.67253,73.924
0.69306,73.729
0.70674,73.533
0.71554,73.142
0.71945,72.947
0.71945,72.36
0.71554,71.969
0.7087,71.578
0.6999,70.991
0.68719,70.404
0.67155,70.013
0.65396,69.426
0.63343,69.035
0.61095,68.449
0.58847,68.057
0.56403,67.471
0.53959,67.08
0.51613,66.688
0.49658,66.102
0.47801,65.711
0.46041,65.124
0.44379,64.537
0.42815,64.146
0.41447,63.755
0.40274,63.168
0.39198,62.777
0.38319,62.19
0.37634,61.604
0.3695,61.213
0.36461,60.821
0.35973,60.43
0.35679,60.039
0.35386,60.039
0.35093,60.235
0.348,61.213
0.34506,63.364
0.34213,67.666
0.33822,74.511
0.33529,83.312
0.33236,92.894
0.32845,102.28
0.32551,110.89
0.3216,118.51
0.31965,124.97
0.31769,129.66
0.31476,132.59
0.31183,134.16
0.3089,134.55
0.30499,133.96
0.30205,132.59
0.29912,130.83
0.29619,128.68
0.29228,126.34
0.28935,123.99
0.28641,121.06
0.28348,118.12
0.28152,114.99
0.27957,111.47
0.27761,107.56
0.27468,103.65
0.27566,99.348
0.27761,95.241
0.27664,91.33
0.2737,88.005
0.27175,85.072
0.27175,82.725
0.27468,80.965
0.2825,79.596
0.29521,78.422
0.31378,77.836
0.34213,77.445
0.37928,77.249
0.42326,77.054
0.47312,77.054
0.52297,77.054
0.57283,77.054
0.61877,77.054
0.65885,77.054
0.69208,76.858
0.71945,76.858
0.73998,76.662
0.75269,76.271
0.75953,75.88
0.76442,75.489
0.7654,75.098
0.76344,74.511
0.75758,73.924
0.74878,73.338
0.73705,72.751
0.72239,72.164
0.70577,71.773
0.68622,71.186
0.66471,70.795
0.64418,70.209
0.62463,69.818
0.60215,69.231
0.57869,68.84
0.55621,68.253
0.5347,67.471
0.51515,66.884
0.49658,66.297
0.48094,65.711
0.46628,65.124
0.45455,64.537
0.44379,63.755
0.435,63.168
0.42913,62.582
0.42326,61.995
0.41838,61.408
0.41447,61.017
0.40958,60.821
0.40665,60.626
0.40274,60.821
0.39883,61.604
0.39492,64.146
0.39198,68.84
0.38807,76.076
0.38416,85.072
0.38025,94.85
0.3783,104.24
0.37439,113.04
0.37048,120.67
0.36755,126.92
0.36364,131.42
0.35973,134.35
0.35582,135.72
0.35191,136.11
0.348,135.33
0.34409,133.96
0.34018,132.01
0.33627,130.05
0.33333,127.71
0.33138,125.16
0.32845,122.43
0.32454,119.49
0.3216,116.56
0.31769,113.04
0.31378,109.32
0.3089,105.41
0.30499,101.11
0.30108,97.001
0.29619,92.894
0.29228,89.179
0.28935,86.05
0.28837,83.507
0.28935,81.356
0.29521,79.791
0.30792,78.422
0.32942,77.64
0.35875,76.858
0.39687,76.662
0.44184,76.271
0.48974,76.076
0.53861,76.076
0.58553,75.88
0.62268,75.88
0.65298,75.685
0.68133,75.489
0.70577,75.293
0.72532,75.098
0.739,74.707
0.7478,74.316
0.75171,73.924
0.75171,73.338
0.7478,72.751
0.74096,72.164
0.73118,71.773
0.71848,71.186
0.70479,70.6
0.69013,70.013
0.67253,69.426
0.652,69.035
0.6305,68.449
0.60704,68.057
0.5826,67.471
0.55816,66.884
0.5347,66.297
0.51124,65.906
0.49071,65.319
0.47116,64.733
0.45455,64.146
0.44184,63.559
0.42913,62.973
0.4174,62.386
0.40762,61.995
0.39883,61.408
0.39101,61.017
0.38416,60.43
0.37732,60.039
0.37243,59.648
0.36755,59.257
0.36266,59.257
0.35875,59.648
0.35484,60.821
0.35191,63.95
0.348,69.622
0.34409,77.64
0.34018,87.223
0.33627,97.001
0.33236,106.39
0.32747,114.99
0.32356,122.23
0.31965,127.71
0.31574,131.62
0.31183,133.96
0.3089,134.94
0.30694,134.75
0.30401,133.57
0.30108,132.01
0.29717,130.05
0.29423,127.71
0.29032,125.16
0.28641,122.62
0.2825,119.69
0.27957,116.56
0.27566,113.23
0.27273,109.52
0.26882,105.41
0.26686,101.3
0.26491,97.001
0.26295,92.699
0.25904,88.983
0.25513,85.658
0.2522,82.725
0.2522,80.574
0.25513,78.618
0.26393,77.249
0.28152,76.467
0.30792,75.685
0.34409,75.293
0.38025,74.902
0.41935,74.707
0.46628,74.707
0.51515,74.511
0.56305,74.316
0.60704,74.316
0.64516,74.12
0.67742,73.924
0.70186,73.729
0.72043,73.533
0.73314,73.338
0.74096,72.947
0.74389,72.36
0.74194,71.969
0.73705,71.382
0.72923,70.991
0.71945,70.404
0.70674,69.818
0.6911,69.231
0.67351,68.84
0.65298,68.253
0.6305,67.666
0.60704,67.275
0.5826,66.688
0.55816,66.297
0.53666,65.711
0.51613,65.124
0.4956,64.537
0.47605,64.146
0.45748,63.559
0.44086,62.973
0.42522,62.386
0.41251,61.799
0.40176,61.408
0.39198,60.821
0.38416,60.235
0.37732,59.844
0.37048,59.257
0.36657,58.866
0.36266,58.475
0.35875,58.279
0.35484,58.279
0.35093,58.866
0.34702,60.43
0.34311,63.755
0.3392,69.426
0.33529,77.249
0.33138,86.441
0.32747,95.632
0.32356,104.24
0.32063,112.06
0.31867,118.51
0.31574,123.6
0.31183,127.12
0.30792,129.27
0.30401,130.05
0.30108,129.86
0.29717,128.68
0.29423,127.12
0.29032,124.97
0.28739,122.43
0.28348,119.88
0.27957,116.95
0.27761,113.82
0.27566,110.5
0.27273,106.78
0.26979,102.87
0.26686,98.566
0.26393,94.459
0.261,90.352
0.25709,86.636
0.25318,83.312
0.25024,80.574
0.24829,78.422
0.24829,76.662
0.2522,75.293
0.26002,74.511
0.27566,73.729
0.3001,73.338
0.33333,73.142
0.37341,72.947
0.42033,72.947
0.47019,72.751
0.51906,72.751
0.56598,72.751
0.60802,72.751
0.64027,72.751
0.66373,72.555
0.68133,72.36
0.69306,72.164
0.70283,71.773
0.7087,71.382
0.71065,70.991
0.70968,70.6
0.70479,70.013
0.69697,69.426
0.68524,69.035
0.67155,68.449
0.65494,67.862
0.63636,67.471
0.61779,66.884
0.59922,66.493
0.57771,65.906
0.55523,65.515
0.53275,64.928
0.51026,64.537
0.48876,63.95
0.46921,63.559
0.45161,62.973
0.435,62.386
0.42131,61.995
0.40958,61.408
0.39883,60.821
0.39101,60.43
0.38514,59.844
0.37928,59.452
0.37341,58.866
0.36852,58.475
0.36461,58.083
0.3607,57.692
0.35777,57.692
0.35386,57.888
0.35093,58.67
0.348,60.821
0.34506,65.124
0.34213,71.969
0.34018,80.378
0.33724,89.765
0.33431,98.761
0.33138,107.17
0.32747,114.6
0.32356,120.67
0.32063,125.16
0.31672,128.29
0.31378,129.86
0.31085,130.25
0.30694,129.47
0.30499,128.1
0.30303,126.14
0.3001,123.99
0.29717,121.45
0.29423,118.71
0.2913,115.78
0.28837,112.65
0.28446,109.13
0.28152,105.41
0.27859,101.3
0.27566,97.001
0.27273,92.894
0.26979,88.788
0.26686,85.072
0.26588,82.138
0.26295,79.596
0.26197,77.445
0.26197,75.88
0.26686,74.707
0.27859,73.924
0.29814,73.338
0.32551,73.142
0.36168,72.947
0.40469,72.751
0.45161,72.751
0.49462,72.751
0.53275,72.751
0.57283,72.751
0.61193,72.751
0.64516,72.555
0.67351,72.36
0.69501,72.164
0.71065,71.969
0.72141,71.578
0.72727,71.186
0.72825,70.6
0.72532,70.209
0.71848,69.622
0.70968,69.035
0.69892,68.644
0.68524,68.057
0.66764,67.471
0.64907,67.08
0.62757,66.493
0.60508,65.906
0.58065,65.515
0.55718,64.928
0.53372,64.537
0.51124,63.95
0.48974,63.559
0.47214,62.973
0.45748,62.582
0.44379,61.995
0.43011,61.408
0.41838,61.017
0.4086,60.43
0.3998,60.039
0.39198,59.648
0.38514,59.061
0.38025,58.475
0.37537,58.083
0.37048,57.692
0.36657,57.497
0.36364,57.497
0.3607,57.888
0.35777,59.061
0.35484,61.799
0.35191,66.884
0.348,74.12
0.34506,83.116
0.34115,92.503
0.33724,101.3
0.33333,109.32
0.32942,116.36
0.32649,122.03
0.32356,125.95
0.32063,128.68
0.31769,129.86
0.31476,129.86
0.31183,129.07
0.30792,127.71
0.30499,125.75
0.30108,123.6
0.29814,121.25
0.29423,118.71
0.2913,115.78
0.28837,112.65
0.28446,109.13
0.2825,105.41
0.28152,101.3
0.27859,97.197
0.27566,93.09
0.27273,88.983
0.26979,85.658
0.26588,82.529
0.26295,80.183
0.26197,78.031
0.26393,76.662
0.27175,75.489
0.28641,74.707
0.30499,74.12
0.32942,73.729
0.36364,73.533
0.40567,73.533
0.45259,73.533
0.50049,73.533
0.54839,73.533
0.5914,73.533
0.6305,73.533
0.66276,73.533
0.68817,73.338
0.7087,73.142
0.72239,72.947
0.73021,72.555
0.73216,72.164
0.73216,71.773
0.72923,71.382
0.72336,70.795
0.71457,70.209
0.70186,69.818
0.68719,69.231
0.6696,68.84
0.65005,68.253
0.62854,67.862
0.60508,67.275
0.58456,66.884
0.56403,66.493
0.54252,65.906
0.52102,65.515
0.50049,64.928
0.48094,64.537
0.46334,63.95
0.4477,63.364
0.43402,62.973
0.42229,62.386
0.41251,61.995
0.40371,61.604
0.39687,61.017
0.39198,60.626
0.38807,60.039
0.38416,59.648
0.38025,59.452
0.37634,59.257
0.37341,59.452
0.37048,60.235
0.36755,62.582
0.36461,66.884
0.36168,73.729
0.35875,82.529
0.35484,91.917
0.35288,101.11
0.35093,109.71
0.348,117.14
0.34506,123.6
0.34213,128.29
0.3392,131.42
0.33627,132.99
0.33333,133.38
0.3304,132.79
0.32747,131.62
0.32454,129.86
0.3216,127.9
0.31867,125.55
0.31672,123.21
0.31574,120.67
0.31378,117.73
0.31085,114.41
0.3089,110.89
0.30596,107.17
0.30401,103.06
0.30108,98.957
0.29814,94.85
0.29521,90.939
0.29228,87.614
0.28935,84.681
0.28837,82.334
0.29032,80.378
0.29521,79.009
0.30499,78.031
0.32356,77.249
0.34995,76.858
0.38514,76.662
0.42717,76.467
0.47312,76.467
0.52199,76.467
0.56891,76.467
0.6129,76.467
0.652,76.467
0.68133,76.271
0.70283,75.88
0.72239,75.489
0.73803,75.098
0.74878,74.511
0.75464,73.924
0.75758,73.338
0.7566,72.751
0.75171,72.164
0.74389,71.382
0.73314,70.795
0.71945,70.209
0.70479,69.818
0.68915,69.231
0.6696,68.84
0.64907,68.449
0.62659,67.862
0.60117,67.471
0.57478,66.884
0.55034,66.297
0.52786,65.906
0.50733,65.319
0.48876,64.733
0.47312,64.146
0.45846,63.559
0.4477,62.973
0.43891,62.386
0.43011,61.799
0.42229,61.213
0.41642,60.626
0.41056,60.235
0.40469,59.648
0.40078,59.257
0.39589,59.061
0.39198,59.061
0.38807,59.452
0.38319,60.821
0.38025,64.146
0.37732,69.818
0.37341,78.031
0.36852,87.614
0.36364,97.393
0.35973,106.58
0.35484,114.8
0.35093,121.64
0.34604,127.12
0.34213,130.83
0.33724,132.99
0.33333,133.77
0.3304,133.57
0.32747,132.59
0.32454,130.83
0.32063,128.88
0.31672,126.73
0.31281,124.38
0.30792,121.64
0.30401,118.9
0.29912,115.78
0.29521,112.45
0.2913,108.74
0.28739,104.82
0.28348,100.52
0.28055,96.415
0.27761,92.112
0.27468,88.201
0.27077,85.072
0.26686,82.334
0.26491,79.987
0.26588,78.227
0.27273,77.054
0.28739,76.076
0.31085,75.293
0.34213,74.902
0.38123,74.707
0.41935,74.511
0.45748,74.511
0.50147,74.511
0.54545,74.511
0.58749,74.316
0.62366,74.316
0.65396,74.12
0.6784,73.729
0.69599,73.533
0.7087,73.142
0.71554,72.751
0.71848,72.36
0.7175,71.773
0.71261,71.186
0.70577,70.6
0.69599,70.209
0.68426,69.622
0.67058,69.035
0.65396,68.449
0.63441,67.862
0.61388,67.471
0.59238,67.08
0.56891,66.493
0.54545,66.102
0.52199,65.515
0.50244,65.124
0.48387,64.537
0.4653,63.95
0.44868,63.364
0.43206,62.777
0.41838,62.19
0.40567,61.604
0.39492,61.213
0.38612,60.626
0.3783,60.039
0.37146,59.648
0.36657,59.257
0.36168,58.67
0.35777,58.279
0.35484,58.083
0.35093,57.888
0.348,58.083
0.34409,59.257
0.34018,61.604
0.33627,66.493
0.33236,73.729
0.32942,82.725
0.32551,92.308
0.3216,101.5
0.31769,109.91
0.31476,117.14
0.31183,123.01
0.3089,127.31
0.30596,129.86
0.30205,131.23
0.29912,131.23
0.29521,130.44
0.29228,128.68
0.28935,126.73
0.28543,124.38
0.2825,121.84
0.27859,119.1
0.27468,116.17
0.27273,112.84
0.27077,109.32
0.26784,105.61
0.26491,101.5
0.26197,97.197
0.25904,92.894
0.25611,88.788
0.2522,85.267
0.24927,82.138
0.24536,79.596
0.24438,77.64
0.24536,76.076
0.25024,74.902
0.26002,74.12
0.27761,73.533
0.30401,73.338
0.33822,73.142
0.38025,72.947
0.4262,72.947
0.47507,72.947
0.52199,72.947
0.56598,72.947
0.60508,72.947
0.63734,72.751
0.66276,72.555
0.68035,72.36
0.69208,72.164
0.6999,71.773
0.70479,71.186
0.70577,70.6
0.70283,70.209
0.69697,69.622
0.68719,69.035
0.67546,68.449
0.6608,67.862
0.64321,67.471
0.62366,66.884
0.60411,66.297
0.58553,65.906
0.56403,65.515
0.54057,64.928
0.51808,64.537
0.4956,63.95
0.4741,63.364
0.45455,62.973
0.43695,62.386
0.42229,61.799
0.4086,61.408
0.39687,60.821
0.3871,60.235
0.37928,59.844
0.37341,59.257
0.36755,58.866
0.36266,58.279
0.35777,57.888
0.35386,57.497
0.35093,57.106
0.34702,57.106
0.34409,57.301
0.34018,58.083
0.33724,60.039
0.33431,63.95
0.33138,70.209
0.32942,78.422
0.32649,87.419
0.32258,96.219
0.31965,104.24
0.31574,111.47
0.31183,117.34
0.30792,121.84
0.30401,124.77
0.30108,126.34
0.29717,126.73
0.29423,126.14
0.29032,124.77
0.28837,122.62
0.28641,120.27
0.28446,117.73
0.28152,114.8
0.27761,111.86
0.27468,108.54
0.27175,105.02
0.26882,101.11
0.26588,97.001
0.26295,92.894
0.26002,88.788
0.25709,85.072
0.25415,81.943
0.2522,79.205
0.25024,76.858
0.24731,75.098
0.24731,73.729
0.25024,72.751
0.25904,72.164
0.27468,71.773
0.29912,71.578
0.33138,71.382
0.37146,71.186
0.41544,71.186
0.46237,71.186
0.50244,71.382
0.53763,71.382
0.57478,71.382
0.60802,71.186
0.63636,70.991
0.65885,70.795
0.67644,70.6
0.68719,70.209
0.69306,69.818
0.69501,69.426
0.69306,68.84
0.68622,68.449
0.6784,67.862
0.66764,67.275
0.65396,66.884
0.63734,66.297
0.61877,65.906
0.59824,65.319
0.57576,64.928
0.55327,64.537
0.52981,63.95
0.50733,63.559
0.48583,62.973
0.46628,62.582
0.4477,61.995
0.43304,61.604
0.42131,61.017
0.40958,60.626
0.39883,60.039
0.38905,59.648
0.38123,59.061
0.37439,58.67
0.36852,58.083
0.36364,57.692
0.35875,57.301
0.35484,56.91
0.35484,56.519
0.35679,56.519
0.35777,56.715
0.35582,57.692
0.35386,59.844
0.35093,64.342
0.348,70.991
0.34506,79.596
0.34213,88.788
0.33822,97.393
0.33431,105.41
0.33138,112.45
0.32747,118.32
0.32454,122.62
0.32258,125.36
0.31965,126.92
0.31672,127.12
0.31378,126.53
0.31085,124.97
0.30694,123.01
0.30401,120.86
0.30108,118.32
0.29717,115.58
0.29423,112.65
0.2913,109.32
0.28739,105.8
0.28543,101.89
0.28348,97.784
0.28152,93.677
0.27859,89.57
0.27566,85.854
0.27175,82.529
0.26882,79.791
0.26491,77.445
0.26295,75.489
0.26295,74.12
0.26784,73.142
0.27957,72.36
0.29521,71.969
0.31574,71.773
0.34702,71.578
0.3871,71.578
0.43304,71.578
0.48192,71.578
0.53079,71.578
0.57771,71.578
0.61975,71.578
0.65591,71.578
0.68524,71.382
0.70772,71.186
0.72532,70.991
0.73412,70.6
0.739,70.209
0.73998,69.818
0.73803,69.426
0.73216,68.84
0.72336,68.449
0.71163,67.862
0.69599,67.471
0.6784,66.884
0.65787,66.493
0.63539,65.906
0.61193,65.515
0.59042,65.124
0.56989,64.733
0.54741,64.342
0.52493,63.95
0.50342,63.364
0.48387,62.973
0.46628,62.582
0.44966,61.995
0.43597,61.604
0.42424,61.017
0.41349,60.626
0.40469,60.039
0.39687,59.648
0.39198,59.257
0.3871,58.67
0.38319,58.279
0.37928,58.083
0.37537,57.888
0.37146,57.888
0.36852,58.279
0.36559,59.648
0.36168,62.582
0.35875,67.862
0.35484,75.293
0.35191,84.289
0.34897,93.481
0.34604,101.89
0.34311,109.71
0.34018,116.56
0.33724,122.03
0.33333,125.75
0.3304,128.1
0.32747,129.07
0.32356,128.88
0.32063,127.9
0.31769,126.34
0.31476,124.38
0.31183,122.03
0.30987,119.49
0.30792,116.95
0.30596,114.02
0.30303,110.89
0.3001,107.37
0.29717,103.65
0.29521,99.739
0.29228,95.632
0.28935,91.721
0.28641,88.005
0.28348,84.681
0.28055,82.138
0.27859,79.791
0.27859,78.031
0.28055,76.662
0.28641,75.88
0.29814,75.098
0.31867,74.707
0.34702,74.511
0.38416,74.511
0.42717,74.511
0.47507,74.511
0.52493,74.707
0.57283,74.707
0.61681,74.707
0.652,74.511
0.6784,74.316
0.70381,74.12
0.72434,73.924
0.73998,73.533
0.75073,72.947
0.7566,72.555
0.75855,71.969
0.75562,71.382
0.74976,70.795
0.73998,70.404
0.72825,69.818
0.71457,69.426
0.69892,68.84
0.68133,68.449
0.6608,68.057
0.6393,67.471
0.61584,67.08
0.59335,66.493
0.56989,65.906
0.54839,65.319
0.52786,64.733
0.50929,64.146
0.49267,63.559
0.47801,62.973
0.46725,62.386
0.45748,61.604
0.44966,61.213
0.44184,60.626
0.435,60.039
0.42913,59.648
0.42424,59.257
0.42033,58.866
0.41642,58.475
0.41251,58.279
0.4086,58.475
0.40567,59.452
0.40274,61.799
0.3998,66.102
0.39687,73.142
0.39296,82.138
0.39003,91.721
0.38612,101.11
0.38221,109.52
0.3783,116.95
0.37439,123.01
0.37048,127.51
0.36657,130.44
0.36266,131.81
0.35875,132.01
0.35582,131.42
0.35386,129.86
0.35093,127.9
0.34702,125.75
0.34409,123.4
0.34018,121.06
0.33627,118.32
0.33236,115.38
0.32845,112.06
0.32356,108.74
0.31965,104.82
0.31574,100.91
0.31281,96.806
0.31085,92.699
0.30694,88.788
0.30303,85.463
0.29912,82.725
0.29619,80.378
0.29521,78.422
0.29912,76.858
0.30792,75.88
0.32551,75.098
0.35093,74.511
0.38514,74.316
0.42717,74.12
0.46725,73.924
0.50635,73.924
0.55034,73.924
0.59433,73.924
0.63539,73.924
0.67058,73.729
0.6999,73.533
0.72239,73.338
0.739,72.947
0.74976,72.555
0.75562,72.164
0.7566,71.578
0.75367,70.991
0.7478,70.404
0.73998,69.818
0.72923,69.231
0.71554,68.84
0.6999,68.253
0.68231,67.666
0.66178,67.275
0.6393,66.688
0.61681,66.297
0.59238,65.711
0.56794,65.319
0.54741,64.733
0.52786,64.342
0.50831,63.755
0.48876,63.168
0.47116,62.582
0.45455,61.995
0.44086,61.408
0.42815,60.821
0.41838,60.43
0.40958,59.844
0.40176,59.452
0.39492,58.866
0.38905,58.279
0.38514,58.083
0.38123,57.692
0.37732,57.497
0.37341,57.497
0.3695,58.279
0.36559,60.039
0.36168,63.755
0.35777,70.013
0.35386,78.422
0.34995,87.81
0.34604,97.197
0.34115,105.8
0.33822,113.43
0.33529,119.88
0.33138,124.58
0.32845,127.9
0.32454,129.47
0.32063,130.05
0.31476,129.47
0.30694,128.1
0.30108,126.14
0.29619,123.99
0.29228,121.45
0.28837,118.71
0.28446,115.78
0.2825,112.65
0.28055,109.32
0.27761,105.61
0.27468,101.89
0.27175,97.784
0.26784,93.481
0.26491,89.57
0.261,85.854
0.25709,82.725
0.25415,80.183
0.25122,78.031
0.25024,76.271
0.2522,74.902
0.25904,74.12
0.27175,73.533
0.29326,72.947
0.32356,72.751
0.36168,72.555
0.40567,72.555
0.45455,72.555
0.50342,72.555
0.55132,72.36
0.59433,72.36
0.63245,72.164
0.66276,72.164
0.68426,71.969
0.69892,71.578
0.71065,71.382
0.71848,70.991
0.72239,70.404
0.72141,70.013
0.71652,69.426
0.7087,68.84
0.69795,68.253
0.68426,67.666
0.66862,67.08
0.65005,66.688
0.63148,66.102
0.6129,65.711
0.5914,65.124
0.56794,64.733
0.54448,64.342
0.52199,63.755
0.49951,63.364
0.47898,62.777
0.45943,62.386
0.44282,61.799
0.42717,61.213
0.41447,60.626
0.40274,60.235
0.39394,59.648
0.3871,59.257
0.38123,58.67
0.37537,58.279
0.3695,57.692
0.36461,57.301
0.3607,56.91
0.35679,56.91
0.35288,56.91
0.34897,57.301
0.34604,58.67
0.34213,61.604
0.3392,66.884
0.33724,74.316
0.33333,83.116
0.3304,91.917
0.32649,100.33
0.32258,107.76
0.31867,114.21
0.31476,119.49
0.31085,123.01
0.30792,125.16
0.30401,125.95
0.3001,125.75
0.29717,124.58
0.29423,122.82
0.29228,120.67
0.29032,118.32
0.28739,115.58
0.28348,112.65
0.28055,109.52
0.27761,106
0.27468,102.28
0.27077,98.175
0.26784,94.068
0.26491,89.961
0.26197,86.05
0.25904,82.725
0.25806,79.791
0.25513,77.445
0.2522,75.489
0.25024,74.12
0.25122,72.947
0.25611,72.164
0.26686,71.578
0.28641,71.382
0.31476,71.186
0.34995,71.186
0.39296,70.991
0.43988,70.991
0.48192,70.991
0.52004,70.991
0.56012,70.991
0.59824,70.991
0.63245,70.991
0.65982,70.795
0.68133,70.6
0.69697,70.209
0.70674,69.818
0.71163,69.231
0.71261,68.84
0.7087,68.253
0.70186,67.666
0.69306,67.275
0.68035,66.688
0.66471,66.297
0.64712,65.711
0.62659,65.319
0.60508,64.733
0.58162,64.342
0.55718,63.95
0.53372,63.364
0.51124,62.973
0.48974,62.582
0.46921,61.995
0.45357,61.604
0.43988,61.017
0.42717,60.43
0.41544,60.039
0.40469,59.648
0.39492,59.061
0.3871,58.67
0.38025,58.083
0.37439,57.692
0.3695,57.106
0.36559,56.715
0.36168,56.519
0.35875,56.323
0.35679,56.519
0.35386,57.106
0.35093,58.866
0.348,62.386
0.34506,68.253
0.34115,75.88
0.33822,84.681
0.33431,93.481
0.3304,101.69
0.32649,108.74
0.32258,114.99
0.31867,119.69
0.31672,122.82
0.31476,124.58
0.31183,125.16
0.3089,124.77
0.30596,123.4
0.30205,121.64
0.29912,119.3
0.29619,116.75
0.29228,114.02
0.28935,111.08
0.28641,107.95
0.28348,104.24
0.28152,100.52
0.27957,96.415
0.27664,92.308
0.2737,88.201
0.27077,84.485
0.26784,81.356
0.26393,78.618
0.261,76.467
0.25806,74.707
0.25709,73.338
0.25904,72.36
0.26588,71.773
0.28055,71.186
0.29814,70.991
0.3216,70.795
0.35484,70.795
0.39589,70.795
0.44184,70.795
0.48974,70.795
0.53666,70.795
0.57967,70.795
0.61877,70.795
0.65103,70.6
0.67742,70.404
0.69697,70.013
0.7087,69.622
0.71554,69.231
0.71848,68.84
0.71848,68.449
0.71457,67.862
0.70772,67.471
0.69697,66.884
0.68328,66.297
0.66667,65.906
0.64809,65.515
0.62659,64.928
0.60411,64.537
0.5826,64.146
