1.7331,69.31
1.6706,68.87
1.61,68.382
1.5552,67.844
1.5073,67.307
1.4663,66.819
1.433,66.281
1.4076,65.793
1.3891,65.305
1.3783,64.865
1.3724,64.865
1.3685,66.819
1.3646,72.729
1.3587,84.598
1.3519,101.35
1.3431,118.74
1.3324,131.54
1.3206,137.74
1.3079,139.55
1.2923,140.67
1.2766,142.82
1.26,144.92
1.2473,144.87
1.2375,141.94
1.2258,137.01
1.2121,131.88
1.1975,127.53
1.1828,123.92
1.1681,120.25
1.1544,116.2
1.1417,111.8
1.13,107.41
1.1183,103.31
1.1065,99.349
1.0997,95.246
1.0948,91.045
1.086,86.845
1.0762,83.182
1.0645,80.251
1.0528,78.346
1.042,77.32
1.0391,76.734
1.0508,76.441
1.088,76.294
1.1584,76.441
1.2659,76.881
1.4057,77.418
1.5455,78.004
1.6852,78.346
1.8397,78.541
1.9873,78.59
2.1134,78.541
2.2111,78.444
2.2796,78.199
2.3196,77.662
2.3382,76.929
2.3412,76.05
2.3304,75.122
2.3099,74.048
2.2854,73.071
2.2551,72.094
2.216,71.215
2.172,70.482
2.1222,69.847
2.0674,69.261
2.0088,68.626
1.9472,67.991
1.8847,67.356
1.8231,66.819
1.7634,66.281
1.7077,65.842
1.6549,65.402
1.6139,65.06
1.5826,64.572
1.5533,64.132
1.5288,63.595
1.5112,63.253
1.5005,62.911
1.4956,62.814
1.4946,63.497
1.4956,66.721
1.4976,75.073
1.4995,89.482
1.5015,107.6
1.5024,123.92
1.5034,133.98
1.5015,137.54
1.4966,138.18
1.4917,139.5
1.4858,141.94
1.479,143.5
1.4712,142.19
1.4614,137.89
1.4506,132.37
1.4399,127.43
1.4291,123.58
1.4194,120.16
1.4135,116.54
1.4096,112.49
1.4057,108.24
1.4027,104.04
1.4018,99.886
1.4008,95.686
1.3998,91.29
1.3978,86.991
1.3949,83.23
1.391,80.3
1.3851,78.444
1.3803,77.467
1.3803,77.027
1.39,76.929
1.4154,76.881
1.4692,76.978
1.5572,77.418
1.6813,78.199
1.8358,79.127
2.0098,79.909
2.1877,80.349
2.3558,80.349
2.5024,80.007
2.6188,79.665
2.7048,79.616
2.7576,79.86
2.784,80.349
2.7986,80.544
2.8006,80.055
2.7928,78.688
2.7771,76.734
2.7546,74.927
2.7263,73.755
2.6921,73.217
2.653,73.12
2.608,73.071
2.5562,72.729
2.5044,72.045
2.4536,70.97
2.3959,69.749
2.3363,68.724
2.3099,68.235
2.3021,68.089
2.2747,68.089
2.2434,67.942
2.2151,67.405
2.1926,66.672
2.176,65.793
2.1642,65.06
2.1564,65.256
2.1505,67.844
2.1466,75.366
2.1427,89.043
2.1359,107.07
2.1261,123.92
2.1134,134.66
2.0968,138.57
2.0772,139.01
2.0557,139.94
2.0332,142.28
2.0117,143.99
1.9892,142.92
1.9687,138.86
1.9482,133.54
1.9267,128.8
1.9052,125.24
1.8817,122.31
1.8592,118.98
1.8368,115.08
1.8143,110.83
1.7918,106.72
1.7713,103.01
1.7537,99.349
1.739,95.539
1.7273,91.387
1.7146,87.04
1.6979,83.23
1.6784,80.446
1.6579,78.786
1.6403,78.248
1.6325,78.199
1.6442,78.346
1.6852,78.59
1.7644,78.883
1.8847,79.176
2.0391,79.469
2.217,79.86
2.3773,80.251
2.5191,80.739
2.6637,81.277
2.7898,81.667
2.8876,81.716
2.9541,81.228
2.9922,80.349
3.0068,79.372
3.0039,78.444
2.9883,77.564
2.9619,76.734
2.9257,75.904
2.8847,75.073
2.8397,74.194
2.7869,73.364
2.7263,72.631
2.6588,71.801
2.5865,70.873
2.5093,70.042
2.4301,69.359
2.349,68.87
2.2688,68.479
2.1916,68.089
2.1202,67.6
2.0567,67.063
2.0049,66.526
1.9638,66.135
1.9257,65.744
1.8915,65.5
1.8622,65.353
1.8387,66.184
1.8182,69.554
1.7986,77.858
1.7801,92.071
1.7605,109.85
1.741,126.12
1.7204,136.23
1.7009,139.89
1.6833,140.48
1.6618,141.55
1.6383,143.6
1.6139,144.87
1.5894,143.31
1.564,139.06
1.5386,133.69
1.5132,128.8
1.4888,125.04
1.4643,121.87
1.4409,118.54
1.4184,114.69
1.4018,110.63
1.3881,106.53
1.3734,102.67
1.3587,98.812
1.3431,94.855
1.3265,90.801
1.3079,86.991
1.2884,83.719
1.2678,81.374
1.2483,79.909
1.2336,79.323
1.2326,79.03
1.2493,78.981
1.2903,79.127
1.3705,79.421
1.4936,79.86
1.6549,80.446
1.8426,80.886
2.0401,81.179
2.2307,81.277
2.3978,81.228
2.5327,81.032
2.6325,80.69
2.6979,80.104
2.7351,79.421
2.7488,78.688
2.7458,77.76
2.7331,76.881
2.7107,75.904
2.6794,74.976
2.6403,74.097
2.5924,73.315
2.5347,72.485
2.4682,71.801
2.3939,71.117
2.3138,70.433
2.2297,69.847
2.1535,69.31
2.0841,68.724
2.0108,68.284
1.9384,67.796
1.8719,67.405
1.8133,67.063
1.7634,66.672
1.7224,66.281
1.6901,65.744
1.6667,65.109
1.6491,64.718
1.6354,65.402
1.6246,69.261
1.6168,78.346
1.609,93.292
1.5973,110.97
1.5836,126.07
1.567,134.86
1.5484,137.98
1.5298,138.81
1.5103,140.38
1.4888,142.67
1.4663,143.7
1.4438,141.79
1.4213,137.35
1.4037,132.17
1.3891,127.73
1.3715,124.41
1.3529,121.38
1.3343,117.86
1.3157,113.66
1.2962,109.26
1.2776,105.01
1.261,101.01
1.2483,97.053
1.2366,92.999
1.2268,88.799
1.216,84.793
1.2082,81.423
1.2014,78.981
1.1896,77.662
1.1789,77.174
1.1799,77.174
1.2023,77.369
1.2581,77.76
1.3568,78.297
1.4995,78.932
1.6813,79.665
1.8876,80.3
2.0997,80.739
2.2786,80.984
2.4272,80.984
2.566,80.739
2.6784,80.251
2.7586,79.567
2.8074,78.786
2.8309,78.004
2.8348,77.027
2.824,76.05
2.8006,75.073
2.7664,74.048
2.7224,73.168
2.6696,72.436
2.6158,71.654
2.5572,70.922
2.4878,70.238
2.4115,69.652
2.3284,69.261
2.2414,68.724
2.1544,68.235
2.0694,67.747
1.9883,67.258
1.9159,66.868
1.8543,66.526
1.8045,66.233
1.7683,65.793
1.7439,65.158
1.7263,64.474
1.7165,64.279
1.7116,65.744
1.7087,70.97
1.7058,81.814
1.7009,97.591
1.695,114.69
1.6882,127.97
1.6774,135.01
1.6628,137.2
1.6461,137.98
1.6315,139.45
1.6178,141.01
1.5992,140.87
1.5787,137.98
1.5572,133.2
1.5357,128.07
1.5132,123.82
1.4927,120.5
1.4721,117.42
1.4526,113.9
1.435,109.85
1.4184,105.6
1.4066,101.45
1.3969,97.444
1.3842,93.488
1.3724,89.385
1.3607,85.233
1.349,81.472
1.3353,78.444
1.3187,76.441
1.3021,75.464
1.2942,75.22
1.305,75.22
1.348,75.415
1.4154,75.66
1.5161,76.099
1.6716,76.734
1.87,77.418
2.0958,78.199
2.3284,78.688
2.5474,78.932
2.738,78.883
2.8905,78.59
3.0029,78.199
3.0782,77.564
3.0811,76.734
3.0391,75.806
3.0078,74.78
2.9765,73.803
2.9443,72.924
2.9052,72.045
2.8583,71.166
2.8055,70.433
2.7468,69.652
2.6784,69.066
2.6022,68.479
2.521,67.991
2.436,67.503
2.35,66.965
2.2737,66.428
2.2043,65.842
2.1349,65.305
2.0704,64.914
2.0137,64.621
1.9668,64.279
1.9296,63.937
1.9022,63.497
1.8847,63.155
1.8739,64.035
1.869,68.04
1.869,77.76
1.8719,93.488
1.8729,111.85
1.8729,127.04
1.871,135.2
1.8671,137.25
1.8612,137.3
1.8524,138.38
1.8387,140.23
1.8221,140.82
1.8025,138.38
1.782,133.69
1.7625,128.41
1.7429,124.16
1.7273,121.04
1.7136,118.3
1.6979,115.13
1.6843,111.32
1.6725,107.16
1.6618,103.11
1.653,99.251
1.6461,95.49
1.6403,91.632
1.6344,87.724
1.6276,84.061
1.6178,81.032
1.6051,78.981
1.5934,78.053
1.5875,77.906
1.5934,78.102
1.6237,78.444
1.6911,78.688
1.8045,78.981
1.9648,79.469
2.1632,80.251
2.3871,80.984
2.6149,81.618
2.827,81.912
3.0088,82.009
3.1369,81.863
3.2209,81.57
3.2825,80.984
3.3177,80.055
3.3294,78.737
3.3236,77.467
3.304,76.49
3.2717,75.757
3.2297,75.122
3.1789,74.292
3.1212,73.217
3.0557,72.094
2.9814,71.166
2.9081,70.531
2.8328,70.091
2.7488,69.652
2.6618,69.066
2.5748,68.382
2.4917,67.6
2.4145,66.965
2.346,66.477
2.2874,66.135
2.2385,65.744
2.1994,65.402
2.1681,65.109
2.1437,65.109
2.1251,66.379
2.1095,70.97
2.0948,81.57
2.0811,98.03
2.0674,116.64
2.0528,131.2
2.0371,138.38
2.0176,139.79
1.9941,139.69
1.9677,140.92
1.9384,143.02
1.9062,143.46
1.8768,140.87
1.8485,136.08
1.8172,130.95
1.7859,126.8
1.7556,123.72
1.7243,120.79
1.694,117.42
1.6647,113.42
1.6354,109.26
1.608,105.16
1.5816,101.3
1.5552,97.444
1.5327,93.488
1.5112,89.482
1.4868,85.819
1.4585,82.84
1.4272,80.935
1.3969,79.909
1.3734,79.665
1.3666,79.665
1.3881,79.811
1.4497,79.86
1.5572,80.104
1.7097,80.544
1.8974,81.032
2.0753,81.472
2.2405,81.667
2.4125,81.57
2.566,81.374
2.6862,81.032
2.7693,80.544
2.8172,79.86
2.8368,78.981
2.8338,78.102
2.8143,77.32
2.782,76.685
2.739,76.05
2.6911,75.22
2.6373,74.292
2.5728,73.364
2.4995,72.485
2.4184,71.752
2.3304,71.166
2.2366,70.824
2.1388,70.287
2.0391,69.652
1.9404,68.968
1.8456,68.235
1.7586,67.747
1.6804,67.405
1.6197,67.307
1.5728,67.063
1.5298,66.526
1.4936,65.842
1.4633,65.158
1.4379,65.549
1.4174,68.626
1.3988,76.734
1.3812,90.948
1.3627,108.82
1.3441,125.14
1.3245,135.44
1.3069,139.3
1.2903,140.04
1.2688,141.11
1.2444,143.16
1.218,144.68
1.1896,143.7
1.1613,139.99
1.1329,135.01
1.1046,130.32
1.0782,126.51
1.0538,123.18
1.0303,119.67
1.0078,115.76
0.9912,111.51
0.97849,107.26
0.96188,103.16
0.9433,99.251
0.92473,95.197
0.90616,91.045
0.88856,87.187
0.86999,83.914
0.84848,81.57
0.826,80.104
0.80743,79.323
0.80156,78.981
0.81329,78.932
0.85239,79.176
0.9306,79.665
1.0528,80.349
1.217,80.984
1.4125,81.423
1.6217,81.667
1.826,81.716
2.0078,81.716
2.1554,81.57
2.2649,81.179
2.3392,80.544
2.3803,79.665
2.3978,78.786
2.3988,77.858
2.3861,76.929
2.3617,76.001
2.3255,75.122
2.2805,74.194
2.2268,73.217
2.1652,72.485
2.0968,71.801
2.0225,71.312
1.9433,70.873
1.8612,70.433
1.7879,69.945
1.7195,69.407
1.6432,68.919
1.566,68.431
1.4907,67.942
1.4223,67.405
1.3646,66.965
1.3196,66.526
1.2874,65.988
1.2649,65.5
1.2493,65.353
1.2385,66.965
1.2336,72.485
1.2297,83.816
1.2229,100.18
1.2151,117.57
1.2043,130.8
1.1916,137.45
1.1779,139.45
1.1613,140.43
1.1427,142.58
1.1202,145.02
1.0978,145.31
1.0753,142.43
1.0528,137.25
1.0362,131.73
1.0215,127.24
1.0029,123.72
0.98436,120.45
0.96579,116.69
0.94721,112.44
0.92766,107.99
0.91007,103.55
0.89638,99.154
0.88465,94.855
0.8739,90.606
0.86217,86.503
0.85435,82.84
0.84653,79.909
0.83089,77.809
0.81329,76.49
0.80059,75.855
0.85533,75.757
0.95894,75.855
1.0499,76.197
1.1544,76.539
1.2825,76.978
1.4311,77.564
1.5904,78.102
1.7478,78.59
1.8768,78.883
1.9795,78.883
2.0694,78.59
2.1378,78.248
2.1828,77.662
2.2063,77.027
2.2131,76.294
2.2072,75.464
2.1916,74.634
2.1681,73.608
2.1378,72.68
2.1026,71.654
2.0674,70.873
2.0293,70.189
1.9844,69.554
1.9335,68.919
1.8778,68.235
1.8182,67.6
1.7576,67.063
1.6979,66.526
1.6413,66.037
1.5885,65.549
1.5425,65.06
1.5054,64.474
1.477,63.937
1.4585,63.497
1.4477,63.107
1.4409,62.862
1.4379,63.107
1.4379,65.06
1.4399,70.97
1.4438,83.133
1.4477,100.57
1.4506,118.59
1.4516,131.73
1.4506,137.69
1.4477,138.86
1.4457,139.55
1.4438,141.6
1.4399,143.8
1.433,143.6
1.4242,140.13
1.4135,134.61
1.4008,129.09
1.3881,124.85
1.3763,121.62
1.3656,118.35
1.3568,114.64
1.349,110.24
1.3441,105.75
1.3421,101.5
1.3412,97.493
1.3402,93.634
1.3402,89.678
1.3402,85.819
1.3382,82.351
1.3343,79.762
1.3294,78.297
1.3236,77.76
1.3226,77.76
1.3353,77.906
1.3715,78.102
1.4242,78.492
1.4976,79.127
1.607,80.007
1.7439,80.886
1.8964,81.57
2.0499,82.009
2.1896,82.107
2.305,82.107
2.3939,81.912
2.4536,81.618
2.4888,81.13
2.5054,80.495
2.5073,79.616
2.4995,78.737
2.4839,77.858
2.4624,76.978
2.436,76.099
2.4047,75.22
2.3675,74.341
2.3255,73.559
2.2796,72.875
2.2307,72.289
2.1779,71.654
2.1241,71.068
2.0704,70.287
2.0235,69.505
1.9814,68.675
1.9404,67.991
1.9013,67.356
1.869,66.819
1.8436,66.281
1.825,65.695
1.8113,65.109
1.8016,65.012
1.7957,66.477
1.7918,71.947
1.7879,83.475
1.784,100.67
1.7801,119.13
1.7742,133
1.7664,139.6
1.7566,141.01
1.7439,141.5
1.7283,143.55
1.7107,146.14
1.694,146.48
1.6774,143.46
1.6588,137.98
1.6393,132.37
1.6197,127.87
1.6031,124.55
1.5885,121.43
1.5699,117.81
1.5494,113.51
1.5298,108.97
1.5103,104.67
1.4917,100.67
1.4741,96.858
1.4585,92.804
1.4418,88.554
1.4242,84.354
1.4047,80.935
1.3842,78.59
1.3675,77.613
1.3568,77.467
1.3529,77.76
1.3646,78.053
1.4018,78.346
1.4692,78.883
1.565,79.616
1.6843,80.446
1.8152,81.179
1.9462,81.667
2.0635,82.009
2.1593,82.009
2.2248,81.716
2.2639,81.277
2.2874,80.593
2.2952,79.762
2.2884,78.786
2.2717,77.809
2.2473,76.881
2.217,75.806
2.1808,74.78
2.1408,73.852
2.0948,73.071
2.0459,72.289
1.9932,71.654
1.9443,71.166
1.8954,70.629
1.8397,70.091
1.7791,69.603
1.7185,69.066
1.6588,68.528
1.6022,67.991
1.5503,67.503
1.5054,67.112
1.4692,66.721
1.4399,66.379
1.4174,65.842
1.4027,65.353
1.3939,65.158
1.3871,66.477
1.3822,71.361
1.3773,81.912
1.3715,98.03
1.3646,115.86
1.3568,130.12
1.346,137.69
1.3324,140.04
1.3177,141.06
1.3021,143.11
1.2884,145.75
1.2757,146.63
1.26,144.24
1.2424,139.35
1.2258,133.88
1.2082,129.29
1.1906,125.63
1.174,122.26
1.1574,118.45
1.1417,114.05
1.1261,109.56
1.1114,105.16
1.0987,101.01
1.0899,97.004
1.0841,92.999
1.0762,88.945
1.0665,85.038
1.0538,81.814
1.0391,79.567
1.0235,78.346
1.0117,78.004
1.0108,78.053
1.0283,78.297
1.0714,78.59
1.1437,79.03
1.2287,79.665
1.3275,80.349
1.4497,80.984
1.5806,81.423
1.7067,81.667
1.8172,81.814
1.9042,81.814
1.9668,81.57
2.0049,81.032
2.0235,80.251
2.0264,79.225
2.0186,78.248
2.002,77.32
1.9824,76.343
1.9589,75.366
1.9296,74.292
1.8954,73.315
1.8563,72.436
1.8133,71.654
1.7664,71.068
1.7155,70.531
1.6618,70.042
1.607,69.603
1.5533,69.114
1.5015,68.528
1.4594,68.04
1.4252,67.6
1.391,67.161
1.3607,66.819
1.3363,66.379
1.3187,65.842
1.3069,65.305
1.3001,65.012
1.2962,65.842
1.2942,69.847
1.2933,79.03
1.2933,94.074
1.2913,111.76
1.2903,126.99
1.2893,136.08
1.2854,139.45
1.2786,140.57
1.2698,142.43
1.259,145.07
1.2473,146.29
1.2356,144.48
1.2229,139.89
1.2102,134.22
1.1984,129.24
1.1994,125.43
1.2102,122.11
1.2121,118.5
1.2063,114.3
1.1965,109.85
1.1838,105.55
1.1711,101.45
1.1593,97.346
1.1496,93.292
1.1408,89.189
1.132,85.233
1.1212,82.009
1.1085,79.665
1.0958,78.444
1.0899,77.809
1.0938,77.662
1.1105,77.613
1.1515,77.809
1.2278,78.199
1.3421,78.786
1.4917,79.469
1.6647,80.104
1.8475,80.446
2.0254,80.544
2.1828,80.349
2.3109,80.055
2.3998,79.567
2.4575,78.932
2.4966,78.199
2.5161,77.223
2.5191,76.246
2.5103,75.122
2.4917,73.901
2.4633,72.729
2.4252,71.654
2.3803,70.677
2.3294,69.798
2.2737,68.968
2.2121,68.284
2.1544,67.698
2.0987,66.965
2.0342,66.379
1.9677,65.793
1.9013,65.353
1.8358,65.012
1.7771,64.621
1.7253,64.279
1.6833,63.937
1.651,63.497
1.6285,63.107
1.6149,62.667
1.608,62.227
1.6061,61.885
1.607,62.179
1.609,64.621
1.6119,71.41
1.6129,84.256
1.6119,101.74
1.609,119.13
1.6031,131.24
1.5953,136.67
1.5846,138.03
1.5728,139.16
1.5611,141.5
1.5513,143.5
1.5445,142.72
1.5357,138.67
1.5239,132.86
1.5132,127.43
1.5024,123.28
1.4927,120.06
1.4829,116.74
1.4741,112.78
1.4673,108.43
1.4624,103.99
1.4575,99.935
1.4565,95.979
1.4585,92.12
1.4604,88.115
1.4624,84.256
1.4624,80.886
1.4614,78.346
1.4585,76.929
1.4555,76.343
1.4575,76.246
1.4761,76.294
1.521,76.441
1.6041,76.685
1.7302,77.223
1.8671,77.906
2.0196,78.737
2.2092,79.372
2.4115,79.86
2.608,80.055
2.782,80.055
2.9228,79.86
3.0264,79.469
3.0978,78.883
3.1417,78.004
3.1632,77.125
3.1691,76.197
3.1593,75.171
3.1378,74.243
3.1085,73.217
3.0723,72.387
3.0283,71.557
2.9775,70.873
2.9208,70.189
2.8583,69.554
2.7908,68.968
2.7195,68.626
2.6481,68.382
2.5806,68.186
2.5181,67.942
2.4653,67.551
2.4213,67.258
2.3803,66.965
2.3451,66.916
2.3187,66.868
2.3011,66.672
2.2893,66.281
2.2825,66.135
2.2805,67.356
2.2805,72.436
2.2805,83.572
2.2796,100.23
2.2766,118.25
2.2717,131.98
2.2649,138.57
2.2571,139.99
2.2463,140.38
2.2326,141.94
2.216,143.8
2.1975,143.55
2.1779,140.18
2.1564,134.66
2.1329,129.19
2.1105,124.94
2.0899,121.82
2.0714,118.89
2.0508,115.42
2.0303,111.41
2.0108,107.26
1.9932,103.31
1.9785,99.495
1.9648,95.686
1.9511,91.729
1.9374,87.871
1.9228,84.158
1.9052,81.277
1.8856,79.567
1.869,78.786
1.8573,78.883
1.8543,79.127
1.8729,79.323
1.9247,79.323
2.0186,79.421
2.1544,79.762
2.3255,80.3
2.5181,80.935
2.7155,81.472
2.8993,81.667
3.0567,81.472
3.1681,81.032
3.2405,80.349
3.2923,79.567
3.3216,78.786
3.3304,78.053
3.3216,77.32
3.3001,76.294
3.2688,75.171
3.2278,74.097
3.1779,73.413
3.1202,73.071
3.0557,72.924
2.9844,72.875
2.914,72.68
2.8416,72.485
2.7595,72.436
2.6725,72.387
2.5846,71.605
2.4985,69.798
2.4174,67.063
2.3421,64.425
2.2757,62.618
2.2121,61.592
2.1623,60.664
2.131,59.443
2.1065,58.027
2.087,57.196
2.0674,57.929
2.0479,61.299
2.0283,68.235
2.0088,79.86
1.9883,96.076
1.9658,114.1
1.9423,129.44
1.9179,138.91
1.8925,142.82
1.8651,143.85
1.8377,144.63
1.8143,145.41
1.7908,144.92
1.7634,141.89
1.7341,136.57
1.7048,130.56
1.6755,125.38
1.6471,121.38
1.6188,118.06
1.5914,114.54
1.565,110.63
1.5406,106.38
1.52,102.43
1.5054,99.007
1.4936,95.881
1.48,92.608
1.4653,89.189
1.4497,85.819
1.4321,82.937
1.4115,80.984
1.3891,80.007
1.3685,79.616
1.3578,79.323
1.3666,78.981
1.4096,78.786
1.4966,78.786
1.6061,79.176
1.74,79.616
1.9198,79.909
2.1241,80.055
2.3304,79.909
2.52,79.665
2.6804,79.421
2.8045,79.127
2.8915,78.737
2.9443,78.199
2.9677,77.564
2.9697,76.783
2.955,76.001
2.9296,75.171
2.8944,74.292
2.8504,73.51
2.7977,72.68
2.7361,71.85
2.6667,71.068
2.5894,70.238
2.5073,69.505
2.4203,68.87
2.3294,68.284
2.2375,67.796
2.1466,67.307
2.0694,66.916
2.0039,66.526
1.9404,66.233
1.8827,65.842
1.8328,65.549
1.7527,65.158
1.6628,64.718
1.6109,64.23
1.5797,63.937
1.5601,64.377
1.5455,67.161
1.5347,74.536
1.5269,87.626
1.5191,104.62
1.5083,120.79
1.4946,131.68
1.478,136.37
1.4614,137.45
1.4418,138.18
1.4203,139.69
1.3998,140.72
1.3783,139.6
1.3558,136.08
1.3324,131.2
1.3099,126.51
1.2942,122.7
1.2815,119.42
1.2669,116.2
1.2512,112.49
1.2356,108.53
1.2209,104.48
1.2072,100.62
1.1965,96.76
1.1867,92.853
1.1779,88.945
1.1691,85.135
1.1584,81.814
1.1486,79.372
1.1388,77.858
1.1251,77.174
1.1153,76.978
1.1193,76.978
1.1476,77.223
1.2111,77.613
1.3177,78.199
1.4653,78.737
1.6442,79.372
1.8416,79.811
2.0401,80.055
2.2239,80.104
2.3646,79.909
2.4663,79.567
2.5503,78.932
2.609,78.297
2.6422,77.564
2.654,76.734
2.6481,75.806
2.6305,74.731
2.6012,73.608
2.563,72.533
2.5161,71.605
2.4624,70.922
2.39,70.433
2.3245,70.042
2.2717,69.554
2.2043,68.919
2.13,68.235
2.0518,67.551
1.9726,66.965
1.8964,66.623
1.825,66.281
1.7615,65.988
1.7077,65.695
1.6647,65.256
1.6305,64.718
1.607,64.23
1.5914,63.742
1.5797,63.351
1.5709,63.79
1.563,66.623
1.5562,73.901
1.5494,86.747
1.5415,103.16
1.5337,118.79
1.5239,129.29
1.5122,133.78
1.4976,134.86
1.4839,135.49
1.4702,136.86
1.4516,137.74
1.4311,136.57
1.4096,132.95
1.39,127.97
1.3715,123.28
1.3529,119.57
1.3343,116.49
1.3157,113.42
1.2981,109.85
1.2825,105.85
1.2688,101.89
1.26,97.932
1.2542,94.074
1.2473,90.069
1.2405,85.673
1.2326,81.423
1.2229,77.76
1.2111,74.976
1.1994,73.413
1.1896,72.778
1.1887,72.778
1.2053,73.168
1.2502,73.657
1.3148,74.292
1.4057,74.976
1.5445,75.611
1.7214,76.001
1.9228,76.294
2.129,76.636
2.3216,77.027
2.4878,77.369
2.6188,77.369
2.7146,76.929
2.7752,76.197
2.8074,75.122
2.8152,73.901
2.8065,72.778
2.7889,71.752
2.7634,70.824
2.7292,69.994
2.6872,69.261
2.6383,68.479
2.5836,67.747
2.522,67.112
2.4545,66.526
2.3812,66.135
2.3021,65.793
2.2199,65.549
2.1466,65.305
2.0802,64.914
2.0127,64.377
1.9501,63.839
1.8954,63.351
1.8504,62.911
1.8172,62.569
1.7957,62.179
1.784,61.788
1.7801,61.885
1.781,63.546
1.784,69.163
1.7879,80.739
1.7918,97.737
1.7957,115.76
1.7986,129.19
1.7986,135.49
1.7957,136.62
1.7898,136.67
1.781,137.79
1.7683,139.06
1.7537,138.57
1.739,135.3
1.7243,130.36
1.7107,125.38
1.6989,121.48
1.6901,118.35
1.6813,115.32
1.6725,111.8
1.6628,107.8
1.652,103.79
1.6432,99.935
1.6364,96.223
1.6305,92.608
1.6246,88.847
1.6197,85.184
1.6149,81.863
1.61,79.372
1.6041,77.906
1.5953,77.418
1.5885,77.564
1.5914,77.906
1.6168,78.297
1.6745,78.59
1.7732,79.03
1.914,79.616
2.0909,80.153
2.2903,80.593
2.4956,80.788
2.6872,80.788
2.8338,80.495
2.9404,80.007
3.0293,79.323
3.088,78.444
3.1193,77.467
3.129,76.49
3.1212,75.464
3.1007,74.536
3.0694,73.657
3.0293,72.875
2.9824,72.094
2.9296,71.361
2.8749,70.629
2.8162,69.994
2.7507,69.407
2.6784,68.919
2.6012,68.528
2.521,68.235
2.4409,67.844
2.3627,67.503
2.2884,67.063
2.2209,66.526
2.1632,66.184
2.1144,65.793
2.0753,65.402
2.045,65.012
2.0215,64.474
2.001,64.572
1.9834,66.526
1.9677,72.729
1.9511,84.842
1.9345,101.74
1.9179,118.94
1.8993,131.1
1.8778,136.57
1.8534,137.54
1.826,137.89
1.8006,139.25
1.7752,140.62
1.7468,140.04
1.7175,136.86
1.6862,132.12
1.6549,127.48
1.6246,123.72
1.5953,120.69
1.5679,117.62
1.5415,114.05
1.5152,110.09
1.4897,105.99
1.4663,101.94
1.4477,98.03
1.4321,94.22
1.4135,90.313
1.393,86.503
1.3724,83.133
1.349,80.544
1.3236,79.03
1.2972,78.346
1.2766,78.199
1.2698,78.102
1.2884,78.053
1.3431,78.199
1.4184,78.492
1.52,79.03
1.6657,79.616
1.8407,80.104
2.0283,80.446
2.2092,80.495
2.3675,80.349
2.4936,80.055
2.5826,79.616
2.6373,78.981
2.6628,78.199
2.6657,77.32
2.6149,76.294
2.5357,75.366
2.4761,74.438
2.4223,73.559
2.3685,72.778
2.3109,72.045
2.2493,71.312
2.1828,70.629
2.1105,69.945
2.0342,69.359
1.9541,68.87
1.871,68.382
1.7898,67.942
1.7204,67.551
1.6588,67.112
1.5963,66.721
1.5376,66.379
1.4858,66.037
1.4428,65.598
1.4096,65.109
1.3832,64.474
1.3627,64.23
1.348,65.353
1.3353,69.798
1.3236,79.567
1.3118,94.855
1.303,112.29
1.2933,126.75
1.2805,134.81
1.2649,137.35
1.2473,137.89
1.2278,139.11
1.2063,141.11
1.1838,141.79
1.1593,139.89
1.1339,135.54
1.1075,130.56
1.0821,126.26
1.0626,122.94
1.0459,119.91
1.0274,116.64
1.0088,112.68
0.99022,108.43
0.97263,104.23
0.95699,100.23
0.94233,96.369
0.9306,92.413
0.92082,88.408
0.91007,84.745
0.89736,81.667
0.88172,79.567
0.86999,78.346
0.86022,77.858
0.85239,77.76
0.85826,77.809
0.88954,78.004
0.95699,78.444
1.1134,78.981
1.2815,79.567
1.4164,80.007
1.5836,80.153
1.7576,80.251
1.9179,80.104
2.0401,79.909
2.1281,79.567
2.1975,78.981
2.2434,78.248
2.2659,77.418
2.2708,76.539
2.262,75.66
2.2414,74.78
2.2121,73.999
2.174,73.12
2.129,72.289
2.0772,71.557
2.0186,70.873
1.9619,70.238
1.9052,69.652
1.8377,69.163
1.7644,68.724
1.6901,68.235
1.6188,67.747
1.5503,67.356
1.4868,66.965
1.4291,66.672
1.3793,66.281
1.3392,65.842
1.3099,65.256
1.2913,64.621
1.2805,64.181
1.2717,64.621
1.2649,67.503
1.26,75.122
1.2561,88.506
1.2522,105.7
1.2473,121.87
1.2405,132.56
1.2317,137.06
1.219,138.13
1.2043,139.11
1.1906,141.01
1.1789,142.38
1.1623,141.35
1.1437,137.59
1.1241,132.56
1.1046,127.83
1.085,124.02
1.0655,120.94
1.045,117.67
1.0254,113.86
1.0068,109.56
0.98925,105.11
0.97263,100.81
0.96188,96.662
0.95503,92.657
0.94428,88.701
0.93157,84.745
0.91691,81.277
0.90127,78.59
0.88368,76.881
0.86608,75.855
0.85239,75.366
0.85142,75.122
0.87488,75.073
0.93157,75.318
1.0088,75.757
1.1114,76.294
1.2561,76.881
1.4272,77.223
1.608,77.467
1.781,77.613
1.9326,77.613
2.0538,77.564
2.1427,77.32
2.2014,76.783
2.2326,76.099
2.2434,75.366
2.2385,74.487
2.2229,73.608
2.1994,72.729
2.1691,71.801
2.132,70.873
2.0909,69.847
2.0459,68.968
1.9961,68.089
1.9423,67.405
1.8827,66.819
1.8182,66.233
1.7517,65.744
1.6852,65.256
1.6276,64.816
1.5777,64.279
1.5269,63.839
1.4819,63.448
1.4448,63.058
1.4154,62.667
1.3949,62.227
1.3812,61.885
1.3744,61.739
1.3724,62.618
1.3734,66.379
1.3754,75.366
1.3773,90.362
1.3783,108.43
1.3793,124.11
1.3783,133.3
1.3744,136.32
1.3685,136.81
1.3617,137.98
1.3548,140.18
1.348,141.16
1.3392,139.3
1.3294,134.76
1.3196,129.19
1.3089,124.36
1.3011,120.79
1.2942,117.81
1.2854,114.49
1.2776,110.49
1.2717,106.14
1.2659,101.74
1.262,97.542
1.259,93.683
1.2561,89.727
1.2532,85.721
1.2483,81.863
1.2434,78.59
1.2385,76.343
1.2346,75.318
1.2336,75.171
1.2366,75.562
1.2512,76.05
1.2893,76.49
1.3587,77.027
1.4633,77.858
1.6022,78.883
1.7664,79.909
1.9413,80.69
2.1124,81.179
2.2678,81.277
2.3832,81.228
2.4643,80.935
2.5288,80.495
2.5718,79.86
2.5943,79.127
2.6002,78.297
2.5924,77.369
2.5748,76.441
2.5494,75.415
2.5181,74.536
2.4809,73.657
2.4389,72.875
2.391,72.045
2.3441,71.41
2.2952,70.922
2.2395,70.482
2.1799,70.042
2.1193,69.603
2.0596,69.066
2.002,68.431
1.9492,67.796
1.9032,67.161
1.8661,66.623
1.8368,66.037
1.8143,65.402
1.7977,64.865
1.7859,65.012
1.7791,67.161
1.7761,73.852
1.7742,86.698
1.7722,104.14
1.7703,121.23
1.7674,133
1.7634,137.89
1.7566,138.77
1.7458,139.5
1.7322,141.55
1.7146,143.5
1.6979,143.06
1.6813,139.6
1.6618,134.42
1.6403,129.39
1.6188,125.48
1.5982,122.35
1.5787,119.23
1.5582,115.57
1.5367,111.36
1.5171,107.07
1.4985,103.01
1.478,99.056
1.4614,95.197
1.4467,91.192
1.4301,87.236
1.4115,83.67
1.393,80.984
1.3744,79.323
1.4115,78.59
1.48,78.492
1.5181,78.59
1.5572,78.688
1.6149,78.883
1.7038,79.225
1.825,79.811
1.9511,80.446
2.0831,80.935
2.2366,81.277
2.39,81.423
2.5249,81.374
2.6295,81.032
2.7028,80.593
2.7458,80.007
2.7625,79.225
2.7586,78.346
2.741,77.418
2.7136,76.49
2.6794,75.562
2.6393,74.683
2.5904,73.803
2.5347,73.071
2.4741,72.24
2.4086,71.508
2.3382,70.726
2.263,70.042
2.1838,69.407
2.1026,68.919
2.0215,68.431
1.9443,67.991
1.8729,67.551
1.8152,67.112
1.7683,66.721
1.7243,66.281
1.6852,65.842
1.654,65.353
1.6276,64.865
1.6051,64.67
1.5865,66.135
1.5709,71.215
1.5572,82.253
1.5435,98.665
1.5279,116.64
1.5142,130.51
1.5024,137.35
1.4868,139.11
1.4692,139.69
1.4497,141.55
1.4272,144.04
1.4027,144.73
1.3783,142.23
1.3539,137.35
1.3284,132.07
1.303,127.73
1.2796,124.41
1.263,121.43
1.2434,117.91
1.2229,113.81
1.2082,109.36
1.1945,105.01
1.1808,100.91
1.1681,97.004
1.1554,93.048
1.1427,89.043
1.13,85.282
1.1144,82.253
1.0978,80.104
1.0802,79.03
1.0694,78.688
1.0665,78.688
1.0743,78.786
1.1075,79.127
1.173,79.616
1.2757,80.104
1.4145,80.69
1.5806,81.032
1.7566,81.277
1.9267,81.423
2.0772,81.277
2.2004,81.13
2.2864,80.69
2.3421,80.055
2.3793,79.323
2.3988,78.444
2.4027,77.418
2.393,76.49
2.3724,75.464
2.3431,74.536
2.305,73.657
2.26,72.875
2.2082,72.094
2.1515,71.41
2.0899,70.824
2.0332,70.238
1.9765,69.749
1.911,69.261
1.8426,68.724
1.7732,68.284
1.7058,67.942
1.6442,67.503
1.5914,67.112
1.5464,66.672
1.5103,66.233
1.4829,65.695
1.4624,65.109
1.4506,64.865
1.4448,65.793
1.4399,69.847
1.435,79.225
1.4282,94.171
1.4194,111.66
1.4106,126.41
1.4008,135.01
1.39,137.98
1.3783,138.86
1.3646,140.57
1.348,143.06
1.3304,144.29
1.3177,142.62
1.306,138.33
1.2923,133
1.2776,128.36
1.261,124.8
1.2434,121.67
1.2258,118.25
1.2092,114.2
1.1945,109.8
1.1828,105.55
1.173,101.55
1.1642,97.688
1.1603,93.683
1.1564,89.629
1.1486,85.673
1.1378,82.449
1.1261,80.104
1.1124,78.786
1.0987,78.248
1.0919,78.053
1.1007,78.102
1.1339,78.346
1.2004,78.883
1.3069,79.469
1.4516,80.104
1.5992,80.593
1.7507,80.935
1.9228,81.13
2.0929,81.13
2.2424,80.984
2.3636,80.69
2.4536,80.153
2.5132,79.469
2.5464,78.688
2.5601,77.76
2.5582,76.783
2.5455,75.806
2.5259,74.878
2.4995,73.999
2.4633,73.12
2.4194,72.387
2.3675,71.605
2.3099,70.97
2.2454,70.433
2.1769,69.847
2.1046,69.31
2.0313,68.821
1.958,68.382
1.8886,67.942
1.825,67.503
1.7752,67.063
1.7341,66.672
1.697,66.184
1.6676,65.695
1.6452,65.012
1.6305,64.425
1.6217,64.425
1.6158,66.623
1.6109,73.071
1.6061,85.184
1.6002,101.6
1.5924,118.11
1.5855,129.88
1.5777,135.44
1.5679,137.06
1.5562,138.03
1.5376,139.94
1.5191,141.6
1.5044,141.06
1.4858,137.74
1.4653,132.76
1.4448,127.68
1.4242,123.62
1.4057,120.45
1.3881,117.23
1.3763,113.61
1.3675,109.51
1.3558,105.26
1.3421,101.06
1.3294,97.053
1.3167,93.097
1.305,89.092
1.2952,85.184
1.2874,81.57
1.2796,78.59
1.2708,76.685
1.263,75.66
1.26,75.366
1.2669,75.366
1.2884,75.562
1.3363,75.904
1.4213,76.539
1.5474,77.223
1.7097,77.906
1.9003,78.444
2.1036,78.786
2.304,78.932
2.4858,78.883
2.6373,78.541
2.7546,78.102
2.8319,77.467
2.8778,76.685
2.9091,75.855
2.9238,74.976
2.9238,74.048
2.912,73.168
2.8905,72.289
2.8612,71.41
2.8231,70.629
2.7771,69.847
2.7224,69.261
2.6618,68.626
2.6041,68.089
2.5455,67.698
2.479,67.258
2.4096,66.721
2.3402,66.281
2.2737,65.793
2.2131,65.353
2.1603,64.865
2.1173,64.425
2.085,63.986
2.0626,63.595
2.0479,63.253
2.0411,63.155
2.0401,64.279
2.043,68.528
2.0469,78.346
2.0499,94.318
2.0518,112.68
2.0518,127.73
2.0499,135.64
2.045,137.5
2.0371,137.45
2.0283,138.62
2.0166,140.82
2.002,141.75
1.9873,139.69
1.9726,135.1
1.956,129.88
1.9404,125.58
1.9257,122.35
1.912,119.57
1.8983,116.3
1.8847,112.39
1.8719,108.04
1.8612,103.79
1.8514,99.886
1.8426,96.125
1.8348,92.218
1.828,88.359
1.8221,84.598
1.8133,81.618
1.8016,79.665
1.7869,78.786
1.7742,78.786
1.7683,79.03
1.7801,79.323
1.8221,79.567
1.9032,79.86
2.0283,80.349
2.1945,81.13
2.3607,81.716
2.5288,82.156
2.7234,82.253
2.913,82.009
3.0782,81.472
3.2082,80.788
3.3001,80.007
3.3548,79.176
3.3793,78.248
3.3832,77.369
3.3695,76.49
3.3441,75.611
3.3109,74.731
3.2717,73.901
3.2258,73.168
3.173,72.436
3.1144,71.752
3.0489,71.117
2.9775,70.531
2.8993,70.091
2.8152,69.652
2.7283,69.261
2.6422,68.821
2.5601,68.431
2.4829,67.942
2.4203,67.503
2.3705,67.063
2.3255,66.623
2.2884,66.184
2.26,65.744
2.2375,65.305
2.219,65.549
2.1984,67.991
2.1799,74.976
2.1662,88.115
2.1505,105.75
2.1329,122.7
2.1144,134.08
2.0938,138.57
2.0694,139.3
2.0411,139.99
2.0098,141.99
1.9756,143.8
1.9404,143.26
1.9052,139.79
1.87,134.81
1.8358,130.07
1.8016,126.31
1.7703,123.28
1.741,120.16
1.7175,116.49
1.697,112.29
1.6745,107.99
1.651,103.84
1.6285,99.935
1.6051,95.979
1.5826,91.973
1.5582,88.066
1.5337,84.598
1.5064,82.009
1.4751,80.349
1.4438,79.665
1.4203,79.469
1.4096,79.421
1.4164,79.469
1.4555,79.665
1.5357,80.007
1.6608,80.495
1.825,80.935
2.0147,81.277
2.2121,81.472
2.4008,81.57
2.563,81.423
2.6901,81.13
2.7791,80.593
2.828,79.909
2.8475,79.176
2.8485,78.297
2.8328,77.32
2.8045,76.343
2.7654,75.415
2.7175,74.536
2.6618,73.657
2.6012,72.875
2.5337,72.045
2.4594,71.312
2.3803,70.629
2.3069,69.994
2.2366,69.407
2.1554,68.968
2.0694,68.528
1.9834,68.186
1.9003,67.844
1.8221,67.551
1.7517,67.258
1.6911,66.916
1.6403,66.526
1.6002,66.037
1.5689,65.549
1.5455,65.06
1.5308,65.158
1.52,67.307
1.5064,73.755
1.4907,86.161
1.4731,103.35
1.4555,120.55
1.437,132.61
1.4164,137.98
1.3939,139.16
1.3724,139.99
1.3509,142.19
1.3284,144.29
1.3109,144.19
1.2952,141.06
1.2747,136.13
1.2532,131.1
1.2287,127.24
1.2023,124.16
1.1769,121.13
1.1535,117.47
1.131,113.32
1.1095,108.92
1.0899,104.72
1.0723,100.81
1.0587,97.004
1.0508,93.048
1.0459,89.043
1.0371,85.477
1.0244,82.595
1.0078,80.69
0.98925,79.762
0.97361,79.372
0.96774,79.323
0.98338,79.372
1.0332,79.616
1.1251,80.055
1.26,80.544
1.4076,81.032
1.5679,81.423
1.7586,81.618
1.9541,81.667
2.1339,81.618
2.2825,81.277
2.3959,80.886
2.4731,80.251
2.5191,79.469
2.5386,78.59
2.5386,77.662
2.523,76.734
2.4956,75.855
2.4624,74.976
2.4252,74.194
2.3783,73.315
2.3236,72.533
2.261,71.801
2.1906,71.117
2.1134,70.482
2.0313,69.847
1.9472,69.407
1.8661,68.968
1.7693,68.626
1.6852,68.235
1.6364,67.844
1.5934,67.503
1.5494,67.161
1.5103,66.819
1.479,66.428
1.4555,65.94
1.4389,65.353
1.4272,65.158
1.4194,66.233
1.4125,70.677
1.4037,80.544
1.3949,95.93
1.3842,113.51
1.3763,127.92
1.3675,136.08
1.3548,138.67
1.3402,139.55
1.3226,141.26
1.303,143.55
1.2805,144.48
1.2571,142.58
1.2346,138.03
1.2111,132.76
1.1887,128.12
1.1662,124.55
1.1515,121.38
1.1417,117.86
1.1281,113.66
1.1144,109.17
1.1017,104.72
1.089,100.47
1.0782,96.418
1.0684,92.413
1.0596,88.31
1.0508,84.354
1.0411,81.032
1.0293,78.59
1.0156,77.174
1.0068,76.49
1.0059,76.197
1.0147,76.05
1.045,76.099
1.1095,76.343
1.2151,76.881
1.3627,77.467
1.5435,78.004
1.7439,78.346
1.9453,78.492
2.132,78.541
2.2893,78.444
2.4027,78.199
2.478,77.809
2.5318,77.174
2.563,76.343
2.5748,75.415
2.5718,74.438
2.5562,73.51
2.5298,72.631
2.4946,71.801
2.4516,70.97
2.4018,70.189
2.3451,69.359
2.2825,68.675
2.2229,67.991
2.1642,67.356
2.0978,66.721
2.0274,66.233
1.957,65.744
1.8895,65.305
1.8035,64.865
1.7146,64.474
1.6549,64.132
1.6149,63.693
1.5894,63.302
1.5738,62.911
1.566,62.569
1.563,62.179
1.5621,62.227
1.563,63.937
1.564,69.407
1.566,80.886
1.5679,97.737
1.5689,115.76
1.5689,129.24
1.567,135.69
1.564,137.25
1.5582,137.98
1.5533,139.99
1.5494,142.19
1.5425,142.28
1.5337,139.3
1.5249,134.17
1.5152,128.95
1.5054,124.7
1.4966,121.43
1.4888,118.35
1.4829,114.78
1.477,110.68
1.4712,106.28
1.4653,102.18
1.4624,98.323
1.4614,94.513
1.4614,90.655
1.4594,86.796
1.4565,83.377
1.4526,80.69
1.4487,79.127
1.4438,78.541
1.4409,78.541
1.4448,78.786
1.4633,78.981
1.5064,79.225
1.564,79.616
1.6432,80.153
1.7615,80.935
1.9101,81.57
2.0733,82.009
2.2375,82.156
2.3871,82.058
2.5122,81.814
2.608,81.423
2.6735,80.886
2.7116,80.251
2.7283,79.421
2.7292,78.59
2.7185,77.809
2.6921,76.978
2.6637,76.246
2.6403,75.415
2.608,74.634
2.5699,73.755
2.5259,72.778
2.4761,71.947
2.4194,71.117
2.3587,70.433
2.2972,69.847
2.2366,69.407
2.1828,68.919
2.1359,68.431
2.089,67.844
2.0459,67.307
2.0098,66.721
1.9804,66.233
1.957,65.793
1.9394,65.353
1.9257,65.109
1.9159,65.842
1.9081,69.359
1.9013,78.053
1.8944,92.657
1.8876,110.63
1.8807,126.31
1.871,135.69
1.8583,138.86
1.8426,139.55
1.825,141.06
1.8065,143.6
1.7869,145.16
1.7664,143.75
1.7449,139.55
1.7234,134.22
1.7009,129.53
1.6804,125.97
1.6628,123.04
1.6442,119.86
1.6197,116.05
1.5973,111.76
1.5816,107.41
1.565,103.31
1.5484,99.3
1.5269,95.295
1.5073,91.29
1.4936,87.431
1.477,84.061
1.4575,81.57
1.4399,80.104
1.4242,79.567
1.4096,79.421
1.4027,79.421
1.4135,79.567
1.4506,79.762
1.5572,80.251
1.7165,80.886
1.8759,81.472
1.9951,81.912
2.1144,82.156
2.2424,82.156
2.3284,82.058
2.392,81.716
2.4301,81.228
2.4467,80.593
2.4516,79.811
2.4409,78.883
2.4135,77.858
2.391,76.881
2.3587,75.855
2.3089,74.927
2.2581,73.999
2.2053,73.12
2.1544,72.24
2.1026,71.41
2.043,70.677
1.9785,70.042
1.911,69.505
1.8426,69.066
1.7761,68.675
1.7146,68.284
1.6579,67.991
1.609,67.747
1.5679,67.405
1.5337,67.161
1.5093,66.819
1.4927,66.428
1.4761,65.842
1.4604,65.353
1.4467,65.549
1.433,67.796
1.4194,74.487
1.4057,87.187
1.3959,104.38
1.3822,121.43
1.3627,133.34
1.3451,138.77
1.3275,140.13
1.3128,141.31
1.3001,143.75
1.2825,146.04
1.2639,145.85
1.2454,142.58
1.2268,137.45
1.2082,132.22
1.1896,128.17
1.1711,124.99
1.1544,121.82
1.1378,118.01
1.1222,113.61
1.1124,109.12
1.1046,104.92
1.0938,101.01
1.0841,97.102
1.0753,93.097
1.0655,88.994
1.0547,85.233
1.042,82.302
1.0283,80.349
1.0156,79.421
1.0108,79.127
1.0215,79.127
1.0567,79.225
1.1095,79.567
1.1828,80.104
1.2903,80.739
1.4242,81.374
1.5699,81.814
1.7136,82.058
1.8446,82.156
1.9521,82.107
2.0332,81.912
2.088,81.57
2.1202,80.935
2.1339,80.104
2.1359,79.176
2.1271,78.199
2.1095,77.174
2.085,76.246
2.0547,75.366
2.0186,74.438
1.9765,73.559
1.9286,72.68
1.8759,71.85
1.8192,71.166
1.7605,70.531
1.7009,69.994
1.6413,69.554
1.5914,69.114
1.5484,68.724
1.5024,68.382
1.4594,68.04
1.4213,67.698
1.3881,67.356
1.3607,66.965
1.3402,66.623
1.3265,66.037
1.3177,65.549
1.3128,65.5
1.3109,67.161
1.3109,72.729
1.3109,83.865
1.3079,99.984
1.3021,117.13
1.2942,130.32
1.2845,137.25
1.2717,139.55
1.2581,140.87
1.2434,143.16
1.2278,145.6
1.2121,146.14
1.1955,143.46
1.1838,138.42
1.174,133.05
1.1613,128.7
1.1486,125.29
1.1359,122.16
1.1232,118.5
1.1114,114.2
1.0997,109.61
1.0899,105.26
1.0831,101.11
1.0772,97.2
1.0733,93.048
1.0694,88.945
1.0674,85.135
1.0655,81.912
1.0577,79.762
1.0479,78.492
1.042,77.858
1.0479,77.613
1.0733,77.467
1.1271,77.564
1.2121,77.858
1.3275,78.297
1.4653,78.737
1.6139,79.03
1.7429,79.323
1.8905,79.421
2.0547,79.372
2.176,79.225
2.261,78.932
2.3138,78.444
2.3412,77.76
2.349,76.881
2.3412,75.904
2.3226,75.073
2.2962,74.194
2.2639,73.315
2.2258,72.485
2.1867,71.654
2.1466,70.873
2.0997,70.042
2.0479,69.31
1.9912,68.675
1.9326,67.991
1.8729,67.405
1.8143,66.916
1.7576,66.477
1.7058,66.037
1.6598,65.598
1.6217,65.158
1.5953,64.816
1.5777,64.377
1.564,64.035
1.5543,63.742
1.5494,63.448
1.5484,63.155
1.5503,63.448
1.5523,65.695
1.5552,72.192
1.5582,84.745
1.5601,102.13
1.5601,119.57
1.5591,131.93
1.5582,137.5
1.5572,138.91
1.5533,140.04
1.5455,142.38
1.5357,144.48
1.5249,143.99
1.5142,140.38
1.5034,134.91
1.4946,129.63
1.4878,125.58
1.4809,122.31
1.4741,119.13
1.4702,115.37
1.4673,111.07
1.4633,106.68
1.4614,102.47
1.4604,98.567
1.4594,94.66
1.4594,90.655
1.4585,86.601
1.4565,82.937
1.4536,80.055
1.4506,78.297
1.4506,77.564
1.4604,77.467
1.48,77.613
1.5191,77.809
1.5914,78.053
1.7009,78.541
1.8456,79.323
2.0156,80.153
2.1984,80.984
2.3793,81.667
2.5435,82.058
2.6804,82.156
2.7859,82.058
2.8602,81.716
2.9022,81.228
2.9218,80.593
2.9296,79.909
2.9267,79.127
2.915,78.199
2.8954,77.223
2.869,76.343
2.8368,75.415
2.7986,74.536
2.7537,73.755
2.7038,73.071
2.6481,72.387
2.5894,71.801
2.5347,71.215
2.4829,70.726
2.4282,70.238
2.3744,69.749
2.3245,69.261
2.2796,68.821
2.2405,68.431
2.2092,68.04
2.1867,67.6
2.1701,66.965
2.1584,66.233
2.1505,65.842
2.1447,66.916
2.1398,71.654
2.1339,82.253
2.1271,98.372
2.1212,116.3
2.1153,130.51
2.1075,137.89
2.0968,140.04
2.0831,140.87
2.0665,142.72
2.0489,145.16
2.0303,145.75
2.0108,143.26
1.9932,138.33
1.9765,133
1.958,128.7
1.9404,125.43
1.9218,122.35
1.9032,118.74
1.8847,114.54
1.8671,110.24
1.8495,106.14
1.8338,102.18
1.8182,98.323
1.8025,94.22
1.7889,90.117
1.7742,86.161
1.7556,82.937
1.7351,80.593
1.7155,79.469
1.7009,79.127
1.6989,79.225
1.7195,79.421
1.7703,79.762
1.8573,80.153
1.9804,80.788
2.132,81.472
2.3001,82.107
2.4467,82.547
2.5728,82.742
2.6979,82.693
2.8035,82.351
2.8817,81.912
2.9326,81.277
2.9589,80.544
2.9658,79.665
2.9589,78.688
2.9413,77.76
2.914,76.734
2.8788,75.806
2.8397,74.927
2.7957,74.097
2.7439,73.315
2.6862,72.485
2.6217,71.801
2.5494,71.117
2.4721,70.531
2.392,69.994
2.3109,69.554
2.2307,69.163
2.1554,68.821
2.088,68.431
2.0283,68.04
1.9824,67.698
1.9482,67.307
1.9189,66.868
1.8944,66.379
1.8729,65.793
1.8543,65.549
1.8377,66.526
1.8211,70.873
1.8045,80.544
1.7869,96.076
1.7674,114
1.7488,129
1.7331,137.5
1.7175,140.38
1.6979,141.26
1.6755,143.02
1.652,145.41
1.6266,146.43
1.5992,144.29
1.5718,139.69
1.5455,134.37
1.52,129.88
1.4946,126.51
1.4702,123.43
1.4467,119.91
1.4291,115.81
1.4145,111.51
1.3959,107.31
1.3773,103.35
1.3617,99.495
1.347,95.441
1.3343,91.29
1.3196,87.431
1.303,84.11
1.2854,81.814
1.2669,80.446
1.2551,79.811
1.2551,79.567
1.2717,79.616
1.3148,79.811
1.3939,80.153
1.5132,80.69
1.6667,81.228
1.8436,81.667
2.0283,81.912
2.2053,82.058
2.3597,82.009
2.4858,81.863
2.5777,81.472
2.6334,80.984
2.6637,80.251
2.6794,79.469
2.6823,78.541
2.6725,77.613
2.651,76.734
2.6188,75.806
2.5758,74.976
2.5249,74.194
2.4663,73.364
2.4027,72.631
2.3343,71.85
2.262,71.166
2.1965,70.531
2.1329,69.994
2.0616,69.505
1.9883,69.066
1.9179,68.626
1.8534,68.235
1.7957,67.844
1.7468,67.503
1.7077,67.112
1.6784,66.623
1.6569,66.135
1.6413,65.5
1.6315,65.109
1.6237,65.842
1.6149,69.554
1.6051,78.346
1.5934,92.853
1.5806,110.44
1.566,125.87
1.5503,135.35
1.5337,139.01
1.5142,140.04
1.4927,141.6
1.4702,143.94
1.4487,145.16
1.4311,143.6
1.4164,139.3
1.3988,134.08
1.3793,129.49
1.3607,125.97
1.3421,122.99
1.3236,119.57
1.2463,115.57
1.1398,111.22
1.0782,106.97
1.0391,103.06
1.0137,99.154
1,95.197
0.99218,91.045
0.9824,87.187
0.9697,83.914
0.95503,81.472
0.93939,80.007
0.92669,79.176
0.92473,78.737
0.94526,78.444
1.001,78.346
1.1026,78.444
1.2512,78.737
1.4409,79.127
1.6276,79.421
1.8123,79.616
2.0166,79.616
2.2111,79.469
2.3783,79.176
2.5083,78.737
2.5992,78.199
2.6559,77.564
2.6852,76.783
2.6931,76.05
2.6833,75.22
2.6598,74.292
2.6285,73.364
2.5894,72.485
2.5396,71.605
2.479,70.922
2.4115,70.238
2.3382,69.554
2.2581,68.87
2.172,68.235
2.0831,67.6
1.9951,67.112
1.911,66.672
1.8338,66.281
1.7664,65.842
1.7146,65.5
1.6735,65.06
1.6364,64.621
1.6061,64.181
1.5846,63.742
1.5689,63.351
1.5582,63.009
1.5523,63.009
1.5494,64.425
1.5484,69.407
1.5474,80.153
1.5455,96.467
1.5425,114.69
1.5386,129.09
1.5308,136.67
1.5191,138.81
1.5044,139.3
1.4888,140.87
1.4741,142.87
1.4604,143.11
1.4487,140.23
1.436,135.1
1.4242,129.68
1.4125,125.43
1.4008,122.31
1.392,119.42
1.3842,116
1.3754,111.95
1.3666,107.6
1.3597,103.55
1.3539,99.691
1.35,95.93
1.3451,92.071
1.3392,88.066
1.3324,84.354
1.3236,81.374
1.3138,79.421
1.3069,78.444
1.3069,78.102
1.3187,78.199
1.3568,78.297
1.4321,78.492
1.5543,78.786
1.7253,79.421
1.9365,80.104
2.174,80.739
2.4164,81.179
2.6432,81.423
2.8397,81.423
2.9971,81.277
3.1007,81.032
3.1632,80.593
3.2043,80.104
3.2248,79.372
3.2287,78.541
3.218,77.662
3.1965,76.783
3.1642,76.001
3.1212,75.171
3.0694,74.438
3.0088,73.657
2.9413,72.924
2.8729,72.24
2.8016,71.605
2.7224,71.068
2.6393,70.531
2.5543,70.091
2.4712,69.652
2.3949,69.261
2.3284,68.821
2.2717,68.284
2.2278,67.844
2.1955,67.503
2.172,67.063
2.1564,66.623
2.1437,66.428
2.1329,67.551
2.1251,72.192
2.1193,82.498
2.1144,98.47
2.1075,116.49
2.0987,130.85
2.087,138.38
2.0723,140.38
2.0547,140.72
2.0342,142.14
2.0117,143.99
1.9892,144.24
1.9668,141.6
1.9413,136.86
1.9159,131.78
1.8895,127.73
1.8631,124.6
1.8358,121.72
1.8084,118.35
1.783,114.44
1.7586,110.29
1.7361,106.28
1.7146,102.57
1.694,98.763
1.6784,94.855
1.6628,90.801
1.6442,86.943
1.6217,83.67
1.5963,81.374
1.5709,80.104
1.5503,79.616
1.5435,79.616
1.565,79.762
1.6266,79.909
1.7351,80.251
1.8895,80.593
2.0489,81.13
2.2151,81.472
2.4115,81.814
2.61,81.912
2.7869,81.912
2.9296,81.667
3.0323,81.277
3.0968,80.739
3.129,79.909
3.1349,79.03
3.1212,78.102
3.0919,77.223
3.0508,76.294
3.002,75.464
2.9443,74.634
2.8778,73.803
2.8016,72.973
2.7165,72.24
2.6256,71.557
2.5269,70.922
2.4233,70.384
2.3177,69.798
2.2111,69.359
2.1075,68.919
2.0098,68.528
1.9277,68.186
1.8602,67.796
1.7957,67.405
1.739,67.063
1.6931,66.623
1.6559,66.135
1.6266,65.598
1.6041,65.5
1.5855,66.868
1.5699,71.801
1.5543,82.351
1.5367,98.421
1.52,116.25
1.5044,130.41
1.4839,138.13
1.4614,140.48
1.435,141.45
1.4057,143.26
1.3744,145.36
1.3412,145.7
1.3079,143.06
1.2737,138.18
1.2395,133.05
1.2053,128.85
1.1711,125.58
1.1447,122.5
1.1222,118.94
1.0968,114.93
1.0704,110.68
1.0469,106.53
1.0264,102.57
1.0078,98.567
0.98925,94.513
0.97165,90.41
0.95308,86.698
0.93255,83.572
0.90909,81.374
0.89052,80.153
0.87781,79.616
0.87097,79.567
0.88563,79.762
0.93646,80.104
1.0332,80.593
1.1808,81.228
1.3724,81.716
1.5904,82.107
1.8152,82.302
2.0283,82.351
2.2121,82.302
2.3568,82.107
2.4526,81.667
2.5103,81.032
2.5464,80.3
2.5601,79.372
2.5552,78.346
2.5367,77.32
2.5073,76.294
2.4682,75.366
2.4203,74.487
2.3636,73.657
2.3001,72.924
2.2297,72.24
2.1623,71.557
2.0938,70.922
2.0127,70.433
1.9247,69.945
1.8328,69.505
1.741,69.114
1.653,68.724
1.5718,68.382
1.4976,67.991
1.434,67.6
1.3822,67.258
1.3412,66.819
1.3099,66.233
1.2903,65.793
1.2972,65.988
1.3157,68.382
1.3206,75.073
1.3187,87.48
1.3138,104.38
1.305,121.18
1.2933,133.2
1.2776,138.77
1.26,140.43
1.2424,141.7
1.2239,143.8
1.2082,145.56
1.1935,144.87
1.175,141.26
1.1554,135.98
1.1339,131
1.1134,127.04
1.0929,123.92
1.0733,120.74
1.0547,116.98
1.0391,112.78
1.0254,108.63
1.0127,104.58
1.001,100.72
0.99511,96.809
0.99218,92.804
0.98631,88.75
0.97752,85.135
0.96872,82.156
0.95699,80.3
0.94526,79.372
0.93842,78.981
0.94624,78.981
0.97752,79.225
1.042,79.665
1.1447,80.251
1.26,80.935
1.391,81.57
1.5543,81.912
1.7292,82.156
1.8983,82.253
2.0459,82.107
2.1632,81.863
2.2493,81.374
2.305,80.739
2.3353,79.86
2.3451,78.981
2.3382,78.004
2.3206,76.978
2.2962,76.05
2.2659,75.171
2.2268,74.341
2.1799,73.559
2.1271,72.729
2.0684,71.947
2.0039,71.215
1.9355,70.629
1.8641,70.042
1.7928,69.554
1.7224,69.114
1.6549,68.675
1.5992,68.284
1.5533,67.991
1.5093,67.6
1.4721,67.258
1.4428,66.819
1.4203,66.281
1.4037,65.695
1.392,65.353
1.3832,66.379
1.3744,70.433
1.3646,79.616
1.3539,94.171
1.3431,111.22
1.3353,125.92
1.3294,134.76
1.3206,138.33
1.3089,139.6
1.2952,141.31
1.2786,143.5
1.261,144.29
1.2434,142.28
1.2258,137.79
1.2082,132.51
1.1906,127.87
1.173,124.16
1.1603,120.94
1.1496,117.37
1.1369,113.37
1.1222,109.07
1.1075,104.82
1.0929,100.81
1.0792,96.858
1.0674,92.853
1.0587,88.799
1.0518,84.94
1.044,81.472
1.0332,78.883
1.0215,77.223
1.0166,76.49
1.0205,76.246
1.0362,76.294
1.0772,76.539
1.1525,76.978
1.2649,77.613
1.4125,78.346
1.5855,79.127
1.7703,79.762
1.9501,80.104
2.1105,80.251
2.2414,80.104
2.3333,79.762
2.392,79.127
2.434,78.444
2.4585,77.564
2.4682,76.636
2.4643,75.611
2.4506,74.634
2.4291,73.608
2.4008,72.68
2.3646,71.801
2.3216,70.922
2.2717,70.189
2.217,69.505
2.1652,68.87
2.1124,68.382
2.0538,67.844
1.9922,67.356
1.9306,66.819
1.871,66.281
1.8162,65.744
1.7693,65.305
1.7312,64.914
1.7028,64.621
1.6833,64.181
1.6716,63.693
1.6657,63.302
1.6647,63.595
1.6667,66.233
1.6716,73.559
1.6764,87.04
1.6804,105.26
1.6833,122.79
1.6852,134.61
1.6843,139.45
1.6794,140.38
1.6725,141.31
1.6647,143.55
1.6559,145.26
1.6461,144.19
1.6344,140.13
1.6207,134.57
1.608,129.49
1.5973,125.72
1.5865,122.79
1.5767,119.67
1.567,115.86
1.5582,111.61
1.5503,107.36
1.5435,103.31
1.5367,99.447
1.5318,95.49
1.5279,91.436
1.522,87.431
1.5152,83.914
1.5073,81.374
1.4985,79.909
1.4917,79.421
1.4917,79.421
1.5083,79.665
1.5494,79.909
1.6227,80.251
1.7331,80.788
1.8524,81.472
1.9844,82.253
2.1496,82.791
2.3245,83.23
2.4888,83.377
2.6276,83.23
2.7341,82.84
2.8065,82.253
2.8485,81.423
2.8651,80.446
2.8651,79.372
2.8524,78.297
2.8299,77.223
2.8016,76.294
2.7693,75.318
2.7322,74.438
2.6901,73.559
2.6432,72.778
2.5904,72.045
2.5318,71.312
2.4682,70.726
2.4027,70.189
2.3353,69.652
2.2688,69.31
2.2053,68.919
2.1515,68.528
2.1065,68.235
2.0655,67.844
2.0313,67.503
2.0039,67.063
1.9834,66.477
1.9677,66.135
1.955,66.721
1.9443,70.238
1.9316,79.03
1.9179,93.927
1.9022,112.29
1.8847,128.41
1.868,138.13
1.8514,141.35
1.8328,141.89
1.8123,143.11
1.7908,145.36
1.7664,146.43
1.74,144.63
1.7126,140.04
1.6862,134.61
1.6598,129.97
1.6334,126.6
1.608,123.62
1.5875,120.3
1.5689,116.35
1.5484,112.05
1.5269,107.85
1.5054,103.94
1.4858,100.03
1.4663,96.125
1.4467,92.12
1.4272,88.164
1.4066,84.793
1.3832,82.302
1.3587,80.886
1.3392,80.251
1.3304,80.104
1.3353,80.153
1.3617,80.3
1.4194,80.593
1.5132,81.032
1.6403,81.618
1.7928,82.156
1.956,82.547
2.1144,82.742
2.2542,82.693
2.3675,82.351
2.4506,81.912
2.4995,81.277
2.522,80.544
2.5288,79.762
2.523,78.786
2.5064,77.858
2.48,76.929
2.4457,75.904
2.4047,74.976
2.3812,74.097
2.3656,73.315
2.3265,72.533
2.2737,71.85
2.2121,71.166
2.1535,70.629
2.0938,70.042
2.0264,69.652
1.956,69.31
1.8856,68.919
1.8192,68.626
1.7586,68.235
1.7048,67.844
1.6588,67.503
1.6227,67.063
1.5953,66.526
1.5728,66.037
1.5572,65.988
1.5445,67.844
1.5308,73.852
1.5181,85.721
1.5044,102.67
1.4897,120.25
1.4731,133.2
1.4545,139.45
1.434,141.06
1.4135,141.99
1.393,144.14
1.3715,146.19
1.349,146
1.3314,142.72
1.3177,137.59
1.3021,132.51
1.2854,128.51
1.2669,125.43
1.2473,122.35
1.2278,118.69
1.2082,114.49
1.1896,110.19
1.173,106.04
1.1574,102.13
1.1437,98.225
1.1359,94.123
1.131,90.069
1.1222,86.259
1.1114,83.23
1.0978,81.179
1.0821,80.055
1.0684,79.567
1.0655,79.421
1.085,79.567
1.1369,79.86
1.2258,80.349
1.3519,80.984
1.5083,81.472
1.6608,81.912
1.8065,82.156
1.9629,82.302
2.1095,82.253
2.2317,81.912
2.3236,81.472
2.3851,80.788
2.4213,80.055
2.437,79.225
2.436,78.346
2.4242,77.369
2.4027,76.441
2.3754,75.415
2.3431,74.487
2.303,73.657
2.2551,72.924
2.1994,72.24
2.1388,71.557
2.0723,70.922
2.002,70.384
1.9306,69.945
1.8592,69.505
1.7908,69.114
1.7253,68.724
1.6657,68.431
1.6197,68.04
1.5826,67.551
1.5484,66.965
1.52,66.379
1.4985,65.842
1.4839,65.598
1.4731,66.428
1.4653,69.945
1.4575,78.248
1.4477,92.364
1.437,109.95
1.4262,125.72
1.4174,135.69
1.4106,139.6
1.3998,140.67
1.3871,142.04
1.3715,144.29
1.3539,145.51
1.3343,143.85
1.3148,139.5
1.2962,134.08
1.2776,129.29
1.26,125.68
1.2424,122.5
1.2268,118.94
1.216,114.73
1.2072,110.29
1.1965,105.99
1.1848,101.94
1.174,97.981
1.1642,93.976
1.1544,89.824
1.1447,85.721
1.1349,82.107
1.1232,79.372
1.1114,77.613
1.0997,76.685
1.0958,76.294
1.1056,76.246
1.1359,76.343
1.1965,76.734
1.2942,77.223
1.4301,77.809
1.5973,78.297
1.781,78.737
1.9658,79.03
2.1349,79.176
2.2786,79.176
2.392,78.932
2.4663,78.444
2.5112,77.809
2.5406,77.027
2.5533,76.197
2.5543,75.318
2.5445,74.292
2.5239,73.315
2.4956,72.289
2.4594,71.41
2.4164,70.629
2.3656,69.798
2.3089,69.066
2.2463,68.382
2.1867,67.747
2.1281,67.161
2.0645,66.672
2,66.233
1.9374,65.695
1.8798,65.158
1.8299,64.67
1.7879,64.279
1.7546,63.839
1.7312,63.448
1.7136,63.009
1.7019,62.569
1.696,62.618
1.6931,64.377
1.6931,69.945
1.695,81.472
1.697,98.665
1.6979,117.03
1.6979,131
1.697,137.54
1.695,138.91
1.6921,139.11
1.6862,140.57
1.6774,142.38
1.6667,142.19
1.6569,138.91
1.6461,133.64
1.6325,128.31
1.6188,124.16
1.607,121.18
1.5963,118.35
1.5865,114.93
1.5787,110.97
1.5738,106.72
1.5699,102.72
1.567,98.86
1.566,95.051
1.566,91.192
1.566,87.187
1.564,83.572
1.5601,80.739
1.5523,78.981
1.5425,78.297
1.5357,78.297
1.5406,78.541
1.5689,78.883
1.6295,79.176
1.7302,79.665
1.8719,80.349
2.0479,81.179
2.2151,81.863
2.3734,82.302
2.5464,82.449
2.7107,82.302
2.8495,82.009
2.957,81.472
3.0323,80.886
3.0802,80.055
3.1046,79.225
3.1114,78.444
3.1056,77.662
3.089,76.929
3.0645,76.05
3.0323,75.171
2.9951,74.292
2.9521,73.51
2.9022,72.778
2.8456,72.094
2.782,71.41
2.7136,70.726
2.6432,70.042
2.5718,69.505
2.5015,68.968
2.436,68.479
2.3763,67.991
2.3284,67.503
2.2903,66.965
2.259,66.477
2.2336,65.842
2.2131,65.353
2.1984,65.353
2.1877,67.356
2.1799,73.608
2.1711,86.063
2.1613,103.6
2.1505,121.48
2.1369,134.13
2.1222,139.6
2.1056,140.62
2.087,141.01
2.0665,142.67
2.044,144.29
2.0186,143.75
1.9912,140.23
1.9648,135.05
1.9374,129.97
1.9081,126.16
1.8798,123.14
1.8514,120.06
1.8221,116.44
1.7977,112.39
1.7752,108.24
1.7507,104.28
1.7263,100.57
1.7038,96.809
1.6813,92.853
1.6598,88.945
1.6364,85.379
1.6109,82.498
1.5826,80.593
1.5533,79.665
1.5298,79.372
1.5181,79.323
1.5239,79.372
1.5386,79.567
1.5816,79.909
1.6764,80.495
1.8113,81.032
1.9726,81.472
2.1427,81.716
2.305,81.814
2.4457,81.667
2.5552,81.374
2.6315,80.886
2.6764,80.153
2.694,79.372
2.6911,78.444
2.6755,77.418
2.6481,76.49
2.6119,75.562
2.5699,74.731
2.522,73.901
2.4692,73.12
2.4115,72.289
2.348,71.557
2.2796,70.824
2.2063,70.189
2.1388,69.603
2.0723,69.163
1.999,68.724
1.9238,68.382
1.8504,67.991
1.781,67.6
1.7185,67.258
1.6647,66.868
1.6197,66.428
1.5826,65.94
1.5533,65.305
1.5308,64.816
1.5122,65.256
1.4985,68.186
1.4878,75.904
1.4751,89.727
1.4614,107.6
1.4467,124.31
1.4311,135.05
1.4135,139.16
1.393,139.99
1.3705,141.01
1.346,143.06
1.3206,144.48
1.2942,143.36
1.2737,139.45
1.2561,134.32
1.2356,129.53
1.2141,125.87
1.1926,122.75
1.1711,119.37
1.1505,115.47
1.132,111.32
1.1144,107.12
1.0978,103.16
1.0831,99.3
1.0704,95.344
1.0577,91.29
1.0508,87.382
1.045,83.914
1.0342,81.374
1.0196,79.762
1.0029,78.932
0.9912,78.59
0.99218,78.59
1.0156,78.883
1.0723,79.323
1.1662,79.909
1.2981,80.544
1.4575,81.032
1.609,81.423
1.7517,81.618
1.9013,81.618
2.0362,81.472
2.1466,81.179
2.2258,80.593
2.2757,79.909
2.3001,79.03
2.3069,78.102
2.3001,77.174
2.2815,76.197
2.2522,75.22
2.2209,74.341
2.1867,73.51
2.1447,72.68
2.0948,71.996
2.0391,71.312
1.9775,70.726
1.9101,70.091
1.8407,69.603
1.7693,69.114
1.6999,68.675
1.6334,68.235
1.5709,67.844
1.5152,67.503
1.4721,67.112
1.4389,66.721
1.4076,66.281
1.3812,65.744
1.3617,65.109
1.349,64.914
1.3402,66.184
1.3343,70.922
1.3294,81.277
1.3245,97.2
1.3177,114.88
1.3099,129.09
1.303,136.86
1.2952,139.3
1.2815,140.13
1.2659,141.79
1.2493,143.94
1.2317,144.48
1.2121,142.04
1.1916,137.3
1.1711,132.07
1.1515,127.53
1.1329,124.06
1.1153,120.74
1.0997,117.13
1.089,113.07
1.0821,108.87
1.0723,104.82
1.0616,100.81
1.0518,96.809
1.042,92.608
1.0332,88.506
1.0235,84.793
1.0127,81.863
1,79.909
0.98631,78.786
0.97458,78.248
0.97165,78.004
0.9824,78.004
1.0137,78.297
1.0753,78.883
1.174,79.567
1.3069,80.153
1.4653,80.593
1.6373,80.886
1.8074,80.984
1.9599,81.032
2.085,80.935
2.1799,80.69
2.2444,80.104
2.2796,79.372
2.2952,78.444
2.2981,77.418
2.2884,76.441
2.2688,75.415
2.2405,74.487
2.2043,73.608
2.1603,72.729
2.1105,71.85
2.0547,71.117
1.9951,70.384
1.9326,69.652
1.8749,69.066
1.8201,68.382
1.7586,67.747
1.697,67.112
1.6373,66.428
1.5826,65.793
1.5337,65.256
1.4917,64.67
1.4565,64.035
1.4291,63.351
1.4086,62.618
1.393,61.885
1.3812,61.739
1.3744,63.448
1.3715,69.261
1.3675,81.13
1.3627,98.225
1.3578,116.1
1.3519,129.29
1.3441,135.64
1.3353,137.2
1.3245,137.98
1.3109,140.04
1.2933,142.19
1.2747,142.19
1.261,139.01
1.2493,133.64
1.2346,128.12
1.2199,123.82
1.2063,120.5
1.1935,117.42
1.1818,113.81
1.172,109.61
1.1623,105.26
1.1544,101.06
1.1496,97.053
1.1457,93.097
1.1417,89.043
1.1417,85.038
1.1427,81.374
1.1408,78.346
1.1359,76.294
1.129,75.22
1.1232,74.878
1.1261,74.878
1.1476,75.122
1.1975,75.562
1.2815,76.197
1.4027,76.978
1.5552,77.809
1.7038,78.492
1.8485,78.932
2.0078,79.127
2.1584,79.127
2.2874,78.932
2.3871,78.59
2.4565,78.053
2.4995,77.369
2.52,76.539
2.5239,75.66
2.5161,74.731
2.4985,73.803
2.4741,72.778
2.4467,71.947
2.4154,71.117
2.3773,70.287
2.3324,69.603
2.2825,68.968
2.2278,68.431
2.1701,67.844
2.1105,67.307
2.0508,66.721
1.9941,66.184
1.9423,65.598
1.8954,65.109
1.8583,64.718
1.8299,64.377
1.8065,64.132
1.7898,63.79
1.7791,63.546
1.7742,63.742
1.7742,65.549
1.7771,71.41
1.781,83.426
1.784,100.91
1.7859,119.37
1.7859,132.81
1.784,138.86
1.781,139.99
1.7761,140.43
1.7674,142.23
1.7576,144.14
1.7468,143.75
1.7361,140.13
1.7243,134.61
1.7126,129.09
1.7361,124.8
1.7761,121.48
1.7889,118.25
1.7889,114.49
1.7849,110.29
1.7791,106.04
1.7713,101.99
1.7625,98.177
1.7537,94.318
1.7449,90.41
1.737,86.503
1.7292,82.986
1.7185,80.251
1.7048,78.59
1.6891,77.906
1.6784,77.906
1.6804,78.199
1.697,78.346
1.7351,78.541
1.8094,78.883
1.9247,79.323
2.0772,79.811
2.2542,80.3
2.4399,80.593
2.6168,80.739
2.7693,80.69
2.8905,80.446
2.9765,80.007
3.0293,79.372
3.0499,78.59
3.0489,77.662
3.0362,76.734
3.0147,75.855
2.9844,74.976
2.9462,74.194
2.9022,73.315
2.8514,72.436
2.7937,71.605
2.7302,70.873
2.6598,70.238
2.5836,69.652
2.5034,69.114
2.4321,68.528
2.3656,68.04
2.2942,67.6
2.2258,67.258
2.1632,66.916
2.1085,66.623
2.0635,66.233
2.0274,65.793
1.999,65.305
1.9756,64.816
1.956,64.279
1.9404,64.425
1.9277,66.477
1.915,72.778
1.8983,85.184
1.8798,102.43
1.8592,119.86
1.8377,132.32
1.8143,137.94
1.7889,139.3
1.7625,140.33
1.7361,142.43
1.7087,144.48
1.6794,144.14
1.6549,140.67
1.6334,135.3
1.608,129.93
1.5806,125.63
1.5523,122.16
1.5259,118.74
1.4995,114.88
1.4741,110.63
1.4497,106.28
1.4262,102.18
1.4047,98.323
1.3851,94.367
1.3656,90.41
1.3509,86.552
1.3382,83.182
1.3226,80.593
1.303,78.981
1.2805,78.199
1.259,77.858
1.2483,77.809
1.2561,77.906
1.2952,78.297
1.3724,78.883
1.4888,79.567
1.6373,80.153
1.783,80.69
1.9247,80.984
2.0782,81.13
2.2219,81.032
2.3412,80.788
2.4282,80.349
2.4819,79.762
2.5083,78.883
2.5132,77.906
2.5015,76.929
2.477,75.904
2.4448,75.073
2.4057,74.194
2.3666,73.315
2.3255,72.436
2.2473,71.605
2.1867,70.824
2.1202,70.042
2.0137,69.505
1.9394,68.968
1.8651,68.528
1.7918,68.186
1.7224,67.747
1.6588,67.307
1.61,66.916
1.5709,66.526
1.5337,66.233
1.5024,65.842
1.478,65.402
1.4604,64.914
1.4428,64.377
1.433,64.279
1.4233,65.842
1.4086,71.312
1.3978,82.449
1.3851,98.763
1.3754,116.25
1.3656,129.63
1.3509,136.37
1.3333,138.23
1.3138,139.16
1.2933,141.26
1.2717,143.55
1.2493,143.94
1.2278,141.26
1.2082,136.32
1.1887,131
1.1701,126.56
1.1574,122.99
1.1466,119.62
1.1339,115.81
1.1212,111.56
1.1095,107.16
1.0987,103.01
1.089,99.056
1.0802,95.051
1.0694,90.948
1.0577,86.943
1.045,83.279
1.0303,80.495
1.0166,78.688
1.0137,77.76
1.0254,77.369
1.0577,77.223
1.1222,77.369
1.2913,77.809
1.4409,78.444
1.61,79.225
1.87,79.909
2.0254,80.3
2.1544,80.544
2.2522,80.593
2.3324,80.69
2.3607,80.593
2.3715,80.349
2.3636,79.762
2.3431,78.932
2.3138,78.004
2.2766,76.978
2.2326,76.05
2.1838,75.171
2.129,74.341
2.0684,73.51
2.0029,72.533
1.9433,71.752
1.8856,70.97
1.8211,70.384
1.7546,69.749
1.6901,69.114
1.6305,68.528
1.5777,68.04
1.5337,67.6
1.4966,67.258
1.4682,66.868
1.4487,66.477
1.435,66.135
1.4291,65.598
1.4282,65.158
1.4282,64.67
1.4272,64.23
1.4242,64.279
1.4203,66.233
1.4135,71.996
1.4027,83.426
1.39,99.593
1.3754,116.54
1.3597,129.29
1.3441,135.88
1.3275,138.03
1.3157,139.35
1.305,141.55
1.2893,143.7
1.2717,143.6
1.2542,140.57
1.2375,135.3
1.2209,129.88
1.2043,125.19
1.1887,121.38
1.175,117.76
1.1632,113.66
1.1525,109.36
1.1466,105.01
1.1427,100.72
1.1369,96.662
1.13,92.608
1.1202,88.408
1.1095,84.354
1.0997,80.69
1.0987,77.76
1.1163,75.66
1.1613,74.536
1.2405,73.999
1.3578,73.803
1.5093,73.901
1.6588,74.243
1.8065,74.878
1.9707,75.611
2.1271,76.343
2.262,77.027
2.3685,77.564
2.4467,77.858
2.4976,78.102
2.5249,78.199
2.5347,77.906
2.5308,77.467
2.5152,76.783
2.4927,76.001
2.4633,75.073
2.4252,74.097
2.3793,73.168
2.3265,72.24
2.2688,71.312
2.2092,70.384
2.1457,69.407
2.0811,68.528
2.0186,67.844
1.958,67.258
1.9013,66.672
1.8514,66.233
1.8133,65.744
1.7849,65.256
1.7537,64.718
1.7253,64.23
1.7097,63.742
1.7028,63.302
1.7019,62.911
1.7048,62.569
1.7087,62.13
1.7136,61.739
1.7175,61.983
1.7204,64.279
1.7243,70.97
1.7263,83.865
1.7253,101.55
1.7224,119.18
1.7175,131.39
1.7126,136.57
1.7067,137.5
1.6999,138.23
1.6911,140.23
1.6804,142.04
1.6696,141.26
1.6598,137.3
1.6491,131.63
1.6403,126.26
1.6344,122.06
1.6285,118.89
1.6246,115.66
