1.6197,126.99
1.5943,125.97
1.5718,124.7
1.5543,123.04
1.5357,121.04
1.5132,118.79
1.4927,116.44
1.4761,113.9
1.4604,111.22
1.4399,108.53
1.4106,105.99
1.3793,103.55
1.3509,101.6
1.3245,100.13
1.305,99.056
1.2952,98.03
1.2903,97.249
1.2942,96.467
1.3148,95.93
1.3607,95.49
1.4389,95.051
1.5494,94.758
1.6813,94.562
1.8309,94.513
1.9932,94.318
2.1544,93.927
2.3099,93.536
2.433,93.292
2.5269,92.95
2.6158,92.56
2.6921,92.169
2.7566,91.729
2.8074,91.241
2.8426,90.655
2.8641,90.117
2.868,89.482
2.8543,88.945
2.824,88.506
2.783,88.261
2.737,88.066
2.6882,87.822
2.6344,87.48
2.5758,87.138
2.5142,86.943
2.4506,86.698
2.3871,86.308
2.3255,85.868
2.2698,85.477
2.2219,85.135
2.1818,84.745
2.1457,84.403
2.1153,84.5
2.0899,85.575
2.0674,88.164
2.044,92.56
2.0186,98.177
1.9902,104.38
1.9599,110.29
1.9316,115.32
1.9042,119.03
1.8778,121.87
1.8514,124.16
1.826,125.97
1.8006,127.29
1.781,127.92
1.7615,127.92
1.7331,127.29
1.6989,126.26
1.6657,124.85
1.6364,123.18
1.6061,121.18
1.5709,118.79
1.5406,116.25
1.5191,113.76
1.4985,111.12
1.4751,108.24
1.4536,105.36
1.437,102.91
1.4154,100.86
1.392,99.251
1.3773,98.323
1.3695,97.591
1.3656,96.858
1.3705,96.076
1.3949,95.441
1.4497,95.197
1.5376,94.904
1.6559,94.66
1.7986,94.318
1.9384,93.878
2.0723,93.439
2.2239,93.048
2.3734,92.755
2.5093,92.315
2.6325,91.876
2.739,91.436
2.825,91.045
2.8905,90.606
2.9365,90.215
2.9629,89.922
2.9726,89.531
2.9707,89.189
2.9629,88.847
2.9501,88.554
2.9277,88.261
2.8935,87.822
2.8475,87.431
2.7889,87.138
2.7204,86.747
2.651,86.356
2.5836,85.966
2.5181,85.624
2.4526,85.184
2.3881,84.696
2.3333,84.158
2.2864,83.719
2.2405,83.426
2.2014,83.475
2.1681,84.549
2.1359,87.187
2.1036,91.632
2.0743,97.346
2.0401,103.45
2.0039,108.82
1.9668,113.17
1.9286,116.54
1.8964,119.23
1.868,121.28
1.8338,122.99
1.8006,124.11
1.7752,124.7
1.7498,124.5
1.7273,123.72
1.7058,122.6
1.6823,121.18
1.6579,119.33
1.6325,117.18
1.607,114.98
1.5816,112.54
1.5591,109.75
1.5347,106.63
1.5034,103.6
1.4682,101.01
1.4311,98.665
1.3969,96.76
1.3666,95.099
1.3382,93.781
1.3148,92.755
1.303,91.925
1.3099,91.192
1.3421,90.508
1.3939,89.922
1.4682,89.629
1.5767,89.385
1.7107,89.092
1.8651,88.799
2.0293,88.603
2.1887,88.506
2.3402,88.164
2.477,87.529
2.5904,86.845
2.6794,86.356
2.7468,86.112
2.7967,85.819
2.825,85.477
2.8358,85.038
2.8377,84.696
2.8289,84.256
2.8025,83.865
2.7586,83.475
2.7058,83.182
2.6413,82.84
2.567,82.547
2.4848,82.253
2.391,81.912
2.2903,81.618
2.1984,81.277
2.1144,80.886
2.0352,80.495
1.9648,80.153
1.8993,80.104
1.8368,80.007
1.7752,79.616
1.7136,79.225
1.653,80.007
1.5963,82.498
1.5445,86.698
1.4966,92.169
1.4497,98.323
1.4145,104.23
1.3861,109.61
1.349,114.25
1.3079,117.62
1.2639,120.11
1.2199,122.26
1.175,123.72
1.1329,124.6
1.0968,125.14
1.0635,125.29
1.0323,124.75
1.0088,123.67
0.99707,122.26
0.98338,120.5
0.9697,118.5
0.95503,116.3
0.93255,113.66
0.90616,110.73
0.87781,107.8
0.84848,105.11
0.81818,102.62
0.78788,100.33
0.75758,98.372
0.72727,97.004
0.70479,95.93
0.69697,95.197
0.70479,94.806
0.73509,94.562
0.79961,94.367
0.9042,94.123
1.0469,93.976
1.2248,93.927
1.4233,94.123
1.6285,94.171
1.8299,93.781
2.0176,92.999
2.1877,92.218
2.3177,91.729
2.4164,91.241
2.5044,90.557
2.5787,89.873
2.6383,89.434
2.6794,88.945
2.7038,88.359
2.7087,87.626
2.696,86.796
2.6706,85.966
2.6315,85.282
2.5777,84.989
2.5132,85.428
2.4506,86.112
2.3891,86.601
2.3196,86.943
2.2434,87.138
2.1603,86.698
2.0802,85.575
2.0098,84.061
1.9443,82.937
1.8856,82.107
1.8368,81.814
1.7977,82.351
1.7703,84.256
1.7566,88.066
1.7458,93.781
1.7331,100.72
1.7155,107.41
1.695,112.73
1.6735,116.69
1.6471,119.81
1.6188,122.55
1.5934,124.99
1.5738,126.7
1.5601,127.53
1.5494,127.63
1.5367,127.04
1.5269,125.87
1.5181,124.11
1.5015,122.11
1.4751,119.86
1.4389,117.62
1.4018,115.42
1.3675,113.17
1.3324,110.53
1.2913,107.55
1.2483,104.82
1.2043,102.47
1.1593,100.67
1.1261,99.056
1.1017,97.591
1.0743,96.614
1.0528,96.076
1.0499,95.637
1.0714,95.344
1.1193,95.099
1.2004,94.513
1.3206,93.341
1.4712,92.511
1.6373,92.364
1.8074,92.511
1.9756,92.413
2.1173,92.071
2.2375,91.387
2.3539,90.85
2.4545,91.045
2.5386,91.534
2.607,91.485
2.6598,90.752
2.694,90.362
2.7077,90.606
2.7028,90.606
2.6813,89.629
2.6442,87.968
2.5953,86.943
2.5367,87.04
2.4692,87.724
2.3978,87.626
2.3206,86.405
2.2405,84.598
2.1623,83.23
2.089,82.986
2.0225,83.426
1.9589,84.012
1.8964,84.11
1.8387,83.816
1.7869,83.377
1.7458,83.279
1.7136,84.256
1.6794,86.796
1.6393,91.29
1.6041,97.249
1.5718,103.5
1.5406,109.12
1.5093,113.56
1.4751,116.93
1.4428,119.57
1.4076,121.62
1.3705,123.28
1.3451,124.5
1.3206,125.04
1.2893,124.75
1.259,123.92
1.2287,122.79
1.1984,121.43
1.172,119.77
1.1466,117.67
1.1232,115.37
1.1075,112.98
1.0997,110.63
1.0958,107.99
1.0938,105.36
1.085,103.01
1.0655,101.01
1.0401,99.251
1.0127,97.737
0.98338,96.614
0.95797,95.881
0.94526,95.099
0.95406,94.562
0.99609,94.123
1.0743,93.781
1.1857,93.439
1.3284,92.95
1.4673,92.413
1.6051,92.071
1.7654,91.729
1.9286,91.485
2.0821,91.241
2.2199,90.997
2.3343,90.655
2.4174,90.166
2.4702,89.678
2.5005,89.287
2.5083,88.994
2.5005,88.945
2.4858,88.847
2.4594,88.408
2.4233,87.675
2.3822,87.187
2.3392,87.138
2.2874,87.187
2.2239,86.991
2.1544,86.747
2.085,86.405
2.0166,85.966
1.9482,85.477
1.8837,85.038
1.8211,84.94
1.7664,84.696
1.7165,84.061
1.6657,83.035
1.6207,82.351
1.5836,82.791
1.5533,84.549
1.5308,87.431
1.5122,91.632
1.4956,97.737
1.479,104.72
1.4633,110.24
1.4477,113.76
1.437,117.18
1.4272,121.48
1.4106,124.99
1.391,126.75
1.3705,127.04
1.3451,126.41
1.3167,125.38
1.2874,124.55
1.2542,124.02
1.218,122.99
1.1848,120.94
1.1535,118.2
1.1261,115.47
1.1095,113.07
1.0968,110.44
1.087,107.6
1.0743,105.06
1.0567,103.16
1.0401,102.18
1.0205,101.69
0.99511,101.06
0.97556,99.935
0.96579,98.763
0.96774,97.786
0.99609,96.614
1.0401,94.904
1.1036,93.536
1.2033,93.341
1.3372,93.732
1.4946,93.536
1.6647,92.413
1.8289,91.094
1.9795,90.508
2.1193,90.655
2.2454,91.094
2.3539,91.192
2.5083,90.85
2.6735,90.606
2.7595,90.362
2.7996,89.873
2.8123,89.385
2.8035,89.043
2.781,88.75
2.7478,88.261
2.7058,87.529
2.651,86.943
2.5865,86.161
2.5181,84.745
2.4467,82.253
2.3783,79.811
2.3216,79.811
2.2717,83.377
2.217,88.603
2.1672,92.169
2.1241,91.68
2.0802,87.626
2.0401,83.67
2.0059,83.182
1.9736,85.575
1.9433,88.408
1.913,91.387
1.8866,95.783
1.8661,101.99
1.8524,108.39
1.8416,113.51
1.8289,117.13
1.8152,119.42
1.7977,120.94
1.7781,122.5
1.7576,124.31
1.7322,125.48
1.7009,125.92
1.6706,126.75
1.6413,128.56
1.6109,129.53
1.5885,127.48
1.567,122.6
1.5445,117.03
1.523,113.07
1.5005,111.17
1.479,110.09
1.4536,108.29
1.4262,105.6
1.4047,102.72
1.3871,100.13
1.3705,97.884
1.3627,96.321
1.3587,95.93
1.3636,96.369
1.3812,96.614
1.4115,96.223
1.4712,95.295
1.563,93.927
1.6794,92.608
1.8182,91.778
1.9756,91.241
2.131,90.606
2.2757,89.629
2.4106,88.408
2.5327,87.382
2.6276,86.991
2.697,87.138
2.7566,86.943
2.8055,86.356
2.8446,85.917
2.8749,85.624
2.8944,84.989
2.8964,84.256
2.8788,83.816
2.8446,83.572
2.8016,83.133
2.7507,82.449
2.6882,81.863
2.6276,81.423
2.5679,81.13
2.5015,80.886
2.4311,80.544
2.3627,80.251
2.2991,80.055
2.2385,80.055
2.1779,79.86
2.1183,79.323
2.0665,78.541
2.0264,78.297
1.9873,78.932
1.9531,81.179
1.9179,85.184
1.8817,90.655
1.8495,96.907
1.8113,102.87
1.7771,107.85
1.7458,111.8
1.7077,114.98
1.6745,117.57
1.6432,119.67
1.609,121.28
1.5767,122.26
1.5464,122.35
1.5239,121.91
1.5015,120.89
1.4751,119.33
1.4477,117.76
1.4154,116.35
1.3842,114.69
1.3539,111.85
1.3275,108.39
1.3069,105.31
1.2864,103.01
1.261,100.67
1.2336,98.128
1.2131,95.637
1.1955,93.732
1.172,92.608
1.1486,91.778
1.1339,90.997
1.1369,90.069
1.1681,89.189
1.2278,88.554
1.3167,87.968
1.435,87.382
1.5816,86.601
1.7468,86.063
1.8954,85.917
2.0362,86.308
2.1877,86.503
2.3255,86.112
2.4428,85.575
2.5376,85.624
2.6109,86.161
2.6667,86.503
2.7048,85.917
2.7312,84.745
2.7449,83.816
2.7439,83.67
2.7292,84.403
2.7038,85.477
2.6686,86.259
2.6178,85.721
2.5552,83.865
2.4878,81.863
2.4174,81.57
2.3451,83.182
2.2717,85.184
2.2023,85.819
2.1378,84.403
2.0762,82.595
2.0235,81.667
1.9863,81.423
1.957,81.57
1.9277,82.351
1.8983,84.696
1.8719,89.189
1.8514,95.881
1.8338,103.45
1.8143,110.05
1.7937,114.73
1.7761,118.11
1.7566,120.94
1.7351,123.48
1.7097,125.58
1.6862,126.75
1.6676,127.14
1.6432,126.6
1.6197,125.68
1.6002,124.26
1.5836,122.35
1.5679,120.25
1.5523,118.25
1.5376,116.3
1.523,114.1
1.5083,111.17
1.4976,107.55
1.4917,103.35
1.4848,99.495
1.4741,96.76
1.4614,95.099
1.4477,94.22
1.434,94.074
1.4233,94.367
1.4213,94.66
1.4321,94.806
1.4663,94.904
1.5347,95.344
1.6393,96.321
1.7761,97.737
1.9101,99.105
2.0469,99.886
2.2043,99.789
2.3636,99.154
2.5239,97.932
2.6784,95.881
2.8104,93.439
2.9169,91.192
2.999,89.434
3.0587,87.919
3.0997,86.552
3.1241,85.184
3.1329,83.914
3.1261,83.23
3.1075,83.426
3.0802,84.012
3.0411,84.158
2.9922,83.865
2.9306,83.426
2.8592,83.182
2.7869,83.279
2.7136,84.061
2.6442,85.233
2.5797,85.966
2.5181,85.184
2.4653,82.791
2.4203,80.886
2.3754,81.618
2.3353,84.5
2.3001,86.991
2.2678,89.238
2.2375,93.341
2.2072,99.593
2.1779,106.38
2.1476,112.1
2.1144,116.49
2.0753,119.57
2.0411,121.87
2.0137,124.11
1.9853,126.99
1.956,130.17
1.9267,132.51
1.8974,132.37
1.868,129.29
1.8426,124.41
1.8152,119.77
1.7869,116.69
1.7654,115.42
1.7468,114.54
1.7302,112.73
1.7146,109.95
1.696,106.72
1.6725,103.74
1.6422,101.01
1.6041,98.812
1.563,97.297
1.521,95.979
1.4848,94.66
1.4594,93.683
1.4438,93.048
1.4428,92.853
1.4682,92.804
1.5142,93.195
1.5846,93.878
1.6901,94.416
1.8231,94.416
1.9814,94.318
2.1153,94.367
2.2287,94.367
2.3617,94.074
2.4897,93.341
2.6002,92.413
2.6921,91.534
2.7595,90.85
2.8084,89.873
2.8358,87.724
2.8465,85.282
2.8475,84.158
2.8377,84.256
2.8143,84.354
2.7771,83.914
2.7302,83.279
2.6774,83.182
2.6188,83.67
2.5533,84.256
2.4839,84.5
2.4125,84.061
2.348,83.279
2.2864,82.791
2.2229,82.791
2.1623,83.182
2.1105,83.572
2.0704,83.719
2.0352,83.67
2.0039,83.914
1.9736,85.379
1.9433,88.799
1.914,93.927
1.8847,99.74
1.8553,104.92
1.8299,108.68
1.8065,111.17
1.7801,113.32
1.7566,116.05
1.738,119.47
1.7214,122.84
1.7019,125.14
1.6774,125.58
1.651,124.36
1.6237,122.7
1.5982,120.99
1.5787,119.13
1.565,116.69
1.5552,114.2
1.5425,112.19
1.5288,110.53
1.5152,108.82
1.4976,106.87
1.4741,104.82
1.4438,103.01
1.4076,101.55
1.3675,100.62
1.3324,99.935
1.3079,99.105
1.2923,98.03
1.2874,96.662
1.2962,95.344
1.3265,94.123
1.3881,92.853
1.4917,91.436
1.6305,89.531
1.7937,87.236
1.9736,84.989
2.1505,84.256
2.3148,85.673
2.4624,87.529
2.5865,87.919
2.6784,86.991
2.7458,86.356
2.8045,86.796
2.8524,88.506
2.8905,90.557
2.9169,91.241
2.9267,89.385
2.9208,86.112
2.8993,84.354
2.8631,85.379
2.8162,87.626
2.7566,89.189
2.6901,89.873
2.6354,89.385
2.5826,87.431
2.5239,85.966
2.4653,86.747
2.4106,87.284
2.3617,85.917
2.3157,85.575
2.2708,87.626
2.2297,88.847
2.1955,87.675
2.1632,87.04
2.129,89.434
2.0978,94.611
2.0674,101.16
2.0342,107.51
2.0029,112
1.9726,114.73
1.9433,117.18
1.914,120.01
1.8847,122.79
1.8524,124.8
1.8182,125.48
1.783,125.87
1.7468,126.95
1.7224,127.87
1.7058,127.14
1.6872,124.6
1.6667,120.94
1.6491,116.93
1.6334,113.51
1.6178,110.24
1.6031,106.28
1.5885,102.18
1.5699,99.447
1.5464,98.372
1.5161,97.346
1.48,95.246
1.4506,92.95
1.4321,91.534
1.4154,90.948
1.4076,90.166
1.4213,89.434
1.4643,88.994
1.5406,88.945
1.6471,89.287
1.7801,89.922
1.9374,90.41
2.1105,90.557
2.2874,90.41
2.4379,90.215
2.5679,89.922
2.7048,89.824
2.8387,90.069
2.956,90.313
3.0547,90.166
3.1369,89.873
3.2033,89.727
3.2512,89.629
3.2786,89.385
3.2884,89.043
3.2796,88.603
3.2532,87.871
3.218,86.943
3.172,86.259
3.1124,86.063
3.0459,86.259
2.9765,86.356
2.9062,86.259
2.8338,85.673
2.7654,84.94
2.7019,84.158
2.6413,83.572
2.5855,83.182
2.5327,82.986
2.4848,83.133
2.4389,83.865
2.39,85.819
2.3441,89.287
2.2991,94.171
2.2551,99.593
2.2151,104.82
2.1808,109.17
2.1457,112.49
2.1095,114.73
2.0694,116.69
2.0205,118.45
1.9668,119.67
1.9189,120.16
1.8729,120.01
1.824,119.37
1.782,118.3
1.7507,116.93
1.7243,115.22
1.696,113.17
1.6637,110.68
1.6256,108.24
1.5855,105.55
1.5435,102.04
1.5005,97.932
1.4643,94.416
1.4282,92.511
1.3851,91.68
1.3412,90.948
1.2981,89.873
1.2581,88.701
1.2307,87.919
1.2248,87.529
1.2434,87.284
1.2884,86.796
1.3695,86.112
1.4897,85.428
1.6403,84.745
1.7879,83.67
1.9345,80.007
2.1017,70.629
2.2727,58.906
2.4301,57.538
2.5709,72.533
2.6921,92.657
2.7889,103.84
2.8661,103.26
2.9267,95.49
2.9677,87.187
2.9922,84.158
2.9971,86.943
2.9853,90.313
2.9609,90.215
2.9228,87.04
2.868,83.865
2.7937,82.937
2.7058,83.572
2.6178,83.377
2.5308,82.107
2.4438,81.374
2.3636,82.253
2.2874,84.842
2.217,88.603
2.1593,90.606
2.1095,88.554
2.0547,86.161
1.999,89.873
1.9413,99.593
1.8915,107.99
1.8514,109.95
1.8133,107.95
1.7761,107.55
1.7439,110.97
1.7097,116.2
1.6745,119.47
1.65,119.67
1.6266,118.11
1.6002,115.42
1.5728,110.83
1.5406,105.8
1.5103,102.87
1.477,101.06
1.4379,97.786
1.3969,93.732
1.3548,92.853
1.3157,97.591
1.2815,104.58
1.2502,108.39
1.2268,106.24
1.2151,98.86
1.2023,91.241
1.1818,91.729
1.1564,101.06
1.129,108.24
1.1017,107.6
1.0762,104.48
1.0606,103.35
1.0596,103.26
1.085,102.72
1.1241,100.23
1.1681,95.051
1.2444,90.557
1.3666,89.873
1.5171,91.973
1.6852,93.439
1.8592,92.657
2.0293,90.41
2.1916,88.066
2.3402,86.747
2.4721,87.626
2.5826,89.971
2.6735,90.85
2.7449,88.066
2.7869,84.5
2.8045,85.966
2.8104,92.315
2.8035,97.249
2.784,97.737
2.7517,96.418
2.7067,95.002
2.6549,92.413
2.5973,87.382
2.5298,79.86
2.4614,72.924
2.3949,70.238
2.3353,71.508
2.2805,72.631
2.2209,72.094
2.1593,72.875
2.0958,77.223
2.0352,82.693
1.9795,84.549
1.9326,82.156
1.8925,82.253
1.8534,90.557
1.8182,104.82
1.784,120.11
1.7478,134.57
1.7165,145.56
1.6882,149.95
1.6588,147.36
1.6276,139.74
1.5992,130.76
1.5758,125.58
1.5543,123.92
1.5376,119.86
1.523,111.56
1.5083,104.04
1.4946,102.38
1.4848,106.82
1.48,114.25
1.4741,119.57
1.4682,119.86
1.4624,118.35
1.4526,118.54
1.4418,118.59
1.4301,114.25
1.4174,104.58
1.4047,93.439
1.392,85.038
1.3822,79.567
1.3842,75.66
1.4037,75.757
1.7615,86.308
1.8407,85.673
1.9413,85.135
2.0508,84.549
2.1593,84.061
2.261,83.67
2.3529,83.377
2.4311,82.937
2.4956,82.547
2.5464,82.107
2.5836,81.716
2.609,81.472
2.6197,81.228
2.6197,80.984
2.6119,80.739
2.5943,80.495
2.5679,80.251
2.5337,79.909
2.4927,79.567
2.4457,79.127
2.3939,78.541
2.3402,78.004
2.2845,77.418
2.2307,76.929
2.1789,76.636
2.1329,76.343
2.0909,76.246
2.0469,76.343
2.0039,77.027
1.9629,78.981
1.9228,82.498
1.8847,87.48
1.8465,93.292
1.8113,99.154
1.7791,104.23
1.7488,108.09
1.7185,111.12
1.694,113.61
1.6725,115.61
1.6471,117.03
1.6197,117.91
1.5924,118.25
1.565,118.06
1.5367,117.32
1.5093,116.2
1.4839,114.88
1.4585,113.22
1.434,111.32
1.4106,108.97
1.39,106.48
1.3763,103.84
1.3656,101.25
1.3529,98.616
1.3382,96.321
1.3216,94.367
1.303,92.755
1.2845,91.436
1.263,90.41
1.2414,89.678
1.1681,89.189
1.0733,88.847
1.0313,88.75
1.0244,88.554
1.0489,88.261
1.1095,87.919
1.2043,87.675
1.3324,87.431
1.4868,87.236
1.6618,87.187
1.8485,87.187
2.0381,87.187
2.2229,87.138
2.3949,86.991
2.5484,86.943
2.6804,86.796
2.7771,86.698
2.8465,86.503
2.9091,86.259
2.957,85.917
2.9902,85.624
3.0059,85.233
3.0039,84.989
2.9853,84.745
2.9511,84.549
2.9022,84.305
2.8426,84.012
2.7752,83.572
2.7087,83.133
2.6442,82.693
2.5767,82.302
2.5122,81.863
2.4497,81.472
2.391,81.228
2.3372,81.374
2.2864,82.547
2.2395,85.428
2.1975,90.117
2.1593,96.125
2.1232,102.28
2.089,107.85
2.0596,112.24
2.0342,115.47
2.0088,118.01
1.9834,120.01
1.957,121.62
1.9326,122.6
1.9101,123.14
1.8895,122.94
1.868,122.31
1.8465,121.23
1.825,119.86
1.8035,118.2
1.7849,116.3
1.7683,114.2
1.7498,111.85
1.7292,109.36
1.7087,106.68
1.6872,104.04
1.6657,101.74
1.6432,99.789
1.6188,98.323
1.5924,97.102
1.563,96.223
1.5318,95.441
1.5024,94.758
1.4809,94.123
1.4712,93.634
1.4936,93.195
1.5308,92.804
1.5767,92.56
1.6628,92.218
1.7879,91.925
1.9462,91.534
2.129,91.094
2.3294,90.606
2.5347,90.117
2.7341,89.531
2.8983,88.994
3.0381,88.554
3.1799,88.261
3.3109,87.968
3.4242,87.675
3.5181,87.431
3.5904,87.236
3.6413,87.04
3.6716,86.796
3.6804,86.503
3.6706,86.112
3.6432,85.868
3.6022,85.624
3.5513,85.428
3.4917,85.135
3.4233,84.696
3.348,84.158
3.2688,83.572
3.1896,82.937
3.1114,82.351
3.0371,81.912
2.9648,81.618
2.8964,81.667
2.8309,82.693
2.7664,85.233
2.7087,89.531
2.6569,95.295
2.6051,101.45
2.5513,107.07
2.4995,111.56
2.4497,114.88
2.3978,117.23
2.347,119.03
2.2981,120.5
2.2512,121.38
2.2063,121.72
2.1623,121.48
2.1183,120.74
2.0802,119.47
2.0459,118.01
2.0088,116.3
1.9717,114.34
1.9365,112.29
1.9013,110.05
1.8661,107.7
1.8328,105.26
1.7996,102.91
1.7654,100.72
1.7283,98.86
1.6911,97.297
1.6598,96.125
1.6295,95.197
1.5924,94.416
1.5543,93.781
1.52,93.243
1.4936,92.804
1.4839,92.413
1.4976,92.071
1.5425,91.632
1.6266,91.192
1.7498,90.752
1.9062,90.362
2.089,89.971
2.2571,89.678
2.4184,89.434
2.6002,89.092
2.783,88.847
2.956,88.554
3.1105,88.261
3.2424,87.919
3.35,87.529
3.436,87.187
3.4985,86.796
3.5367,86.356
3.5533,85.917
3.5474,85.575
3.5249,85.233
3.4897,84.94
3.4409,84.745
3.3773,84.549
3.3021,84.354
3.2199,84.061
3.132,83.621
3.0411,83.133
2.9511,82.547
2.8651,82.058
2.782,81.618
2.7077,81.374
2.6413,81.472
2.5758,82.595
2.5112,85.233
2.4497,89.531
2.393,95.099
2.3412,101.06
2.2903,106.48
2.2385,110.92
2.1867,114.25
2.1349,116.64
2.085,118.54
2.0371,120.01
1.9961,121.04
1.9589,121.62
1.9208,121.72
1.8847,121.28
1.8475,120.35
1.8104,119.13
1.7752,117.57
1.738,115.66
1.7009,113.61
1.6647,111.36
1.6295,108.92
1.5943,106.48
1.565,104.23
1.5386,102.13
1.4966,100.33
1.4565,98.665
1.4282,97.346
1.3949,96.321
1.349,95.344
1.3069,94.611
1.2796,94.074
1.2581,93.536
1.2532,93.195
1.2737,92.95
1.3284,92.657
1.4027,92.511
1.5005,92.218
1.6393,91.973
1.8104,91.729
2.0039,91.387
2.261,91.045
2.4946,90.752
2.6579,90.362
2.827,89.922
2.9863,89.482
3.1281,88.994
3.2483,88.408
3.3304,87.919
3.3871,87.529
3.436,87.187
3.4692,86.845
3.4819,86.552
3.4751,86.259
3.4467,85.917
3.3998,85.624
3.3382,85.379
3.2639,85.038
3.1808,84.745
3.0929,84.354
3.0039,83.914
2.9238,83.426
2.8485,82.937
2.7713,82.449
2.695,82.058
2.6217,82.009
2.5543,82.742
2.4897,84.94
2.4272,88.75
2.3666,94.074
2.3079,100.03
2.2512,105.75
2.1975,110.39
2.1496,113.86
2.1085,116.49
2.0674,118.69
2.0254,120.5
1.9824,121.87
1.9394,122.6
1.8964,122.7
1.8534,122.06
1.8113,121.13
1.7713,120.16
1.7312,118.98
1.6931,117.37
1.6569,115.42
1.6266,113.37
1.5992,111.12
1.5689,108.68
1.5073,106.28
1.4311,104.04
1.3803,101.99
1.3431,100.18
1.3118,98.616
1.2815,97.346
1.2502,96.369
1.2209,95.539
1.1945,95.002
1.1779,94.513
1.173,94.074
1.1808,93.536
1.2092,93.097
1.2649,92.755
1.348,92.364
1.4575,92.071
1.5875,91.632
1.7322,91.192
1.8866,90.752
2.043,90.362
2.1945,90.069
2.3363,89.678
2.4477,89.287
2.5376,88.945
2.6266,88.554
2.7067,88.261
2.7722,87.871
2.8201,87.48
2.8485,87.138
2.8592,86.747
2.8543,86.503
2.8348,86.308
2.7859,86.112
2.7331,85.917
2.694,85.721
2.6442,85.379
2.564,84.842
2.4868,84.354
2.4291,83.816
2.3666,83.23
2.2884,82.742
2.218,82.351
2.1691,82.449
2.1193,83.426
2.0704,85.819
2.0244,89.922
1.9804,95.295
1.9326,101.16
1.8827,106.63
1.8485,111.07
1.8221,114.34
1.7898,116.88
1.7537,118.79
1.7155,120.35
1.6784,121.43
1.6432,121.87
1.61,121.67
1.5767,120.94
1.5445,119.81
1.5181,118.3
1.4946,116.54
1.4673,114.49
1.4399,112.29
1.4047,109.95
1.3656,107.31
1.3392,104.58
1.3196,101.69
1.2903,99.007
1.2571,96.662
1.2268,94.806
1.2043,93.292
1.1838,92.071
1.1584,90.997
1.1378,90.069
1.1212,89.287
1.1105,88.701
1.1202,88.164
1.1349,87.675
1.1867,87.382
1.2903,87.04
1.4135,86.796
1.5552,86.503
1.7087,86.112
1.8456,85.673
1.9726,85.233
2.1095,84.793
2.2444,84.403
2.3685,84.061
2.4751,83.621
2.563,83.182
2.6305,82.742
2.6745,82.351
2.7019,82.058
2.7175,81.716
2.7126,81.374
2.6901,80.886
2.6559,80.153
2.6109,79.665
2.5523,79.469
2.4819,79.616
2.4037,79.469
2.3187,79.225
2.2297,79.127
2.1408,78.981
2.0547,78.688
1.9736,78.248
1.8974,77.809
1.826,77.369
1.7654,77.174
1.7136,77.613
1.6598,79.372
1.6061,82.84
1.5543,87.871
1.5064,93.878
1.4614,99.74
1.4174,104.82
1.3754,108.68
1.3353,111.56
1.2981,113.66
1.262,115.61
1.2258,117.32
1.1965,118.5
1.1701,118.94
1.1388,118.74
1.1046,118.11
1.0694,117.18
1.0342,115.91
1,114.49
0.96774,112.78
0.93646,110.83
0.90811,108.43
0.88074,105.8
0.85435,103.11
0.8348,100.57
0.81916,98.372
0.79863,96.467
0.77419,95.002
0.7478,93.683
0.72043,92.56
0.69404,91.68
0.67253,91.094
0.66178,90.655
0.66569,90.41
0.6911,90.166
0.74291,89.971
0.80938,89.873
0.89541,89.824
1.0127,89.727
1.1544,89.629
1.3118,89.434
1.4761,89.092
1.6383,88.75
1.7908,88.359
1.9267,87.968
2.044,87.626
2.1427,87.284
2.2219,87.04
2.2825,86.747
2.3216,86.405
2.3441,86.112
2.3578,85.868
2.3578,85.721
2.3451,85.721
2.3206,85.673
2.2845,85.624
2.2366,85.428
2.1799,85.184
2.1153,84.842
2.0469,84.5
1.9775,84.11
1.9169,83.719
1.8641,83.426
1.8104,83.182
1.7595,83.133
1.7136,83.621
1.6725,85.282
1.6364,88.701
1.6041,93.781
1.5738,99.886
1.5435,105.85
1.5152,111.07
1.4888,115.08
1.4624,118.01
1.4409,120.16
1.4213,121.82
1.3988,122.84
1.3734,123.28
1.347,123.18
1.3216,122.6
1.2981,121.72
1.2737,120.55
1.2483,119.13
1.2239,117.62
1.2004,115.86
1.1769,113.81
1.1593,111.51
1.1437,109.17
1.1232,106.97
1.1007,104.82
1.0782,102.62
1.0547,100.72
1.0313,99.251
1.0088,97.981
0.98534,96.809
0.96188,95.734
0.94233,94.904
0.93255,94.22
0.93939,93.683
0.96188,93.097
1.0029,92.608
1.0723,92.169
1.1681,91.778
1.2874,91.534
1.4233,91.241
1.5679,90.997
1.7136,90.655
1.8553,90.362
1.9853,89.971
2.0997,89.629
2.1965,89.189
2.2659,88.75
2.3138,88.31
2.3529,87.919
2.3803,87.529
2.3959,87.236
2.3988,86.991
2.391,86.747
2.3715,86.552
2.3412,86.308
2.3011,86.063
2.2522,85.721
2.1965,85.282
2.1349,84.94
2.0772,84.5
2.0215,84.061
1.9619,83.572
1.9022,83.133
1.8446,82.742
1.7898,82.547
1.74,82.791
1.694,84.012
1.652,86.747
1.6129,91.094
1.5767,96.809
1.5425,102.87
1.5152,108.29
1.4897,112.54
1.4614,115.66
1.4321,118.01
1.4027,119.81
1.3744,121.23
1.346,122.26
1.3177,122.7
1.2913,122.5
1.2639,121.82
1.3109,120.69
1.3959,119.13
1.4272,117.32
1.437,115.37
1.436,113.37
1.4242,111.17
1.4086,108.82
1.39,106.38
1.3695,103.84
1.348,101.6
1.3265,99.74
1.304,98.323
1.2786,97.102
1.2522,96.125
1.2258,95.246
1.2082,94.416
1.1975,93.732
1.1916,93.097
1.1984,92.657
1.2258,92.364
1.2757,92.12
1.35,91.925
1.4448,91.729
1.5543,91.485
1.6725,91.192
1.7918,90.801
1.9062,90.313
2.0108,89.824
2.0929,89.385
2.1574,88.994
2.216,88.701
2.2649,88.359
2.303,88.066
2.3304,87.675
2.346,87.382
2.3509,87.04
2.3451,86.698
2.3275,86.405
2.3001,86.161
2.2649,85.966
2.2287,85.721
2.1916,85.477
2.1496,85.135
2.1046,84.696
2.0587,84.256
2.0127,83.865
1.9668,83.475
1.9228,83.035
1.8817,82.595
1.8426,82.547
1.8055,83.426
1.7713,85.721
1.74,89.629
1.7146,94.904
1.694,100.72
1.6725,106.19
1.651,110.92
1.6305,114.73
1.6109,117.62
1.5924,119.67
1.5748,121.28
1.5572,122.55
1.5396,123.28
1.521,123.38
1.5044,123.04
1.4917,122.45
1.479,121.04
1.4633,119.23
1.4448,117.62
1.4262,116.3
1.4106,114.69
1.3949,112.29
1.3793,109.66
1.3646,107.07
1.349,104.23
1.3333,101.89
1.3187,100.13
1.304,98.86
1.2923,97.786
1.2815,96.809
1.2669,95.93
1.2522,95.099
1.2434,94.416
1.2473,93.927
1.2698,93.683
1.3138,93.292
1.3793,92.755
1.4663,92.218
1.5699,91.925
1.6813,91.632
1.782,91.045
1.8749,90.557
1.9707,90.166
2.0616,89.873
2.1437,89.482
2.2131,89.238
2.2688,89.092
2.3118,88.994
2.3431,88.847
2.3627,88.701
2.3705,88.506
2.3685,88.408
2.3587,88.408
2.3412,88.408
2.3148,88.115
2.2815,87.187
2.2434,86.259
2.2023,85.917
2.1593,86.063
2.1163,85.917
2.0753,85.282
2.0362,84.549
1.998,84.061
1.9609,83.865
1.9257,84.256
1.8954,85.282
1.869,87.529
1.8426,91.045
1.8162,95.881
1.7908,101.6
1.7664,107.26
1.7429,112.05
1.7195,115.47
1.6979,117.91
1.6764,119.86
1.654,121.62
1.6315,122.99
1.6139,123.82
1.5973,124.26
1.5787,124.36
1.5601,123.87
1.5406,122.75
1.522,121.04
1.5044,119.33
1.4878,117.62
1.4712,115.57
1.4545,112.98
1.437,110.44
1.4203,108.04
1.4047,105.85
1.3939,103.7
1.3842,101.69
1.3705,99.789
1.3548,98.225
1.3382,96.907
1.3236,95.979
1.3138,95.344
1.3118,94.904
1.3236,94.562
1.3539,94.171
1.4057,93.683
1.479,93.195
1.5582,92.755
1.6422,92.315
1.7439,92.12
1.8524,92.12
1.9609,91.778
2.0616,91.192
2.1535,90.557
2.2346,90.215
2.303,90.069
2.3587,89.824
2.4018,89.238
2.433,88.164
2.4516,86.991
2.4575,86.112
2.4545,85.673
2.4448,85.428
2.4262,85.184
2.3998,84.842
2.3646,84.354
2.3245,83.621
2.2805,82.693
2.2336,81.618
2.1857,80.593
2.1378,79.86
2.0919,79.567
2.0528,79.469
2.0176,79.225
1.9824,78.786
1.9492,78.786
1.9179,80.007
1.8895,83.035
1.8631,87.871
1.8397,93.927
1.8172,100.03
1.7967,105.16
1.7771,109.12
1.7576,112.39
1.738,115.08
1.7214,117.18
1.7048,118.74
1.6862,120.06
1.6667,120.99
1.6461,121.23
1.6237,120.99
1.6002,120.35
1.5767,119.37
1.5533,117.81
1.5288,115.86
1.5034,113.51
1.478,110.83
1.4575,107.95
1.4389,105.11
1.4154,102.38
1.3891,99.886
1.3607,97.737
1.3314,96.076
1.3001,94.611
1.2669,93.341
1.2346,92.218
1.2063,91.094
1.1857,90.166
1.1769,89.629
1.1857,89.482
1.2092,89.287
1.2493,88.847
1.3109,88.261
1.393,87.48
1.4917,86.845
1.5992,86.991
1.7097,88.359
1.8182,89.678
1.9189,89.482
2.0088,88.115
2.086,86.552
2.1505,85.282
2.1975,84.5
2.2297,83.621
2.2561,82.742
2.2727,82.693
2.2796,82.791
2.2766,81.912
2.2659,80.593
2.2454,80.69
2.216,81.423
2.1799,79.86
2.1388,75.757
2.0948,73.071
2.0479,74.536
2.0049,78.346
1.9648,81.374
1.9218,83.133
1.8778,83.865
1.8348,83.133
1.7937,82.009
1.7556,83.475
1.7195,88.701
1.6872,95.441
1.6588,101.6
1.6315,107.16
1.6061,112.44
1.5875,118.2
1.5709,124.11
1.5513,128.36
1.5318,130.12
1.5152,130.8
1.4995,130.8
1.4809,129.19
1.4594,126.31
1.437,123.48
1.4125,121.13
1.3861,118.94
1.3597,116.25
1.3333,114
1.3138,114.05
1.2972,115.76
1.2757,115.42
1.2532,110.92
1.2307,104.82
1.2102,100.91
1.1906,99.447
1.1711,97.981
1.1505,95.881
1.13,94.171
1.1134,93.976
1.1046,95.441
1.1095,97.297
1.13,98.372
1.173,98.03
1.2463,96.907
1.3529,95.93
1.4917,95.295
1.6549,94.611
1.8348,93.927
2.0225,93.683
2.2063,93.634
2.3763,93.048
2.5288,92.12
2.6628,91.094
2.7634,90.313
2.8397,89.678
2.9101,89.238
2.9668,89.043
3.0078,88.994
3.0332,88.945
3.043,88.847
3.0401,88.701
3.0215,88.506
2.9883,88.261
2.9413,87.871
2.8837,87.48
2.825,86.991
2.7625,86.356
2.6931,85.673
2.6207,85.135
2.5494,84.549
2.4829,84.158
2.4203,84.061
2.3627,84.305
2.3118,85.379
2.2669,87.822
2.2258,92.071
2.1877,97.688
2.1505,103.79
2.1193,109.36
2.0919,113.76
2.0626,116.93
2.0332,119.37
2.001,121.28
1.9677,122.94
1.9345,124.26
1.9022,124.85
1.871,124.85
1.8397,124.31
1.8113,123.28
1.784,122.01
1.7625,120.5
1.7439,118.69
1.7214,116.54
1.6989,114.1
1.6755,111.51
1.653,108.87
1.6305,106.24
1.607,103.94
1.5836,101.94
1.5572,100.23
1.5288,98.763
1.4995,97.493
1.4761,96.369
1.4555,95.441
1.434,94.66
1.4203,94.123
1.4262,93.732
1.4575,93.341
1.52,93.097
1.6139,92.804
1.738,92.413
1.8847,92.071
2.044,91.729
2.2072,91.387
2.3636,90.948
2.4907,90.41
2.5934,89.971
2.6921,89.678
2.7781,89.287
2.8446,89.043
2.8954,88.75
2.9316,88.506
2.9521,88.115
2.956,87.822
2.9453,87.48
2.9198,87.284
2.8817,87.187
2.8387,86.991
2.7898,86.747
2.7312,86.356
2.6647,85.917
2.5924,85.428
2.5191,84.94
2.4477,84.403
2.3783,83.914
2.3109,83.475
2.2473,83.133
2.1906,83.279
2.1388,84.5
2.0929,87.382
2.0557,91.973
2.0244,97.884
1.9912,103.99
1.958,109.51
1.9257,113.81
1.8944,116.93
1.8641,119.33
1.8338,121.23
1.8035,122.79
1.7761,123.92
1.7478,124.5
1.7185,124.5
1.694,123.87
1.6745,122.79
1.652,121.28
1.6276,119.57
1.6051,117.62
1.5826,115.42
1.5591,113.07
1.5376,110.49
1.5181,107.85
1.4995,105.31
1.4809,103.06
1.4604,101.06
1.4389,99.495
1.4223,98.225
1.4047,97.2
1.3832,96.223
1.3636,95.49
1.3519,94.806
1.3529,94.22
1.3744,93.732
1.4213,93.292
1.4976,92.95
1.6031,92.608
1.7351,92.364
1.8847,92.12
2.0225,91.778
2.1515,91.485
2.2903,91.192
2.4242,90.948
2.5455,90.606
2.651,90.362
2.739,89.971
2.8084,89.678
2.8583,89.385
2.8895,89.092
2.9042,88.847
2.9032,88.554
2.8886,88.261
2.8651,87.919
2.8338,87.529
2.7928,87.138
2.7429,86.796
2.6843,86.405
2.6197,86.063
2.5533,85.575
2.4878,84.989
2.4233,84.549
2.3617,84.11
2.304,83.67
2.2502,83.426
2.2072,83.914
2.1691,85.673
2.1281,89.238
2.087,94.513
2.0489,100.62
2.0108,106.53
1.9746,111.56
1.9423,115.42
1.913,118.3
1.8847,120.6
1.8583,122.55
1.8319,124.11
1.8065,125.14
1.7869,125.58
1.7683,125.38
1.7458,124.7
1.7243,123.58
1.7019,122.11
1.6804,120.35
1.6588,118.35
1.6364,116.2
1.6149,113.81
1.5934,111.12
1.5699,108.43
1.5464,105.85
1.5279,103.7
1.5122,101.79
1.4936,100.23
1.4712,98.909
1.4448,97.737
1.4184,96.809
1.3959,95.979
1.3842,95.441
1.39,95.002
1.4213,94.611
1.4839,94.367
1.5797,93.976
1.7058,93.683
1.8319,93.292
1.9609,92.999
2.1134,92.755
2.2708,92.413
2.4252,91.973
2.5689,91.485
2.697,90.997
2.8065,90.557
2.8974,90.215
2.9687,89.873
3.0225,89.482
3.0577,89.238
3.0743,89.043
3.0772,88.75
3.0694,88.506
3.0489,88.261
3.0156,88.115
2.9726,87.871
2.9218,87.626
2.8641,87.236
2.8035,86.698
2.741,85.966
2.6764,85.282
2.6139,84.745
2.5533,84.256
2.5005,84.012
2.4536,84.11
2.4037,85.038
2.3548,87.431
2.3099,91.534
2.2678,97.102
2.2287,103.16
2.1945,108.87
2.1623,113.51
2.132,116.98
2.0782,119.67
2.0137,121.82
1.9726,123.67
1.9413,124.99
1.9101,125.72
1.8788,125.82
1.8456,125.38
1.8123,124.5
1.7801,123.28
1.7488,121.82
1.7195,120.06
1.6931,118.01
1.6686,115.57
1.6452,112.93
1.6217,110.19
1.6012,107.55
1.5836,105.06
1.5621,102.87
1.5396,100.91
1.5161,99.251
1.4917,97.688
1.4663,96.321
1.4438,95.051
1.4291,93.927
1.4262,92.853
1.4428,91.973
1.4868,91.094
1.5474,90.362
1.6295,89.678
1.7468,89.043
1.8905,88.506
2.0508,87.871
2.2219,87.284
2.3939,86.796
2.5572,86.308
2.7048,85.819
2.8358,85.379
2.9482,84.94
3.0411,84.5
3.1056,84.158
3.1476,83.865
3.1828,83.572
3.2063,83.279
3.2151,83.035
3.2063,82.791
3.1808,82.547
3.1417,82.253
3.089,81.667
3.0244,81.032
2.9501,80.495
2.87,80.104
2.7889,79.86
2.7146,79.567
2.6432,79.225
2.567,78.981
2.4907,78.688
2.4164,78.346
2.3451,78.492
2.2757,79.616
2.2082,82.302
2.1447,86.747
2.087,92.56
2.0313,98.812
1.9765,104.48
1.9286,108.97
1.8866,112.29
1.8416,114.73
1.7957,116.74
1.7517,118.45
1.7087,119.62
1.6676,120.3
1.6285,120.45
1.5914,120.06
1.5552,119.23
1.52,118.06
1.4848,116.54
1.4497,114.73
1.4223,112.54
1.3988,110.09
1.3695,107.51
1.3382,104.72
1.306,102.04
1.2737,99.447
1.2395,97.2
1.2053,95.295
1.172,93.781
1.1398,92.56
1.1085,91.68
1.0802,91.045
1.0626,90.41
1.0577,89.824
1.0684,89.238
1.1046,88.75
1.1701,88.31
1.2698,87.919
1.4018,87.529
1.5621,87.236
1.739,87.04
1.9218,86.845
2.1017,86.601
2.2688,86.356
2.4194,86.161
2.5347,86.112
2.6237,86.112
2.7067,86.112
2.7761,86.112
2.8289,86.112
2.8631,86.161
2.8788,86.161
2.8778,86.259
2.8602,86.259
2.826,86.259
2.7781,86.161
2.7175,86.161
2.6549,86.112
2.5894,85.868
2.5152,85.477
2.4379,85.184
2.3597,84.842
2.2835,84.5
2.2121,84.256
2.1447,84.11
2.0821,84.5
2.0264,86.112
1.9765,89.434
1.9326,94.611
1.8905,100.72
1.8573,106.87
1.8319,112.05
1.8055,116.1
1.7771,119.23
1.7488,121.67
1.7224,123.67
1.6989,125.29
1.6755,126.36
1.653,126.75
1.6334,126.6
1.6168,125.92
1.6022,124.85
1.5914,123.43
1.5846,121.62
1.5777,119.62
1.5689,117.42
1.5591,114.98
1.5503,112.39
1.5406,109.51
1.5279,106.72
1.5132,104.23
1.4966,102.18
1.479,100.47
1.4575,99.105
1.435,97.981
1.4184,97.053
1.4057,96.223
1.3949,95.539
1.3959,95.002
1.4174,94.513
1.4653,94.074
1.5445,93.634
1.6569,93.243
1.7986,92.95
1.9609,92.608
2.1329,92.218
2.3069,91.876
2.4526,91.485
2.5758,91.192
2.6989,90.801
2.8113,90.41
2.9062,89.971
2.9834,89.531
3.044,89.092
3.089,88.75
3.1183,88.408
3.131,88.115
3.1281,87.724
3.1114,87.382
3.0802,87.04
3.0401,86.747
2.9902,86.405
2.9286,86.063
2.8592,85.673
2.7849,85.135
2.7077,84.598
2.6325,84.061
2.5611,83.621
2.4936,83.182
2.4311,82.791
2.3744,82.791
2.3196,83.67
2.2737,86.063
2.2356,90.215
2.1945,95.93
2.1525,102.23
2.1105,108.04
2.0694,112.78
2.0303,116.3
1.9932,118.94
1.957,120.94
1.9218,122.55
1.8856,123.67
1.8485,124.31
1.8123,124.31
1.783,123.82
1.7566,122.79
1.7283,121.43
1.7019,119.62
1.6764,117.57
1.65,115.32
1.6227,112.88
1.5943,110.29
1.566,107.55
1.5386,104.92
1.5112,102.57
1.4829,100.62
1.4575,99.056
1.435,97.737
1.4086,96.614
1.3803,95.539
1.3519,94.611
1.3284,93.781
1.3167,93.195
1.3245,92.755
1.3587,92.413
1.4242,92.169
1.52,91.925
1.6432,91.68
1.7869,91.387
1.9218,91.094
2.0518,90.801
2.1965,90.41
2.3392,90.069
2.4692,89.629
2.5826,89.287
2.6774,88.945
2.7537,88.603
2.8113,88.31
2.8504,87.968
2.8729,87.675
2.8798,87.382
2.8729,87.04
2.8534,86.747
2.8211,86.503
2.7791,86.161
2.7273,85.868
2.6676,85.575
2.6012,85.233
2.5298,84.842
2.4604,84.354
2.3949,83.865
2.3324,83.426
2.2737,83.133
2.2199,82.742
2.175,82.547
2.1369,82.84
2.1007,84.256
2.0645,87.284
1.999,92.12
1.9189,98.128
1.8631,104.18
1.8192,109.56
1.7791,113.66
1.7419,116.74
1.7077,119.03
1.6755,120.99
1.65,122.55
1.6276,123.62
1.6061,124.06
1.5826,123.92
1.5591,123.23
1.5357,122.16
1.5103,120.69
1.4839,118.98
1.4594,116.98
1.435,114.78
1.4106,112.44
1.3871,109.85
1.3695,107.31
1.3548,104.87
1.3392,102.67
1.3226,100.81
1.303,99.3
1.2805,98.03
1.2561,96.907
1.2317,95.979
1.2111,95.197
1.1984,94.416
1.2014,93.781
1.2248,93.341
1.2757,92.999
1.3421,92.657
1.4272,92.364
1.5445,92.071
1.6833,91.729
1.8338,91.436
1.9883,91.192
2.1378,90.85
2.2766,90.557
2.4008,90.215
2.5093,89.873
2.6002,89.531
2.6735,89.238
2.7234,88.945
2.7546,88.603
2.7791,88.31
2.7908,88.066
2.7898,87.724
2.7761,87.431
2.7498,87.138
2.7116,86.796
2.6657,86.503
2.6139,86.161
2.5572,85.721
2.4966,85.184
2.435,84.598
2.3803,84.11
2.3314,83.621
2.2815,83.182
2.2317,82.791
2.1828,82.742
2.1369,83.426
2.0948,85.428
2.0557,89.189
2.0186,94.513
1.9844,100.62
1.955,106.48
1.9247,111.41
1.8983,115.17
1.8739,117.86
1.8485,120.01
1.8211,121.87
1.7928,123.38
1.7634,124.36
1.7361,124.75
1.7107,124.55
1.6852,123.87
1.6588,122.75
1.6315,121.23
1.6051,119.42
1.5797,117.37
1.5591,115.08
1.5406,112.54
1.5181,110
1.4966,107.31
1.4761,104.72
1.4565,102.47
1.436,100.57
1.4135,99.056
1.3881,97.884
1.3607,96.858
1.3353,96.125
1.3138,95.441
1.3021,94.904
1.304,94.416
1.3226,93.976
1.3675,93.536
1.4438,93.195
1.5494,92.804
1.6813,92.413
1.8319,92.071
1.9941,91.729
2.1574,91.387
2.3148,91.045
2.4624,90.752
2.5963,90.362
2.6989,89.971
2.7781,89.629
2.8524,89.189
2.9169,88.799
2.9697,88.408
3.0078,88.115
3.0303,87.822
3.0381,87.431
3.0303,87.138
3.0059,86.796
2.9687,86.552
2.9218,86.308
2.87,85.966
2.8152,85.673
2.7537,85.184
2.6862,84.598
2.6178,84.061
2.5513,83.621
2.4878,83.182
2.4282,82.791
2.3724,82.693
2.3216,83.133
2.2747,84.94
2.2297,88.408
2.1877,93.634
2.1505,99.593
2.1183,105.5
2.087,110.44
2.0557,114.2
2.0225,116.93
1.9883,119.13
1.956,120.99
1.9238,122.55
1.8915,123.62
1.8612,124.06
1.8309,123.87
1.7996,123.04
1.7722,121.67
1.7468,119.91
1.7185,117.86
1.6891,115.61
1.6608,113.17
1.6334,110.53
1.609,107.75
1.5846,104.87
1.5591,101.99
1.5337,99.349
1.5073,97.102
1.479,95.295
1.4477,93.781
1.4213,92.511
1.3978,91.387
1.3724,90.41
1.3539,89.678
1.348,88.994
1.3627,88.359
1.4037,87.871
1.4751,87.431
1.5767,87.04
1.7058,86.698
1.8534,86.308
2.0127,85.917
2.1535,85.477
2.2805,85.038
2.4164,84.549
2.5464,84.11
2.6618,83.67
2.7615,83.23
2.8416,82.791
2.9013,82.351
2.9413,82.058
2.9619,81.667
2.9638,81.277
2.9501,80.935
2.9208,80.593
2.8827,80.349
2.8348,80.104
2.7732,79.811
2.7019,79.372
2.6227,78.932
2.5396,78.541
2.4555,78.248
2.3715,77.858
2.2884,77.467
2.2082,76.978
2.132,76.539
2.0616,76.294
2.0029,76.343
1.9531,77.027
1.9013,78.981
1.8495,82.693
1.8006,88.164
1.7546,94.66
1.7116,101.01
1.6706,106.14
1.6315,109.61
1.5914,112.19
1.5503,114.34
1.5103,116.35
1.4712,117.86
1.4399,118.79
1.4125,119.18
1.3803,118.98
1.348,118.45
1.3157,117.47
1.2825,116.25
1.2493,114.64
1.216,112.68
1.1838,110.49
1.1515,107.99
1.1212,105.31
1.0938,102.57
1.0753,99.886
1.0587,97.542
1.0362,95.637
1.0117,94.074
0.98534,92.804
0.95699,91.778
0.92766,90.997
0.90127,90.41
0.88368,89.971
0.8827,89.678
0.90616,89.482
0.95894,89.287
1.044,89.092
1.1417,88.994
1.2551,88.994
1.3998,88.994
1.5611,88.994
1.7283,88.847
1.8905,88.75
2.0411,88.554
2.176,88.408
2.2923,88.31
2.3881,88.115
2.4643,87.919
2.521,87.724
2.5552,87.48
2.5728,87.284
2.5806,87.138
2.5787,86.991
2.565,86.991
2.5386,86.943
2.5005,86.796
2.4526,86.552
2.3959,86.259
2.3314,85.819
2.263,85.282
2.2004,84.793
2.1505,84.305
2.1036,83.865
2.0538,83.475
2.0049,83.182
1.9609,83.23
1.9228,84.256
1.8905,86.796
1.8612,91.094
1.8338,96.809
1.8084,103.01
1.7849,108.68
1.7625,113.17
1.74,116.54
1.7214,119.03
1.7048,121.13
1.6862,122.79
1.6686,123.92
1.652,124.36
1.6344,124.26
1.6168,123.58
1.5992,122.55
1.5806,121.28
1.563,119.77
1.5474,117.91
1.5318,115.81
1.521,113.42
1.5112,110.88
1.4985,108.19
1.4829,105.41
1.4653,102.91
1.4467,100.81
1.4282,99.105
1.4096,97.786
1.391,96.662
1.3695,95.734
1.349,94.904
1.3343,94.171
1.3294,93.488
1.3372,92.999
1.3607,92.511
1.4076,92.12
1.4819,91.729
1.5806,91.29
1.6989,90.948
1.8299,90.508
1.9668,90.166
2.1036,89.873
2.2326,89.531
2.349,89.238
2.4506,88.847
2.5259,88.408
2.5806,88.115
2.6285,87.724
2.6676,87.382
2.694,87.04
2.7087,86.698
2.7107,86.356
2.7009,86.063
2.6794,85.721
2.6461,85.428
2.6031,85.184
2.5523,84.842
2.4946,84.549
2.4389,84.11
2.3861,83.67
2.3284,83.23
2.2698,82.791
2.2111,82.351
2.1544,82.009
2.1017,81.57
2.0528,81.374
2.0068,81.912
1.9629,83.865
1.9228,87.626
1.8876,92.999
1.8592,99.251
1.8368,105.16
1.8123,110.09
1.7889,113.66
1.7654,116.25
1.74,118.11
1.7126,119.77
1.6852,120.99
1.6588,121.72
1.6325,121.91
1.607,121.48
1.5816,120.6
1.5582,119.42
1.5406,117.86
1.5249,116.1
1.5064,114.1
1.4858,111.85
1.4663,109.41
1.4467,106.87
1.4272,104.28
1.4076,101.99
1.3871,99.984
1.3636,98.372
1.3402,97.053
1.3167,95.93
1.2981,94.904
1.2815,94.074
1.261,93.341
1.2434,92.755
1.2366,92.218
1.2493,91.778
1.2874,91.436
1.3519,91.045
1.4428,90.655
1.5552,90.313
1.6843,89.971
1.8211,89.678
1.9589,89.385
2.0762,88.945
2.1769,88.603
2.2766,88.408
2.3675,88.164
2.4448,87.822
2.5064,87.431
2.5513,87.138
2.5826,86.747
2.5992,86.356
2.6012,85.966
2.5904,85.624
2.567,85.233
2.5376,84.94
2.5015,84.745
2.4565,84.745
2.4047,84.842
2.349,84.696
2.2913,84.11
2.2346,83.279
2.1818,82.595
2.132,82.156
2.0831,82.009
2.0381,81.863
1.9971,81.716
1.9589,81.912
1.9267,83.035
1.8993,85.721
1.869,90.117
1.8377,95.686
1.8065,101.6
1.7781,107.07
1.7517,111.36
1.7253,114.64
1.7009,117.03
1.6764,118.98
1.653,120.55
1.6295,121.67
1.6109,122.35
1.5943,122.35
1.5738,121.87
1.5533,120.89
1.5337,119.62
1.5122,118.06
1.4917,116.25
1.4712,114.2
1.4526,111.85
1.437,109.36
1.4223,106.82
1.4076,104.28
1.392,102.13
1.3803,100.23
1.3695,98.665
1.3548,97.346
1.3372,96.321
1.3177,95.295
1.2991,94.416
1.2835,93.683
1.2757,93.048
1.2835,92.56
1.3128,92.071
1.3675,91.632
1.4477,91.29
1.5347,90.997
1.6315,90.752
1.7507,90.508
1.8817,90.117
2.0156,89.678
2.1457,89.189
2.2659,88.75
2.3734,88.359
2.4653,87.968
2.5406,87.724
2.5992,87.529
2.6422,87.284
2.6706,87.04
2.6833,86.698
2.6833,86.356
2.6735,86.063
2.653,85.819
2.6237,85.575
2.5855,85.282
2.5415,84.989
2.4907,84.598
2.437,84.11
2.3822,83.621
2.3294,83.035
2.2786,82.595
2.2346,82.253
2.1955,82.009
2.1554,81.667
2.1163,81.618
2.0792,82.302
2.045,84.256
2.0137,87.968
1.9844,93.292
1.956,99.3
1.9286,105.06
1.9022,109.8
1.8759,113.37
1.8524,115.91
1.8299,118.01
1.8055,119.77
1.7801,121.23
1.7537,122.26
1.7283,122.75
1.7028,122.7
1.6784,122.06
1.653,120.99
1.6276,119.57
1.6022,117.86
1.5777,116
1.5552,113.81
1.5386,111.41
1.5249,108.87
1.5093,106.38
1.4917,104.04
1.4712,101.99
1.4516,100.23
1.4311,98.763
1.4076,97.542
1.3832,96.565
1.3597,95.686
1.3431,94.904
1.3353,94.318
1.3382,93.732
1.3548,93.292
1.392,92.95
1.4536,92.56
1.5406,92.12
1.653,91.632
1.7869,91.192
1.9335,90.752
2.085,90.41
2.2336,90.117
2.3724,89.824
2.4985,89.482
2.608,89.092
2.6891,88.75
2.7498,88.261
2.8035,87.724
2.8475,87.284
2.8788,86.943
2.9179,86.552
2.956,86.259
2.9638,85.868
2.9492,85.575
2.9159,85.184
2.869,84.842
2.8123,84.549
2.7546,84.158
2.696,83.719
2.6295,83.23
2.5621,82.693
2.4976,82.156
2.435,81.814
2.3744,81.374
2.3157,80.886
2.26,80.544
2.2082,80.788
2.1613,82.302
2.1173,85.379
2.0782,90.117
2.0469,95.783
2.0186,101.45
1.9892,106.28
1.9609,110.05
1.9316,112.73
1.9003,114.78
1.8671,116.49
1.8348,117.81
1.8025,118.74
1.7683,119.13
1.7322,118.94
1.695,118.25
1.6647,117.23
1.6383,115.91
1.607,114.3
1.5748,112.44
1.5425,110.19
1.5112,107.75
1.48,105.16
1.4487,102.57
1.4154,99.984
1.3822,97.737
1.348,95.734
1.3138,94.074
1.2786,92.657
1.2493,91.534
1.2229,90.557
1.1906,89.824
1.1613,89.092
1.1408,88.408
1.1378,87.871
1.1623,87.284
1.2199,86.796
1.3109,86.356
1.434,85.966
1.5816,85.673
1.7439,85.282
1.8915,84.989
2.0264,84.598
2.172,84.305
2.3157,83.914
2.4448,83.475
2.5572,83.133
2.651,82.742
2.7243,82.351
2.7791,82.058
2.8143,81.814
2.8319,81.57
2.8338,81.277
2.8201,81.032
2.7947,80.788
2.7566,80.544
2.7058,80.251
2.6422,80.007
2.5699,79.665
2.4907,79.323
2.4086,78.883
2.3265,78.444
2.2463,78.102
2.1681,77.809
2.0948,77.418
2.0283,77.027
1.9746,76.881
1.9277,77.174
1.8788,78.59
1.8299,81.814
1.782,86.747
1.7341,92.95
1.6882,99.349
1.6422,105.11
1.5963,109.61
1.5533,113.07
1.5122,115.66
1.4721,117.91
1.434,119.67
1.4037,121.04
1.3803,121.87
1.3539,122.26
1.3245,122.16
1.2952,121.62
1.2669,120.6
1.2385,119.18
1.2121,117.42
1.1857,115.47
1.1603,113.42
1.1378,111.17
1.1183,108.82
1.1056,106.24
1.0948,103.74
1.0782,101.55
1.0587,99.789
1.0342,98.421
1.0068,97.346
0.97849,96.467
0.95112,95.783
0.9306,95.246
0.9218,94.758
0.93548,94.318
0.97947,93.878
1.0567,93.439
1.1486,92.999
1.261,92.608
1.4135,92.315
1.5924,91.973
1.7859,91.632
1.9853,91.094
2.1808,90.557
2.3636,90.069
2.5288,89.531
2.6735,89.189
2.7947,88.847
2.8954,88.554
2.9648,88.164
3.0127,87.822
3.0538,87.431
3.0811,87.138
3.0909,86.796
3.0821,86.503
3.0567,86.308
3.0147,86.063
2.9589,85.721
2.8935,85.379
2.8221,84.94
2.7458,84.403
2.6676,83.914
2.5982,83.426
2.5347,83.035
2.4692,82.742
2.4076,82.547
2.3519,82.937
2.3011,84.5
2.2542,87.822
2.2111,92.755
2.1701,98.616
2.129,104.48
2.088,109.56
2.0479,113.51
2.0127,116.44
1.9804,118.69
1.9462,120.55
1.911,122.01
1.8729,122.84
1.8328,123.14
1.7918,122.75
1.7478,121.87
1.7028,120.69
1.6588,119.33
1.6158,117.67
1.5738,115.86
1.5337,113.76
1.5005,111.36
1.4721,108.82
1.4418,106.14
1.4125,103.7
1.3851,101.55
1.3568,99.74
1.3265,98.323
1.2952,97.053
1.2649,95.979
1.2346,95.051
1.2063,94.318
1.1857,93.683
1.1789,93.195
1.1896,92.657
1.2239,92.315
1.2874,91.973
1.3822,91.632
1.5083,91.29
1.6598,90.85
1.826,90.508
1.999,90.117
2.1691,89.727
2.3284,89.385
2.4721,88.994
2.5826,88.701
2.6686,88.31
2.7498,87.919
2.8162,87.529
2.8651,87.138
2.8993,86.747
2.9189,86.405
2.9218,86.161
2.9081,85.917
2.8788,85.575
2.8358,85.184
2.7791,84.745
2.7136,84.354
2.6481,84.061
2.5826,83.67
2.5093,83.23
2.434,82.84
2.3597,82.449
2.2893,82.058
2.2229,81.716
2.1593,81.472
2.1007,81.57
2.0479,82.351
1.998,84.598
1.9511,88.603
1.913,94.123
1.8788,100.23
1.8426,105.94
1.8055,110.63
1.7674,114.05
1.7292,116.49
1.6921,118.35
1.6559,119.91
1.6207,121.23
1.5846,122.11
1.5494,122.35
1.5152,122.06
1.4819,121.18
1.4565,119.81
1.434,118.06
1.4086,116.05
1.3832,113.9
1.3568,111.76
1.3314,109.51
1.303,107.16
1.2737,104.87
1.2463,102.62
1.219,100.47
1.1896,98.763
1.1613,97.346
1.1408,96.321
1.1241,95.49
1.1026,94.904
1.0811,94.318
1.0655,93.536
1.0606,92.95
1.0762,92.56
1.1222,92.169
1.2014,91.729
1.3138,91.485
1.4555,91.387
1.6188,91.192
1.7908,90.85
1.9394,90.557
2.0704,90.117
2.2043,89.531
2.3275,88.994
2.435,88.554
2.5249,88.164
2.5963,87.822
2.6491,87.48
2.6843,87.236
2.7048,86.991
2.7107,86.747
2.7019,86.552
2.6823,86.308
2.654,86.112
2.6149,85.917
2.567,85.624
2.5122,85.282
2.4526,84.793
2.39,84.256
2.3275,83.719
2.2669,83.23
2.2082,82.84
2.1525,82.547
2.1017,82.351
2.0547,82.253
2.0147,82.693
1.9785,84.354
1.9413,87.822
1.9032,92.95
1.8641,98.909
1.826,104.82
1.7898,109.75
1.7546,113.51
1.7234,116.2
1.695,118.25
1.6676,120.01
1.6403,121.43
1.6168,122.45
1.5953,122.94
1.5718,122.94
1.5474,122.45
1.522,121.48
1.4976,120.11
1.4741,118.35
1.4516,116.35
1.4301,114.2
1.4086,111.8
1.3871,109.36
1.3666,106.87
1.347,104.48
1.3324,102.43
1.3196,100.67
1.303,99.154
1.2815,97.932
1.2571,96.858
1.2317,95.979
1.2072,95.246
1.1887,94.562
1.1828,94.074
1.1945,93.536
1.2317,93.097
1.3001,92.608
1.3822,92.169
1.479,91.729
1.6041,91.29
1.7478,90.948
1.9013,90.606
2.0547,90.313
2.2014,89.971
2.3353,89.629
2.4536,89.189
2.5552,88.847
2.6383,88.506
2.7019,88.115
2.7488,87.724
2.7761,87.431
2.7869,87.187
2.7879,86.943
2.7801,86.698
2.7605,86.405
2.7292,86.161
2.6872,85.819
2.6354,85.428
2.5777,84.989
2.5142,84.5
2.4487,84.061
2.3832,83.621
2.3265,83.279
2.2747,82.937
2.2209,82.547
2.1701,82.156
2.1212,82.156
2.0762,83.182
2.0342,85.917
1.9932,90.557
1.9541,96.418
1.915,102.47
1.8768,107.85
1.8416,112.05
1.8074,115.17
1.7771,117.47
1.7498,119.47
1.7195,121.18
1.6882,122.5
1.6569,123.23
1.6256,123.38
1.5953,122.99
1.567,122.06
1.5396,120.79
1.5132,119.23
1.4868,117.42
1.4604,115.42
1.4409,113.17
1.4252,110.68
1.4076,108.04
1.3881,105.5
1.3666,103.16
1.3451,101.06
1.3236,99.251
1.3001,97.688
1.2737,96.223
1.2454,95.002
1.219,93.781
1.1965,92.657
1.1857,91.632
1.1887,90.557
1.2102,89.678
1.2561,88.994
1.3304,88.408
1.435,87.919
1.566,87.382
1.7155,86.796
1.8759,86.161
2.0391,85.477
2.1965,84.842
2.3421,84.354
2.4741,83.865
2.5748,83.426
2.654,83.035
2.7292,82.595
2.7947,82.253
2.8456,81.814
2.8807,81.423
2.8983,81.179
2.9003,80.935
2.8886,80.739
2.8641,80.495
2.828,80.104
2.7801,79.665
2.7234,79.225
2.6657,78.786
2.6051,78.492
2.5347,78.102
2.4594,77.76
2.3842,77.32
2.3089,76.881
2.2366,76.49
2.1672,76.197
2.1007,76.197
2.0371,76.881
1.9765,78.932
1.9189,82.742
1.869,88.115
1.825,94.367
1.7771,100.33
1.7292,105.16
1.6813,108.63
1.6344,110.63
1.5894,112.05
1.5474,113.9
1.5073,116.2
1.4692,118.06
1.4321,118.89
1.3978,118.69
1.3715,117.91
1.348,116.79
1.3206,115.57
1.2923,114.05
1.2649,112.39
1.2375,110.44
1.2111,108.04
1.1857,105.26
1.1603,102.23
1.1329,99.447
1.1046,96.907
1.0772,94.904
1.0489,93.341
1.0254,92.12
1.0059,91.094
0.9824,90.362
0.95797,89.824
0.93842,89.189
0.9306,88.701
0.94135,88.31
0.97752,87.968
1.0469,87.675
1.1496,87.382
1.2845,87.138
1.4448,86.943
1.5982,86.747
1.7478,86.552
1.914,86.356
2.0802,86.161
2.2375,85.966
2.3783,85.819
2.5005,85.624
2.6031,85.428
2.6843,85.184
2.7468,84.94
2.7928,84.696
2.8231,84.354
2.8377,84.11
2.8348,84.061
2.8201,84.061
2.7937,84.012
2.7556,83.865
2.7058,83.719
2.6461,83.426
2.5787,83.035
2.5093,82.595
2.4389,82.302
2.3705,82.009
2.306,81.814
2.2454,81.667
2.1935,81.863
2.1486,82.84
2.1036,85.282
2.0596,89.678
2.0156,95.49
1.9746,101.74
1.9374,107.36
1.9032,111.85
1.87,115.17
1.8397,117.67
1.8123,119.77
1.7869,121.43
1.7644,122.7
1.7458,123.28
1.7302,123.28
1.7126,122.79
1.695,121.91
1.6784,120.74
1.6618,119.33
1.6452,117.62
1.6276,115.66
1.6109,113.56
1.5943,111.36
1.5767,109.07
1.5601,106.63
1.5484,104.28
1.5376,102.28
1.522,100.57
1.5034,99.056
1.4819,97.786
1.4585,96.809
1.4555,95.979
1.4673,95.344
1.4712,94.806
1.4819,94.318
1.5103,93.878
1.566,93.341
1.654,92.999
1.7537,92.608
1.87,92.315
2.0264,91.925
2.2063,91.485
2.3988,91.045
2.5943,90.606
2.782,90.117
2.957,89.629
3.1153,89.189
3.2522,88.701
3.3675,88.261
3.4604,87.724
3.521,87.284
3.5572,86.845
3.5846,86.405
3.6002,86.063
3.6012,85.721
3.5865,85.477
3.5543,85.233
3.5073,85.038
3.4467,84.793
3.3754,84.403
3.3001,84.012
3.2219,83.475
3.1437,82.986
3.0723,82.595
3.0059,82.302
2.9384,82.009
2.8729,81.814
2.8104,82.156
2.7517,83.816
2.695,87.138
2.6403,92.169
2.5875,98.323
2.5367,104.38
2.4878,109.51
2.4399,113.32
2.3978,115.91
2.3597,117.86
2.3187,119.37
2.2776,120.55
2.2375,121.23
2.1984,121.28
2.1584,120.89
2.1173,119.91
2.0762,118.69
2.0352,117.18
1.9951,115.37
1.957,113.37
1.9208,111.17
1.8905,108.87
1.8631,106.43
1.8328,104.04
1.8016,101.74
1.7703,99.74
1.739,98.128
1.7058,96.809
1.6706,95.734
1.6334,94.855
1.5943,94.171
1.5582,93.488
1.5288,92.95
1.5122,92.413
1.5122,91.973
1.5318,91.632
1.5797,91.387
1.6618,91.045
1.7801,90.752
1.9306,90.41
2.1056,90.117
2.2942,89.727
2.4868,89.385
2.6735,88.994
2.8475,88.603
3.0029,88.31
3.1193,87.919
3.2072,87.529
3.2884,87.236
3.3578,86.943
3.4096,86.601
3.4428,86.308
3.4565,85.917
3.4526,85.624
3.4321,85.233
3.3959,84.94
3.347,84.598
3.2845,84.305
3.217,84.012
3.1466,83.621
3.0684,83.133
2.9863,82.595
2.9032,82.156
2.8221,81.814
2.7429,81.472
2.6686,81.228
2.6002,81.277
2.5376,82.302
2.48,84.842
2.4262,89.238
2.3763,95.051
2.3333,101.25
2.2933,106.68
2.2493,110.83
2.2053,113.81
2.1613,116.05
2.1183,117.91
2.0753,119.42
2.0332,120.55
1.9912,121.04
1.9492,120.94
1.9081,120.3
1.869,119.33
1.8368,118.01
1.8084,116.35
1.7771,114.54
1.7458,112.54
1.7136,110.39
1.6823,108.04
1.652,105.6
1.6217,103.35
1.5934,101.3
1.564,99.593
1.5337,98.177
1.5034,97.053
1.477,96.076
1.4516,95.197
1.4203,94.416
1.39,93.781
1.3675,93.292
1.3568,92.853
1.3666,92.511
1.4066,92.12
1.4829,91.68
1.5963,91.29
1.7439,90.85
1.9208,90.41
2.1163,90.069
2.2913,89.727
2.4526,89.482
2.6266,89.189
2.7957,88.75
2.9501,88.31
3.085,87.822
3.1965,87.431
3.2835,87.138
3.347,86.845
3.39,86.601
3.4125,86.308
3.4145,85.966
3.3978,85.721
3.3675,85.477
3.3275,85.233
3.2766,84.842
3.2141,84.5
3.1417,84.061
3.0635,83.621
2.9814,83.182
2.8993,82.791
2.8182,82.498
2.738,82.156
2.6618,81.863
2.5914,81.814
2.5308,82.547
2.4761,84.696
2.4213,88.603
2.3695,93.976
2.3187,99.984
2.2698,105.6
2.2219,110.29
2.176,113.76
2.131,116.2
2.087,118.01
2.043,119.57
1.9971,120.74
1.957,121.43
1.9208,121.57
1.8817,121.13
1.8407,120.16
1.7977,118.79
1.7537,117.18
1.7107,115.32
1.6706,113.32
1.6334,111.22
1.5973,109.07
1.563,106.82
1.5318,104.62
1.5005,102.47
1.4751,100.67
1.4526,99.105
1.4242,97.737
1.392,96.614
1.3568,95.734
1.3216,95.002
1.2903,94.416
1.2678,93.878
1.26,93.341
1.2737,92.95
1.3157,92.511
1.392,92.071
1.4858,91.632
1.6012,91.192
1.7556,90.752
1.9365,90.313
2.1349,89.873
2.3402,89.434
2.5406,89.043
2.7283,88.603
2.8974,88.261
3.044,87.919
3.1681,87.626
3.2678,87.284
3.3431,86.943
3.3881,86.601
3.4086,86.308
3.4164,85.917
3.4086,85.673
3.3851,85.477
3.346,85.233
3.2942,84.989
3.2317,84.696
3.1603,84.305
3.0831,83.865
3.001,83.426
2.9189,82.986
2.8436,82.693
2.7722,82.302
2.6989,82.009
2.6266,81.863
2.5582,82.449
2.4927,84.305
2.4301,87.968
2.3695,93.195
2.3109,99.251
2.2551,105.01
2.2033,109.66
2.1525,113.17
2.1017,115.66
2.0577,117.62
2.0186,119.18
1.9756,120.35
1.9316,121.13
1.8886,121.28
1.8446,120.89
1.8016,120.06
1.7605,118.89
1.7185,117.42
1.6755,115.81
1.6344,113.9
1.5934,111.8
1.4888,109.61
1.3548,107.31
1.2737,104.92
1.219,102.72
1.1779,100.67
1.1437,98.909
1.1124,97.444
1.0811,96.125
1.0489,95.002
1.0166,93.927
0.98631,92.999
0.96285,92.169
0.9521,91.436
0.95601,90.655
0.97947,89.922
1.0303,89.238
1.1105,88.603
1.2209,88.066
1.3587,87.48
1.5152,86.943
1.6833,86.356
1.8543,85.819
2.0196,85.233
2.174,84.745
2.3128,84.256
2.4184,83.719
2.4985,83.23
2.5709,82.791
2.6285,82.498
2.6686,82.107
2.6911,81.716
2.696,81.374
2.6843,80.984
2.6579,80.495
2.6168,80.007
2.5621,79.567
2.4966,79.127
2.4213,78.688
2.35,78.297
2.2796,77.906
2.2004,77.564
2.1183,77.223
2.0362,76.783
1.956,76.441
1.8807,76.197
1.8074,76.343
1.738,77.613
1.6745,80.3
1.6139,84.745
1.5562,90.508
1.5064,96.467
1.4624,101.89
1.4135,106.14
1.3636,109.26
1.3138,111.66
1.2649,113.66
1.218,115.32
1.1711,116.44
1.1261,116.93
1.0831,116.88
1.0411,116.25
1,115.32
0.95992,114.1
0.92864,112.68
0.90029,110.97
0.86706,109.12
0.83187,106.92
0.79472,104.58
0.75953,101.99
0.72532,99.447
0.69208,97.102
0.65982,95.246
0.62854,93.732
0.59726,92.56
0.56598,91.534
0.5435,90.655
0.52493,89.873
0.50147,89.189
0.47996,88.603
0.46628,88.066
0.46921,87.529
0.49658,87.04
0.55327,86.601
0.64125,86.112
0.75855,85.819
0.89932,85.477
1.0547,85.233
1.216,84.989
1.3578,84.696
1.4839,84.354
1.6119,84.012
1.7322,83.67
1.8368,83.426
1.9247,83.279
1.9941,83.279
2.045,83.279
2.0772,83.377
2.0938,83.426
2.0948,83.572
2.0811,83.67
2.0596,83.865
2.0293,84.012
1.9873,83.914
1.9355,83.816
1.8749,83.475
1.8084,83.182
1.739,82.937
1.6686,82.595
1.5992,82.351
1.5347,82.107
1.4731,82.302
1.4164,83.475
1.3705,86.308
1.3314,90.997
1.2903,96.907
1.2502,103.26
1.2121,108.82
1.1779,113.32
1.1457,116.54
1.1144,118.98
1.0841,120.89
1.0547,122.31
1.0274,123.18
1.001,123.48
0.97752,123.23
0.9609,122.5
0.94819,121.43
0.93353,120.11
0.91789,118.54
0.90323,116.69
0.88954,114.54
0.87683,112.24
0.8651,109.66
0.85435,107.07
0.84457,104.58
0.8348,102.23
0.82698,100.33
0.82405,98.665
0.82111,97.493
0.81329,96.565
0.80156,95.783
0.78592,95.197
0.76833,94.562
0.75464,93.927
0.75269,93.292
0.76735,92.853
0.80547,92.511
0.87097,92.218
0.96383,91.973
1.0831,91.729
1.2023,91.387
1.3236,90.948
1.4633,90.41
1.607,89.922
1.7449,89.482
1.871,89.092
1.9785,88.799
2.0684,88.506
2.1398,88.164
2.1926,87.871
2.2287,87.529
2.2502,87.187
2.2561,86.796
2.2502,86.503
2.2336,86.112
2.2053,85.721
2.1672,85.428
2.1212,85.038
2.0694,84.745
2.0137,84.354
1.956,83.865
1.8974,83.426
1.8407,82.986
1.7869,82.498
1.7361,82.009
1.6921,81.716
1.653,82.156
1.61,83.914
1.5689,87.48
1.5298,92.657
1.4936,98.812
1.4585,104.72
1.4252,109.75
1.392,113.42
1.3597,116
1.3284,117.86
1.2981,119.23
1.2727,120.3
1.2502,120.79
1.2248,120.79
1.1965,120.3
1.1662,119.37
1.1378,118.11
1.1124,116.54
1.088,114.73
1.0655,112.78
1.044,110.63
1.0235,108.29
1.0029,105.85
0.97947,103.45
0.9609,101.16
0.94526,99.154
0.92571,97.542
0.9042,96.321
0.88074,95.246
0.85435,94.416
0.82796,93.732
0.80352,93.195
0.78397,92.608
0.77322,92.12
0.7781,91.68
0.80352,91.387
0.84457,90.997
0.9042,90.557
0.99022,90.117
1.0958,89.727
1.2151,89.287
1.3431,88.847
1.4702,88.506
1.5885,88.066
1.695,87.626
1.7879,87.187
1.8641,86.796
1.9238,86.405
1.9677,86.112
1.9941,85.868
2.0078,85.575
2.0117,85.379
2.0059,85.184
1.9883,84.94
1.9599,84.745
1.9238,84.5
1.8807,84.158
1.8319,83.865
1.7791,83.475
1.7253,82.986
1.6725,82.547
1.6285,82.253
1.5894,81.912
1.5484,81.618
1.5064,81.374
1.4653,81.423
1.4262,82.351
1.391,84.842
1.3578,89.189
1.3265,94.806
1.2981,100.86
1.2717,106.28
1.2473,110.53
1.2239,113.61
1.2043,115.81
1.1857,117.47
1.1642,118.79
1.1417,119.77
1.1193,120.16
1.0968,120.11
1.1945,119.62
1.3529,118.69
1.4233,117.32
1.4497,115.66
1.4545,113.76
1.4487,111.56
1.4428,109.31
1.437,106.92
1.4272,104.58
1.4145,102.38
1.4008,100.37
1.3861,98.763
1.3695,97.346
1.3519,96.223
1.3343,95.246
1.3167,94.513
1.2991,93.781
1.2825,93.243
1.2708,92.657
1.2708,92.218
1.2854,91.729
1.3177,91.387
1.3705,90.997
1.4448,90.752
1.5367,90.508
1.6422,90.215
1.7537,89.971
1.8651,89.629
1.9707,89.238
2.0665,88.799
2.1486,88.408
2.2092,88.115
2.2551,87.871
2.2942,87.675
2.3245,87.382
2.3441,87.138
2.3519,86.747
2.35,86.356
2.3402,86.063
2.3216,85.819
2.2962,85.575
2.2639,85.379
2.2258,85.038
2.1838,84.745
2.1437,84.305
2.1065,83.816
2.0674,83.279
2.0274,82.84
1.9883,82.547
1.9521,82.351
1.9198,82.253
1.8915,82.547
1.8661,83.914
1.8407,86.943
1.8152,91.534
1.7918,97.346
1.7732,103.35
1.7576,108.68
1.74,112.68
1.7214,115.61
1.7038,117.67
1.6882,119.42
1.6735,120.79
1.6598,121.67
1.6452,122.11
1.6295,122.01
1.6129,121.38
1.5973,120.45
1.5865,119.13
1.5767,117.57
1.565,115.66
1.5523,113.51
1.5406,111.12
1.5298,108.63
1.52,106.14
1.5103,103.79
1.4995,101.79
1.4878,100.13
1.4751,98.763
1.4614,97.542
1.4467,96.565
1.436,95.686
1.4262,94.855
1.4154,94.123
1.4066,93.488
1.4076,92.999
1.4233,92.657
1.4565,92.413
1.5093,92.12
1.5826,91.68
1.6716,91.241
1.7722,90.752
1.8788,90.215
1.9717,89.824
2.0557,89.434
2.1408,89.043
2.217,88.701
2.2825,88.359
2.3372,88.066
2.3803,87.724
2.4106,87.382
2.4282,87.04
2.436,86.698
2.434,86.356
2.4223,86.063
2.4037,85.868
2.3812,85.624
2.3558,85.282
2.3236,84.989
2.2874,84.549
2.2483,84.012
2.2072,83.475
2.1652,83.182
2.1251,82.937
2.087,82.693
2.0499,82.351
2.0147,82.302
1.9834,82.742
1.958,84.403
1.9365,87.871
1.915,92.999
1.8935,99.007
1.8729,104.92
1.8524,110
1.8319,113.81
1.8113,116.44
1.7908,118.35
1.7713,119.91
1.7507,121.13
1.7312,121.87
1.7136,122.06
1.7009,121.72
1.6921,120.99
1.6813,119.67
1.6696,118.01
1.6569,115.91
1.6442,113.66
1.6305,111.22
1.6178,108.63
1.6061,105.94
1.5943,103.26
1.5806,100.72
1.567,98.372
1.5562,96.369
1.5445,94.66
1.5298,93.292
1.5122,92.071
1.4917,91.094
1.4731,90.215
1.4575,89.531
1.4497,88.945
1.4555,88.359
1.478,87.871
1.52,87.382
1.5806,86.991
1.6588,86.601
1.738,86.161
1.8192,85.721
1.913,85.233
2.0088,84.793
2.1007,84.354
2.1848,84.012
2.2581,83.572
2.3196,83.23
2.3685,82.84
2.4047,82.547
2.4282,82.156
2.4418,81.716
2.4457,81.423
2.4399,81.179
2.4262,80.984
2.4037,80.739
2.3744,80.495
2.3372,80.153
2.2952,79.86
2.2483,79.469
2.1984,79.03
2.1466,78.541
2.0958,78.102
2.0469,77.809
2.001,77.467
1.9638,77.125
1.9326,76.881
1.9003,77.174
1.87,78.786
1.8407,82.253
1.8123,87.382
1.7879,93.488
1.7654,99.544
1.7439,104.82
1.7234,108.82
1.7038,111.8
1.6833,114.1
1.6667,116
1.652,117.57
1.6334,118.54
1.6129,118.98
1.5914,118.89
1.5689,118.35
1.5464,117.42
1.5259,116.25
1.5073,114.73
1.4897,112.93
1.4741,110.83
1.4604,108.29
1.4477,105.6
1.4399,102.87
1.434,100.33
1.4262,98.128
1.4154,96.369
1.4027,95.002
1.3891,93.781
1.3734,92.853
1.3568,92.169
1.3402,91.632
1.3265,91.241
1.3196,90.997
1.3245,90.85
1.3412,90.752
1.3734,90.606
1.4282,90.508
1.5044,90.215
1.6012,90.069
1.7116,89.922
1.8309,89.824
1.9511,89.678
2.0655,89.531
2.1701,89.385
2.261,89.092
2.3372,88.945
2.3988,88.799
2.4418,88.603
2.4712,88.359
2.4936,88.115
2.5083,87.822
2.5142,87.529
2.5112,87.382
2.5005,87.187
2.4809,86.991
2.4516,86.747
2.4164,86.356
2.3783,85.917
2.3372,85.428
2.2991,84.989
2.2639,84.549
2.2287,84.11
2.1945,83.816
2.1623,83.816
2.132,84.696
2.1036,87.187
2.0792,91.534
2.0587,97.346
2.042,103.55
2.0274,109.17
2.0137,113.66
1.999,116.93
2.0254,119.37
2.0694,121.23
2.0802,122.79
2.0753,123.92
2.0626,124.5
2.0459,124.5
2.0283,124.02
2.0088,122.99
1.9902,121.62
1.9726,119.86
1.955,117.86
1.9365,115.66
1.9218,113.32
1.9091,110.83
1.8935,108.24
1.8759,105.7
1.8583,103.35
1.8397,101.35
1.8221,99.691
1.8035,98.225
1.784,97.053
1.7625,96.125
1.741,95.295
1.7195,94.66
1.7028,94.123
1.697,93.634
1.7058,93.243
1.738,92.95
1.8006,92.608
1.8974,92.218
2.0274,91.778
2.1828,91.387
2.3568,91.045
2.5386,90.752
2.7175,90.41
2.8847,90.117
3.0371,89.824
3.1544,89.434
3.2444,88.994
3.3275,88.554
3.3988,88.115
3.4545,87.675
3.4927,87.382
3.5132,87.138
3.5161,86.845
3.5015,86.601
3.4692,86.259
3.4223,85.868
3.3627,85.428
3.2991,84.94
3.2336,84.403
3.1613,83.914
3.085,83.475
3.0078,83.133
2.9326,82.791
2.8612,82.498
2.7937,82.449
2.7302,83.035
2.6716,85.184
2.6178,89.189
2.5679,94.66
2.522,101.01
2.4829,106.87
2.4487,111.76
2.4135,115.37
2.3783,117.91
2.3421,119.86
2.3069,121.43
2.2708,122.6
2.2346,123.18
2.1975,123.18
2.1632,122.75
2.132,121.82
2.1007,120.6
2.0762,118.98
2.0547,117.13
2.0303,114.93
2.0039,112.54
1.9775,110.09
1.9501,107.7
1.9218,105.26
1.8905,103.06
1.8573,101.11
1.825,99.495
1.7928,98.03
1.7605,96.809
1.7273,95.734
1.6989,94.904
1.6745,94.22
1.6481,93.634
1.6285,93.048
1.6246,92.56
1.6461,92.071
1.7019,91.534
1.7937,91.241
1.9198,90.948
2.0753,90.557
2.2502,90.166
2.433,89.873
2.5904,89.482
2.7312,89.189
2.8788,88.847
3.0186,88.554
3.1398,88.31
3.2395,88.066
3.3177,87.822
3.3763,87.529
3.4164,87.382
3.4389,87.236
3.4448,87.187
3.434,86.991
3.4066,86.698
3.3685,86.308
3.3216,85.917
3.2659,85.575
3.2033,85.135
3.1369,84.549
3.0674,84.061
2.999,83.67
2.9306,83.279
2.8631,82.986
2.7967,82.791
2.7322,83.279
2.6716,85.038
2.6197,88.554
2.5738,93.683
2.5279,99.74
2.4819,105.6
2.4379,110.53
2.3959,114.3
2.3558,117.03
2.3157,119.23
2.2776,121.13
2.2405,122.6
2.2023,123.67
2.1632,124.06
2.1251,123.87
2.0909,123.14
2.0587,121.87
2.0244,120.35
1.9902,118.59
1.957,116.69
1.9267,114.44
1.8974,112.05
1.869,109.56
1.8407,107.12
1.8143,104.67
1.7889,102.57
1.7605,100.81
1.7361,99.349
1.7146,98.225
1.6882,97.249
1.6569,96.369
1.6237,95.539
1.5934,94.904
1.5728,94.367
1.5689,93.878
1.5924,93.341
1.65,92.853
1.7429,92.413
1.871,92.12
2.0303,91.876
2.1848,91.632
2.3392,91.436
2.5181,91.094
2.7009,90.752
2.8778,90.313
3.0401,89.727
3.1848,89.238
3.3089,88.847
3.4115,88.554
3.4927,88.359
3.5513,88.164
3.5875,88.066
3.6002,87.871
3.5934,87.675
3.5748,87.382
3.5455,87.04
3.5034,86.601
3.4487,86.259
3.3842,85.721
3.3138,85.233
3.2366,84.745
3.1554,84.256
3.0772,83.865
3.002,83.475
2.9306,83.182
2.868,83.426
2.8104,84.696
2.7537,87.626
2.6999,92.315
2.6471,98.177
2.5973,104.23
2.5494,109.61
2.5024,113.86
2.4565,116.98
2.4135,119.37
2.3715,121.28
2.3294,122.94
2.2933,124.11
2.262,124.75
2.2278,124.8
2.1926,124.36
2.1574,123.48
2.1241,122.16
2.0909,120.55
2.0587,118.69
2.0254,116.64
1.9912,114.25
1.958,111.76
1.9247,109.12
1.8905,106.63
1.8631,104.28
1.8387,102.38
1.8113,100.62
1.781,99.154
1.7478,97.932
1.7116,96.907
1.6764,96.076
1.6442,95.295
1.6197,94.66
1.6109,94.171
1.6256,93.781
1.6735,93.439
1.74,93.097
1.8309,92.804
1.9638,92.511
2.131,92.12
2.3216,91.778
2.5239,91.436
2.7283,91.094
2.9267,90.752
3.1124,90.362
3.2786,90.069
3.4223,89.678
3.5425,89.385
3.6393,88.994
3.7038,88.603
3.7449,88.164
3.7791,87.822
3.7986,87.48
3.7996,87.187
3.781,86.943
3.7458,86.552
3.696,86.112
3.6334,85.624
3.5572,85.038
3.4721,84.403
3.3851,83.719
3.304,83.182
3.2287,82.742
3.1496,82.302
3.0694,81.863
2.9932,81.814
2.9218,82.693
2.8543,85.233
2.6197,89.482
2.304,95.002
2.1212,100.81
2.0078,105.99
1.9296,110.09
1.87,113.17
1.8211,115.47
1.781,117.37
1.7419,118.94
1.7019,120.06
1.6618,120.6
1.6227,120.55
1.5846,119.91
1.5474,118.94
1.5112,117.67
1.4761,116.1
1.4409,114.34
1.4076,112.29
1.3803,109.85
1.3568,107.07
1.3294,104.18
1.3011,101.35
1.2727,98.812
1.2434,96.662
1.2111,94.855
1.176,93.341
1.1369,92.12
1.0929,91.094
1.0469,90.166
1.0029,89.385
0.9697,88.603
0.94917,87.968
0.94037,87.48
0.95308,87.04
0.99609,86.601
1.0733,86.308
1.1828,85.917
1.3226,85.624
1.4858,85.233
1.6637,84.842
1.8446,84.5
2.0196,84.11
2.1808,83.719
2.3079,83.377
2.4106,82.986
2.5093,82.547
2.5953,82.107
2.6657,81.716
2.7175,81.423
2.7507,81.13
2.7654,80.739
2.7615,80.446
2.74,80.251
2.6999,80.007
2.6432,79.665
2.5816,79.421
2.5132,79.176
2.4321,78.883
2.3451,78.444
2.2561,78.004
2.1672,77.564
2.0792,77.174
1.9941,76.783
1.913,76.636
1.8377,77.027
1.7693,78.688
1.7067,82.253
1.65,87.529
1.6031,93.976
1.5621,100.42
1.5181,105.94
1.4721,110.19
1.4252,113.37
1.3783,115.91
1.3314,118.01
1.2874,119.67
1.2444,120.79
1.2043,121.28
1.1672,121.38
1.132,121.13
1.1046,120.5
1.0802,119.47
1.0518,118.2
1.0225,116.64
0.99413,114.69
0.96579,112.44
0.93744,109.85
0.91007,107.12
0.88368,104.43
0.85728,101.89
0.82893,99.74
0.79863,97.981
0.76833,96.565
0.74682,95.344
0.7263,94.416
0.6999,93.781
0.67351,93.439
0.65298,93.097
0.64516,92.95
0.66178,92.657
0.71065,92.413
0.79668,92.169
0.92082,91.876
1.0802,91.534
1.2708,91.192
1.4536,90.948
1.6334,90.655
1.8387,90.362
2.0499,89.971
2.2542,89.531
2.4438,89.092
2.6139,88.799
2.7644,88.554
2.8915,88.359
2.9961,88.115
3.0772,87.822
3.1359,87.529
3.174,87.187
3.1877,86.845
3.1808,86.503
3.1623,86.161
3.13,85.819
3.0831,85.379
3.0215,84.989
2.9492,84.598
2.871,84.256
2.7879,83.865
2.7028,83.426
2.6207,83.035
2.5406,82.791
2.4692,83.133
2.4057,84.745
2.3421,88.164
2.2815,93.292
2.2239,99.349
2.1691,105.36
2.1183,110.49
2.0694,114.44
2.0235,117.23
1.9804,119.37
1.9374,121.04
1.8964,122.26
1.8583,122.94
1.8231,122.99
1.7898,122.5
1.7556,121.62
1.7185,120.45
1.6813,118.94
1.6452,117.18
1.6109,115.22
1.5777,113.17
1.5455,110.97
1.5132,108.53
1.4809,105.99
1.4487,103.55
1.4203,101.35
1.3939,99.593
1.3646,98.225
1.3333,97.102
1.3001,96.125
1.2639,95.197
1.2278,94.367
1.1945,93.536
1.1701,92.853
1.1603,92.364
1.175,91.973
1.2199,91.68
1.3001,91.436
1.3959,91.094
1.5122,90.752
1.6686,90.362
1.8524,89.922
2.0508,89.482
2.2512,89.043
2.4438,88.701
2.6217,88.31
2.7801,87.919
2.9159,87.626
3.0274,87.236
3.1153,86.943
3.1711,86.601
3.2033,86.308
3.2268,86.063
3.2346,85.819
3.2248,85.575
3.1955,85.233
3.1476,84.842
3.0831,84.5
3.0059,84.11
2.9159,83.67
2.8201,83.182
2.7204,82.595
2.6207,82.156
2.5327,81.863
2.4526,81.472
2.3705,81.179
2.2903,81.179
2.2151,82.107
2.1447,84.5
2.0782,88.75
2.0166,94.367
1.9599,100.47
1.9062,106.14
1.8553,110.63
1.8065,113.86
1.7644,116.25
1.7243,118.11
1.6794,119.62
1.6325,120.69
1.5836,121.13
1.5347,120.89
1.4868,120.25
1.4399,119.18
1.3959,117.86
1.3539,116.44
1.3128,114.73
1.2727,112.78
1.2346,110.53
1.2033,108.19
1.175,105.7
1.1437,103.26
1.1105,101.11
1.0753,99.3
1.0401,97.884
1.0049,96.662
0.96872,95.686
0.9306,94.855
0.8915,94.22
0.85435,93.683
0.82405,93.243
0.80743,92.755
0.80841,92.315
0.83187,91.876
0.88661,91.436
0.97752,90.948
1.1056,90.41
1.2698,89.971
1.4633,89.482
1.6745,88.994
1.8905,88.506
2.1017,88.066
2.2991,87.724
2.4565,87.431
2.5826,87.138
2.7048,86.698
2.8113,86.161
2.8964,85.819
2.958,85.428
2.9971,85.135
3.0127,84.842
3.0088,84.842
2.9853,85.038
2.9433,85.282
2.8837,85.428
2.8094,85.282
2.7331,84.989
2.6344,84.403
2.521,83.816
2.4252,83.23
2.3382,82.693
2.259,82.302
2.1848,81.912
2.1153,81.716
2.0528,82.009
1.9971,83.182
1.9472,85.917
1.9013,90.41
1.8631,96.125
1.828,101.99
1.7918,107.31
1.7566,111.41
1.7224,114.44
1.6872,116.69
1.653,118.45
1.6188,119.86
1.5855,120.89
1.5533,121.23
1.522,121.04
1.4917,120.5
1.4624,119.57
1.436,118.3
1.4135,116.79
1.3891,115.08
1.3627,113.07
1.3353,110.83
1.3109,108.43
1.2874,105.94
1.263,103.45
1.2375,101.25
1.2131,99.349
1.1887,97.884
1.1623,96.76
1.1398,95.783
1.1183,95.002
1.0909,94.318
1.0616,93.683
1.0352,93.097
1.0176,92.608
1.0156,92.169
1.0371,91.778
1.087,91.436
1.1681,91.094
1.2796,90.801
1.4184,90.557
1.5767,90.313
1.7234,89.922
1.8631,89.531
2.0176,89.189
2.173,88.799
2.3187,88.359
2.4487,87.968
2.5611,87.626
2.6549,87.236
2.7302,86.943
2.7859,86.503
2.8231,86.063
2.8416,85.624
2.8416,85.282
2.827,84.94
2.7996,84.696
2.7595,84.354
2.7077,84.012
2.6461,83.621
2.5777,83.133
2.5044,82.595
2.4291,82.156
2.3539,81.716
2.2796,81.423
2.2072,81.13
2.1388,80.886
2.0802,80.984
2.0283,82.107
1.9765,84.745
1.9267,89.238
1.8788,95.099
1.8319,101.3
1.7859,106.87
1.7419,111.17
1.7009,114.34
1.6618,116.69
1.6246,118.54
1.5904,120.11
1.5621,121.23
1.5376,121.72
1.5103,121.72
1.4829,121.18
1.4555,120.25
1.4282,118.98
1.4008,117.47
1.3744,115.76
1.349,113.76
1.3245,111.51
1.3011,108.92
1.2796,106.19
1.2581,103.45
1.2405,100.81
1.2258,98.421
1.2082,96.418
1.1906,94.758
1.1711,93.292
1.1486,92.12
1.1241,91.045
1.0997,90.215
1.0792,89.531
1.0665,88.994
1.0684,88.506
1.0929,87.919
1.1339,87.431
1.1955,86.943
1.2913,86.405
1.4164,85.917
1.564,85.575
1.7283,85.184
1.8983,84.842
2.0645,84.5
2.2219,84.158
2.3666,83.719
2.4946,83.279
2.6041,82.791
2.6921,82.302
2.7517,81.863
2.7898,81.423
2.8172,81.032
2.8309,80.739
2.8289,80.446
2.8104,80.104
2.7761,79.811
2.7273,79.372
2.6657,78.981
2.5934,78.541
2.5142,78.102
2.4291,77.76
2.35,77.369
2.2727,76.978
2.1896,76.539
2.1056,76.197
2.0235,75.855
1.9453,75.611
1.8729,75.66
1.8045,76.539
1.741,78.932
1.6804,83.035
1.6237,88.75
1.5709,95.002
1.522,100.86
1.4839,105.6
1.4506,109.17
1.4145,111.85
1.3754,114
1.3353,115.66
1.2952,116.88
1.2542,117.57
1.2141,117.76
1.175,117.57
1.1378,117.03
1.1017,116.2
1.0645,114.93
1.0352,113.37
1.0108,111.41
0.9824,109.26
0.95308,106.82
0.92375,104.18
0.89541,101.55
0.86901,99.105
0.84457,97.053
0.82209,95.295
0.79961,93.927
0.77615,92.657
0.75269,91.632
0.72923,90.801
0.71457,90.117
0.70674,89.629
0.6999,89.287
0.70088,89.092
0.71848,88.994
0.76246,88.945
0.83675,88.847
0.94233,88.701
1.0762,88.506
1.2336,88.164
1.4047,87.822
1.5826,87.48
1.737,87.284
1.8729,87.236
2.0127,87.284
2.1447,87.236
2.261,87.04
2.3607,86.796
2.4399,86.552
2.5005,86.259
2.5445,85.966
2.5709,85.819
2.5797,85.673
2.5709,85.624
2.5464,85.477
2.5122,85.428
2.4692,85.282
2.4135,85.135
2.349,84.793
2.2776,84.403
2.2033,84.012
2.13,83.572
2.0577,83.133
1.9883,82.742
1.9247,82.547
1.868,82.937
1.8172,84.403
1.7771,87.724
1.7439,92.657
1.7107,98.665
1.6804,104.62
1.651,109.66
1.6237,113.61
1.5973,116.54
1.5718,118.74
1.5464,120.6
1.522,122.01
1.4976,122.94
1.4741,123.23
1.4536,122.99
1.434,122.16
1.4115,121.04
1.3881,119.67
1.3636,118.11
1.3392,116.49
1.3157,114.64
1.2952,112.49
1.2766,110.05
1.26,107.41
1.2434,104.72
1.2278,102.18
1.2111,100.03
1.1984,98.323
1.1867,96.907
1.1711,95.881
1.1515,95.002
1.13,94.318
1.1085,93.732
1.0909,93.341
1.0821,93.048
1.0909,92.657
1.1212,92.315
1.1789,91.778
1.2659,91.192
1.3607,90.655
1.4682,90.313
1.6061,90.069
1.7595,89.873
1.9189,89.678
2.0753,89.385
2.2209,88.945
2.35,88.31
2.4995,87.724
2.6481,87.187
2.7468,86.747
2.8113,86.356
2.8514,86.112
2.87,85.966
2.8719,85.868
2.8651,85.721
2.8475,85.477
2.8182,85.135
2.7781,84.598
2.7273,84.11
2.6686,83.621
2.6041,83.133
2.5347,82.742
2.4633,82.498
2.393,82.302
2.3314,82.058
2.2757,81.716
2.219,81.667
2.1642,82.302
2.1134,84.354
2.0655,88.31
2.0215,93.781
1.9814,99.984
1.9453,105.85
1.912,110.53
1.8807,114.05
1.8495,116.54
1.8192,118.35
1.7928,119.81
1.7674,120.79
1.738,121.28
1.7077,121.23
1.6774,120.74
1.6471,119.86
1.6178,118.74
1.5885,117.32
1.5582,115.76
1.5298,113.9
1.5034,111.95
1.478,109.61
1.4585,107.12
1.4418,104.58
1.4213,102.23
1.3998,100.33
1.3773,98.665
1.3529,97.444
1.3284,96.369
1.304,95.539
1.2796,94.806
1.2551,94.171
1.2326,93.634
1.216,93.048
1.2131,92.608
1.2258,92.169
1.2571,91.729
1.3118,91.436
1.393,91.045
1.5015,90.752
1.6295,90.362
1.7683,89.922
1.912,89.482
2.0547,89.043
2.1887,88.701
2.3109,88.359
2.4184,87.968
2.4995,87.675
2.5591,87.284
2.6129,86.943
2.6549,86.601
2.6833,86.308
2.6979,85.966
2.6979,85.721
2.6843,85.477
2.6598,85.233
2.6266,84.989
2.5846,84.598
2.5337,84.256
2.478,83.816
2.4242,83.279
2.3724,82.84
2.3187,82.498
2.2649,82.156
2.2121,81.863
2.1603,81.716
2.1114,82.253
2.0665,84.061
2.0225,87.529
1.9824,92.755
1.9462,98.763
1.913,104.58
1.8847,109.41
1.8592,113.12
1.8319,115.76
1.8035,117.81
1.7752,119.47
1.7468,120.89
1.7185,121.82
1.6901,122.11
1.6618,121.91
1.6344,121.28
1.608,120.35
1.5816,119.13
1.5572,117.62
1.5396,115.81
1.5249,113.76
1.5073,111.51
1.4888,109.12
1.4702,106.68
1.4526,104.43
1.435,102.43
1.4154,100.67
1.3949,99.251
1.3744,98.03
1.3539,97.053
1.3324,96.174
1.3157,95.441
1.3021,94.758
1.2884,94.171
1.2815,93.732
1.2884,93.341
1.3138,92.999
1.3636,92.56
1.4399,92.12
1.5415,91.632
1.6647,91.241
1.8006,90.85
1.9423,90.557
2.0821,90.215
2.1984,89.922
2.2981,89.531
2.3998,89.189
2.4927,88.75
2.5728,88.359
2.6393,87.968
2.6901,87.626
2.7263,87.284
2.7478,87.04
2.7556,86.796
2.7507,86.552
2.7331,86.259
2.7077,85.917
2.6755,85.624
2.6334,85.233
2.5836,84.793
2.5288,84.305
2.4702,83.816
2.4115,83.426
2.3529,83.035
2.2972,82.693
2.2444,82.547
2.1945,82.937
2.1476,84.5
2.1036,87.675
2.0665,92.608
2.0332,98.567
1.999,104.48
1.9648,109.56
1.9316,113.51
1.9003,116.3
1.869,118.45
1.8377,120.16
1.8055,121.67
1.7722,122.79
1.739,123.38
1.7077,123.38
1.6823,122.94
1.6608,122.01
1.6373,120.74
1.6129,119.23
1.5875,117.47
1.563,115.42
1.5396,113.17
1.5181,110.68
1.4976,108.19
1.478,105.7
1.4575,103.35
1.437,101.35
1.4164,99.789
1.3998,98.47
1.3842,97.444
1.3636,96.565
1.3392,95.734
1.3148,95.197
1.2942,94.611
1.2845,94.123
1.2893,93.683
1.3138,93.195
1.3627,92.804
1.437,92.413
1.5337,92.071
1.6325,91.68
1.7341,91.241
1.8543,90.85
1.9824,90.41
2.1075,90.069
2.2248,89.678
2.3314,89.287
2.4242,88.847
2.5005,88.506
2.5611,88.115
2.607,87.822
2.6393,87.48
2.6559,87.187
2.6588,86.845
2.654,86.601
2.6383,86.308
2.6129,85.917
2.5777,85.624
2.5347,85.233
2.4848,84.793
2.4291,84.305
2.3695,83.816
2.3089,83.426
2.2483,83.035
2.1896,82.595
2.1388,82.302
2.0938,82.449
2.0489,83.475
2.0068,86.259
1.9677,90.655
1.9316,96.321
1.8983,102.13
1.8661,107.26
1.8348,111.17
1.8055,114.05
1.7761,116.1
1.7458,117.86
1.7195,119.33
1.696,120.35
1.6696,120.89
1.6442,120.79
1.6188,120.25
1.5934,119.23
1.5679,117.91
1.5435,116.44
1.5181,114.64
1.4927,112.63
1.4692,110.39
1.4477,107.85
1.4262,105.26
1.4106,102.62
1.3988,100.13
1.3832,97.932
1.3656,96.076
1.347,94.562
1.3265,93.243
1.304,92.12
1.2815,91.192
1.259,90.313
1.2385,89.531
1.2248,88.847
1.2248,88.31
1.2385,87.871
1.2678,87.382
1.2786,86.943
1.2962,86.503
1.3715,85.966
1.4819,85.477
1.6119,85.038
1.7498,84.598
1.8856,84.256
2.0117,83.865
2.1232,83.572
2.218,83.182
2.2942,82.791
2.348,82.498
2.3832,82.107
2.4106,81.814
2.4262,81.57
2.4311,81.277
2.4233,81.032
2.4018,80.788
2.3675,80.495
2.3216,80.153
2.2669,79.86
2.2053,79.567
2.1408,79.225
2.0821,78.786
2.0283,78.346
1.9677,78.004
1.9052,77.613
1.8426,77.32
1.783,77.125
1.7263,77.223
1.6735,78.248
1.6256,80.788
1.5806,85.184
1.5406,91.094
1.5034,97.542
1.4682,103.5
1.4399,108.19
1.4154,111.66
1.3881,114.3
1.3587,116.44
1.3304,118.2
1.303,119.47
1.2766,120.35
1.2522,120.74
1.2278,120.69
1.2043,120.3
1.1808,119.62
1.1574,118.54
1.1388,117.18
1.1212,115.42
1.0997,113.42
1.0772,111.07
1.0538,108.48
1.0303,105.8
1.0098,103.26
0.9912,101.06
0.97361,99.349
0.95503,97.981
0.93353,96.809
0.91202,95.783
0.8915,94.904
0.87781,94.171
0.86901,93.634
0.86217,93.097
0.8651,92.755
0.88563,92.511
0.9306,92.169
1.0039,91.925
1.1075,91.68
1.2375,91.436
1.3861,91.094
1.5445,90.801
1.7038,90.41
1.8397,90.069
1.957,89.678
2.0753,89.238
2.1857,88.847
2.2835,88.506
2.3656,88.164
2.4321,87.968
2.4829,87.822
2.5181,87.626
2.5376,87.431
2.5425,87.187
2.5337,86.845
2.5122,86.503
2.4848,86.112
2.4506,85.673
2.4047,85.135
2.3519,84.598
2.2942,84.061
2.2356,83.621
2.1779,83.23
2.1232,82.937
2.0694,82.742
2.0176,82.937
1.9687,84.061
1.9247,86.796
1.8876,91.387
1.8563,97.2
1.826,103.31
1.7967,108.68
1.7693,112.93
1.7449,116
1.7224,118.3
1.7009,120.16
1.6804,121.67
1.6598,122.75
1.6403,123.23
1.6217,123.18
1.6022,122.6
1.5846,121.67
1.5679,120.35
1.5484,118.74
1.5269,116.93
1.5054,114.88
1.4829,112.54
1.4604,110.05
1.4379,107.51
1.4174,105.01
1.3988,102.62
1.3803,100.62
1.3617,99.007
1.346,97.591
1.3314,96.565
1.3128,95.637
1.2903,94.855
1.2669,94.171
1.2454,93.488
1.2307,92.95
1.2297,92.364
1.2502,91.925
1.2962,91.632
1.3695,91.29
1.4682,90.997
1.5875,90.606
1.7028,90.215
1.8172,89.922
1.9453,89.531
2.0723,89.238
2.1906,88.847
2.2952,88.408
2.3851,88.066
2.4555,87.626
2.5073,87.236
2.5445,86.845
2.5689,86.552
2.5806,86.308
2.5806,86.063
2.5718,85.721
2.5552,85.477
2.5298,85.184
2.4966,84.94
2.4526,84.696
2.3998,84.354
2.3412,84.012
2.2786,83.475
2.217,82.986
2.1574,82.595
2.1017,82.156
2.0557,81.863
2.0156,81.667
1.9746,82.156
1.9335,84.012
1.8944,87.626
1.8583,92.95
1.825,99.105
1.7937,105.11
1.7625,110
1.7331,113.61
1.7038,116.2
1.6745,118.2
1.6452,119.81
1.6227,121.13
1.6031,121.91
1.5797,122.11
1.5552,121.87
1.5327,121.13
1.5112,120.06
1.4907,118.59
1.4682,116.93
1.4438,114.98
1.4194,112.88
1.3978,110.53
1.3763,108.09
1.3607,105.75
1.349,103.45
1.3343,101.5
1.3196,99.789
1.306,98.421
1.2903,97.249
1.2727,96.223
1.2522,95.295
1.2297,94.513
1.2082,93.781
1.1935,93.195
1.1896,92.608
1.2033,92.169
1.2317,91.729
1.2796,91.436
1.3548,91.045
1.4555,90.655
1.5758,90.362
1.7116,89.971
1.8543,89.629
1.9961,89.238
2.1281,88.945
2.2454,88.554
2.346,88.164
2.4291,87.919
2.4868,87.626
2.5269,87.284
2.5582,86.991
2.5787,86.698
2.5885,86.356
2.5855,86.063
2.5718,85.819
2.5484,85.477
2.5161,85.184
2.4751,84.94
2.4282,84.598
2.3763,84.158
2.3216,83.719
2.2727,83.279
2.2278,82.84
2.1808,82.498
2.1339,82.107
2.088,81.814
2.043,81.814
2.001,82.595
1.9629,84.842
1.9277,88.945
1.8944,94.367
1.8641,100.47
1.8368,106.19
1.8143,110.83
1.7928,114.1
1.7674,116.54
1.741,118.54
1.7146,120.25
1.6901,121.57
1.6657,122.45
1.6432,122.7
1.6227,122.35
1.6022,121.48
1.5806,120.3
1.5591,118.89
1.5376,117.18
1.521,115.37
1.5073,113.22
1.4897,110.92
1.4702,108.48
1.4497,105.99
1.4301,103.7
1.4115,101.6
1.3939,99.935
1.4311,98.47
1.4917,97.346
1.5093,96.369
1.5054,95.637
1.4976,94.904
1.4897,94.367
1.4809,93.781
1.48,93.292
1.4956,92.804
1.5357,92.315
1.6061,91.876
1.7067,91.485
1.8358,91.094
1.9863,90.752
2.1496,90.41
2.3157,90.117
2.4761,89.824
2.608,89.434
2.7204,89.043
2.8328,88.701
2.9374,88.31
3.0293,87.871
3.1056,87.48
3.1652,87.187
3.2082,86.845
3.2346,86.601
3.2444,86.405
3.2375,86.161
3.216,85.868
3.1838,85.575
3.1427,85.184
3.0919,84.842
3.0323,84.5
2.9668,84.061
2.9003,83.621
2.8348,83.182
2.7722,82.84
2.7146,82.498
2.6598,82.107
2.609,81.912
2.563,82.351
2.52,84.061
2.4829,87.529
2.4487,92.755
2.4125,98.812
2.3763,104.72
2.3412,109.66
2.306,113.37
2.2727,116
2.2405,118.06
2.2072,119.81
2.173,121.23
2.1427,122.26
2.1144,122.6
2.089,122.5
2.0655,121.91
2.0391,120.99
2.0137,119.67
1.9892,118.06
1.9658,116.25
1.9404,114.1
1.912,111.8
1.8837,109.36
1.8563,106.82
1.8289,104.38
1.8016,102.18
1.7752,100.23
1.7546,98.567
1.7351,97.004
1.7097,95.539
1.6833,94.318
1.6588,93.195
1.6364,92.12
1.6188,91.192
1.6119,90.313
1.6217,89.531
1.6559,88.847
1.7195,88.164
1.8152,87.48
1.9208,86.845
2.0381,86.259
2.1877,85.624
2.3568,84.989
2.5347,84.403
2.7087,84.012
2.8719,83.572
3.0215,83.133
3.1535,82.693
3.2669,82.253
3.3617,81.814
3.4379,81.423
3.4936,81.032
3.5249,80.69
3.5376,80.251
3.5425,79.86
3.5347,79.469
3.5132,79.127
3.4761,78.737
3.4252,78.346
3.3627,78.053
3.2913,77.662
3.2121,77.223
3.129,76.734
3.044,76.246
2.9668,75.806
2.8964,75.415
2.8221,75.171
2.7488,74.976
2.6784,75.318
2.6109,76.685
2.5445,79.762
2.479,84.5
2.4154,90.362
2.3539,96.418
2.2933,101.74
2.2356,105.85
2.1808,108.97
2.1359,111.32
2.0948,113.22
2.0508,114.73
2.0059,115.81
1.9599,116.3
1.915,116.35
1.8719,116
1.8289,115.32
1.7879,114.25
1.7478,112.93
1.7087,111.22
1.6716,109.31
1.6422,106.97
1.6168,104.48
1.5865,101.89
1.5552,99.3
1.523,97.004
1.4868,95.051
1.4497,93.488
1.4135,92.12
1.3783,90.997
1.3421,90.069
1.3069,89.287
1.2747,88.554
1.2542,87.919
1.2454,87.382
1.2454,86.845
1.2639,86.405
1.3089,85.917
1.3871,85.575
1.5024,85.379
1.653,85.184
1.8309,84.989
2.0264,84.842
2.2307,84.745
2.4311,84.696
2.695,84.598
2.8319,84.598
2.9541,84.598
3.1251,84.598
3.2199,84.598
3.2972,84.549
3.3548,84.5
3.392,84.403
3.4086,84.403
3.4057,84.403
3.3842,84.354
3.346,84.305
3.2991,84.158
3.2444,84.061
3.1789,83.865
3.1065,83.572
3.0303,83.23
2.9511,82.937
2.8739,82.595
2.7996,82.302
2.7292,82.058
2.6628,82.058
2.6012,82.84
2.5435,85.379
2.4907,89.727
2.4467,95.637
2.4057,101.89
2.3656,107.55
2.3284,112.1
2.2923,115.37
2.259,117.67
2.2287,119.57
2.2004,121.04
2.174,122.11
2.1496,122.6
2.1271,122.6
2.1065,122.11
2.089,121.28
2.0733,120.11
2.0577,118.69
2.0411,116.98
2.0235,115.08
2.0059,112.93
1.9892,110.63
1.9736,108.19
1.958,105.7
1.9423,103.35
1.9267,101.25
1.911,99.447
1.8944,97.981
1.8807,96.809
1.8671,95.783
1.8475,94.904
1.827,94.22
1.8094,93.683
1.8133,93.195
1.8465,92.755
1.912,92.315
2.0743,91.876
2.2287,91.485
2.4115,91.192
2.5846,90.801
2.8485,90.41
3.0411,90.069
3.2297,89.629
3.4927,89.189
3.6442,88.75
3.7722,88.261
3.8729,87.724
3.9531,87.284
3.9775,86.943
3.9902,86.601
3.998,86.308
3.999,85.966
3.9824,85.673
3.9394,85.282
3.8768,84.989
3.7996,84.745
3.7126,84.403
3.6197,84.061
3.5269,83.621
3.434,83.133
3.3431,82.547
3.2542,82.107
3.175,81.716
3.1046,81.374
3.0332,81.032
2.9648,80.788
2.8983,81.032
2.8348,82.351
2.7742,85.428
2.7165,90.215
2.6608,96.174
2.608,102.23
2.5552,107.41
2.5044,111.41
2.4555,114.2
2.4135,116.2
2.3744,117.67
2.1965,118.94
1.9531,119.77
1.8162,120.01
1.7322,119.77
1.6745,118.94
1.6315,117.81
1.5953,116.44
1.563,114.88
1.5337,113.12
1.5064,111.17
1.4829,109.07
1.4624,106.68
1.4399,104.23
1.4154,101.89
1.3891,99.789
1.3627,98.03
1.3333,96.76
1.305,95.686
1.2805,94.758
1.2639,93.878
1.26,93.195
1.2737,92.608
1.3109,92.12
1.3607,91.632
1.4282,91.241
1.5249,90.948
1.6442,90.606
1.7781,90.215
1.9189,89.873
2.0596,89.482
2.1945,89.092
2.3167,88.75
2.4252,88.31
2.5171,87.919
2.5914,87.529
2.6403,87.187
2.6706,86.796
2.694,86.405
2.7077,86.063
2.7077,85.819
2.694,85.477
2.6667,85.184
2.6285,84.94
2.5806,84.598
2.5249,84.305
2.4653,84.061
2.4008,83.719
2.3343,83.426
2.2747,83.035
2.2199,82.693
2.1642,82.253
2.1085,81.814
2.0547,81.374
2.0049,80.984
1.9589,80.69
1.9169,80.69
1.8768,81.618
1.8387,84.012
1.8025,88.261
1.7683,93.878
1.739,99.935
1.7126,105.5
1.6852,109.85
1.6559,112.98
1.6266,115.17
1.5953,116.93
1.564,118.3
1.5327,119.37
1.5024,119.86
1.4751,119.81
1.4497,119.23
1.4242,118.35
1.3998,117.23
1.3803,115.86
1.3636,114.3
1.3451,112.54
1.3245,110.53
1.305,108.39
1.2854,106.04
1.2649,103.74
1.2424,101.6
1.2199,99.789
1.1965,98.225
1.173,97.004
1.1515,95.93
1.1369,95.051
1.131,94.318
1.1369,93.634
1.1613,93.048
1.2102,92.608
1.2854,92.169
1.3881,91.876
1.5122,91.485
1.652,91.192
1.8006,90.801
1.9501,90.41
2.0948,90.069
2.2121,89.629
2.3079,89.189
2.4018,88.75
2.4858,88.359
2.5562,87.968
2.6109,87.626
2.65,87.187
2.6735,86.796
2.6823,86.503
2.6764,86.161
2.6569,85.868
2.6246,85.624
2.5826,85.282
2.5367,84.989
2.4858,84.696
2.4282,84.305
2.3675,84.012
2.304,83.621
2.2414,83.182
2.1818,82.742
2.1241,82.351
2.0704,82.009
2.0196,81.667
1.9717,81.374
1.9277,81.277
1.8905,82.107
1.8573,84.354
1.8231,88.408
1.7879,93.927
1.7537,99.935
1.7195,105.41
1.6862,109.85
1.6549,113.12
1.6246,115.42
1.5953,117.23
1.566,118.74
1.5367,119.81
1.5064,120.45
1.48,120.5
1.4575,120.11
1.4321,119.42
1.4076,118.3
1.3842,116.98
1.3617,115.37
1.3402,113.56
1.3187,111.51
1.2962,109.26
1.2737,106.92
1.2512,104.58
1.2287,102.28
1.2111,100.23
1.1955,98.616
1.175,97.249
1.1535,96.174
1.1369,95.246
1.1271,94.513
1.131,93.781
1.1554,93.243
1.2043,92.755
1.2805,92.364
1.3842,92.071
1.5093,91.778
1.65,91.485
1.7781,91.094
1.8993,90.655
2.0323,90.215
2.1642,89.873
2.2874,89.434
2.3978,88.945
2.4917,88.506
2.5679,88.066
2.6266,87.626
2.6676,87.284
2.6921,86.991
2.6999,86.698
2.6921,86.308
2.6725,85.966
2.6422,85.673
2.6002,85.428
2.5484,85.184
2.4878,84.94
2.4223,84.598
2.3539,84.256
2.2835,83.865
2.2151,83.426
2.1496,82.937
2.088,82.449
2.0293,82.058
1.9804,81.667
1.9374,81.277
1.8944,81.179
1.8514,81.716
1.8113,83.621
1.7732,87.187
1.7351,92.315
1.6979,98.128
1.6618,103.55
1.6266,107.99
1.5914,111.17
1.5582,113.37
1.5308,114.93
1.5064,116.25
1.4809,117.18
1.4555,117.67
1.4291,117.67
1.4027,117.23
1.3773,116.44
1.3519,115.32
1.3255,113.9
1.3001,112.29
1.2747,110.44
1.2502,108.39
1.2268,106.14
1.2092,103.7
1.1945,101.16
1.176,98.812
1.1554,96.662
1.1329,94.904
1.1095,93.439
1.085,92.169
1.0626,91.045
1.0479,90.117
1.0479,89.287
1.0665,88.603
1.1105,87.919
1.1681,87.382
1.2395,86.796
1.3382,86.356
1.4575,85.917
1.5885,85.477
1.7253,85.038
1.8592,84.549
1.9844,84.11
2.0968,83.621
2.1935,83.23
2.2727,82.84
2.3353,82.449
2.3812,82.009
2.4076,81.618
2.4194,81.228
2.4203,80.886
2.4096,80.495
2.3871,80.104
2.3529,79.86
2.3089,79.616
2.2542,79.372
2.1916,79.127
2.1232,78.883
2.0508,78.59
1.9785,78.297
1.915,78.004
1.8573,77.564
1.7957,77.125
1.7341,76.685
1.6755,76.294
1.6217,75.904
1.5709,75.66
1.523,75.562
1.478,76.001
1.4438,77.613
1.4135,80.984
1.3783,86.112
1.3402,92.315
1.3089,98.421
1.2796,103.74
1.2463,107.75
1.2121,110.68
1.1769,112.93
1.1427,114.73
1.1105,116.1
1.0792,116.98
1.0479,117.37
1.0166,117.23
0.98631,116.88
0.95699,116.2
0.93548,115.22
0.91984,114
0.90029,112.49
0.87977,110.68
0.85826,108.53
0.83675,106.19
0.81525,103.74
0.79277,101.35
0.76833,99.3
0.74291,97.591
0.71554,96.369
0.68915,95.344
0.66764,94.416
0.65885,93.634
0.66373,92.95
0.68231,92.413
0.7263,91.925
0.80059,91.534
0.90811,91.192
1.0459,90.801
1.2092,90.508
1.3891,90.166
1.5758,89.922
1.7595,89.629
1.9316,89.287
2.0704,89.043
2.1848,88.75
2.2972,88.506
2.3969,88.261
2.4809,87.968
2.5464,87.675
2.5934,87.382
2.6237,87.138
2.6373,86.943
2.6364,86.698
2.6178,86.405
2.5846,86.259
2.5406,85.966
2.4927,85.819
2.4399,85.575
2.3773,85.233
2.3089,84.842
2.2414,84.403
2.176,83.914
2.1124,83.426
2.0528,82.986
1.998,82.595
1.9482,82.253
1.9022,82.107
1.8592,82.595
1.8221,84.403
1.7908,88.115
1.7576,93.439
1.7146,99.544
1.6764,105.41
1.65,110.29
1.6217,113.9
1.5934,116.54
1.566,118.5
1.5386,120.01
1.5122,121.04
1.4858,121.57
1.4633,121.57
1.4418,121.04
1.4184,120.16
1.3949,118.98
1.3715,117.62
1.35,116
1.3284,114.25
1.3079,112.24
1.2874,110.05
1.2659,107.6
1.2444,105.16
1.2209,102.87
1.1945,100.81
1.1711,99.105
1.1496,97.737
1.1232,96.614
1.0978,95.686
1.0792,94.806
1.0762,94.074
1.0938,93.439
1.1388,92.853
1.2141,92.364
1.3187,91.973
1.4487,91.632
1.5963,91.241
1.7331,90.801
1.8631,90.362
2.0068,89.922
2.1496,89.531
2.2805,89.092
2.3959,88.701
2.4927,88.261
2.5679,87.871
2.6227,87.431
2.6598,87.138
2.6784,86.747
2.6813,86.356
2.6686,86.063
2.6461,85.721
2.6139,85.428
2.5699,85.184
2.5161,84.94
2.4565,84.696
2.392,84.354
2.3245,84.061
2.2551,83.67
2.1857,83.23
2.1183,82.742
2.0538,82.302
1.9922,81.912
1.9394,81.618
1.8925,81.228
1.8446,80.984
1.7977,81.13
1.7517,82.253
1.7087,85.038
1.6686,89.629
1.6295,95.441
1.5904,101.5
1.5523,106.87
1.5152,110.97
1.479,114
1.4438,116.2
1.4154,117.86
1.391,119.23
1.3627,120.16
1.3333,120.55
1.305,120.35
1.2766,119.77
1.2483,118.74
1.2209,117.42
1.1955,115.86
1.172,114.1
1.1496,112.24
1.1261,110.09
1.1085,107.85
1.0948,105.55
1.0762,103.26
1.0528,101.25
1.0283,99.544
1.0029,98.177
0.97752,97.004
0.95308,96.076
0.93353,95.197
0.92669,94.416
0.93842,93.732
0.97556,93.195
1.0401,92.608
1.1193,92.12
1.216,91.729
1.3441,91.387
1.4927,90.997
1.652,90.606
1.8133,90.215
1.9668,89.922
2.1056,89.482
2.2278,89.092
2.3314,88.701
2.4145,88.261
2.478,87.871
2.5181,87.529
2.5406,87.284
2.5533,86.991
2.5552,86.698
2.5435,86.356
2.5181,86.063
2.4819,85.721
2.436,85.428
2.3822,85.184
2.3226,84.94
2.261,84.696
2.1984,84.354
2.1359,84.012
2.0811,83.572
2.0313,83.133
1.9775,82.742
1.9247,82.351
1.8749,82.009
1.828,81.667
1.7752,81.472
1.7302,81.912
1.6989,83.621
1.6657,87.187
1.6325,92.364
1.6002,98.372
1.5738,104.18
1.5503,109.07
1.5239,112.73
1.4966,115.32
1.4682,117.32
1.4389,118.98
1.4096,120.3
1.3803,121.04
1.3529,121.28
1.3275,121.04
1.303,120.35
1.2796,119.37
1.2571,118.06
1.2395,116.54
1.2248,114.73
1.2072,112.68
1.1887,110.44
1.1701,108.09
1.1515,105.7
1.1329,103.35
1.1134,101.25
1.0919,99.495
1.0674,98.03
1.042,96.858
1.0196,95.93
1.0078,95.099
1.0078,94.416
1.0225,93.878
1.0606,93.341
1.1281,92.853
1.2258,92.511
1.3509,92.071
1.4976,91.68
1.6569,91.29
1.8201,90.948
1.9795,90.508
2.1281,90.117
2.261,89.678
2.3627,89.287
2.4409,88.945
2.5142,88.603
2.5758,88.261
2.6237,87.919
2.6549,87.529
2.6716,87.236
2.6725,86.943
2.6598,86.601
2.6344,86.259
2.5992,85.917
2.5543,85.575
2.5064,85.233
2.4536,84.989
2.392,84.745
2.4047,84.5
2.4545,84.11
2.4477,83.719
2.4145,83.23
2.3695,82.84
2.3226,82.547
2.2747,82.253
2.2297,81.863
2.1867,81.716
2.1476,82.449
2.1153,84.549
2.087,88.506
2.0567,93.927
2.0274,99.984
1.998,105.6
1.9677,110.19
1.9374,113.56
1.9071,116
1.8768,117.91
1.8475,119.57
1.8192,120.79
1.7908,121.62
1.7674,121.82
1.7468,121.62
1.7243,120.94
1.7009,119.91
1.6774,118.59
1.654,117.03
1.6315,115.22
1.61,113.22
1.5885,111.07
1.567,108.68
1.5474,106.28
1.5288,104.04
1.5083,101.99
1.4917,100.33
1.4751,98.86
1.4545,97.591
1.436,96.565
1.4242,95.686
1.4262,94.855
1.4477,94.22
1.4946,93.634
1.5699,93.097
1.6735,92.657
1.8025,92.218
1.9501,91.876
2.087,91.436
2.218,90.997
2.3627,90.557
2.5073,90.166
2.6422,89.824
2.7615,89.385
2.8631,88.994
2.9472,88.603
3.0127,88.261
3.0606,87.919
3.0909,87.626
3.1065,87.236
3.1065,86.943
3.0919,86.552
3.0674,86.161
3.0332,85.819
2.9902,85.477
2.9394,85.233
2.8817,84.989
2.8182,84.745
2.7517,84.403
2.6852,84.11
2.6031,83.67
2.5308,83.23
2.48,82.791
2.4311,82.449
2.3861,82.058
2.3392,81.667
2.2933,81.472
2.2493,81.912
2.2072,83.621
2.1672,86.991
2.13,92.071
2.0938,97.981
2.0587,103.84
2.0244,108.87
1.9902,112.54
1.9609,115.17
1.9335,117.13
1.9042,118.54
1.8739,119.77
1.8426,120.45
1.8113,120.6
1.782,120.25
1.7546,119.47
1.7283,118.35
1.7009,116.88
1.6745,115.17
1.65,113.22
1.6266,111.07
1.609,108.68
1.5943,106.14
1.5758,103.5
1.5562,101.01
1.5357,98.616
1.5132,96.565
1.4897,94.806
1.4673,93.341
1.4457,92.12
1.4301,90.997
1.4282,90.069
1.4448,89.238
1.4761,88.554
1.5288,87.919
1.6129,87.382
1.7253,86.796
1.8612,86.308
2.0137,85.819
2.173,85.233
2.3324,84.745
2.4848,84.256
2.6237,83.719
2.7449,83.279
2.8475,82.791
2.9296,82.302
2.9853,81.863
3.0205,81.423
3.045,81.032
3.0557,80.69
3.0508,80.251
3.0303,79.909
2.9941,79.616
2.9462,79.372
2.8876,78.981
2.8201,78.688
2.7458,78.346
2.6676,78.053
2.5953,77.662
2.5269,77.32
2.4536,76.881
2.3793,76.49
2.3069,76.197
2.2356,75.855
2.1681,75.562
2.1046,75.318
2.044,74.976
1.9873,74.731
1.9335,74.731
1.8827,75.611
1.8348,77.906
1.7957,82.058
1.7634,87.724
1.7283,93.976
1.6921,99.789
1.6559,104.43
1.6188,107.8
1.5806,110.29
1.5435,112.19
1.5064,113.76
1.4712,114.98
1.4379,115.76
1.4066,116
1.3832,115.81
1.3646,115.22
1.3431,114.44
1.3206,113.32
1.2972,111.85
1.2727,110.09
1.2483,107.99
1.2248,105.7
1.2023,103.16
1.1808,100.67
1.1613,98.372
1.1417,96.418
1.1202,94.904
1.1036,93.732
1.0919,92.804
1.0782,92.071
1.0704,91.485
1.0743,91.045
1.0997,90.752
1.1525,90.508
1.2375,90.215
1.3548,89.971
1.4985,89.678
1.6637,89.287
1.8416,89.043
2.002,88.799
2.1496,88.506
2.3069,88.261
2.4604,87.968
2.6002,87.724
2.7234,87.48
2.827,87.236
2.912,86.991
2.9785,86.796
3.0264,86.552
3.0567,86.356
3.0704,86.161
3.0684,85.966
3.0411,85.721
3.0078,85.575
2.9775,85.379
2.9326,85.135
2.8768,84.793
2.8143,84.549
2.7488,84.158
2.6833,83.719
2.6207,83.23
2.5621,82.791
2.5073,82.351
2.4575,82.058
2.4174,81.716
2.3842,81.472
2.35,81.667
2.3167,82.791
2.2854,85.575
2.2542,90.215
2.2229,96.174
2.1926,102.38
2.1613,107.75
2.13,111.95
2.1007,114.88
2.0714,117.03
2.044,118.74
2.0225,120.01
2.0049,120.74
1.9853,120.94
1.9648,120.6
1.9453,119.86
1.9277,118.89
1.911,117.57
1.8944,116.1
1.8768,114.44
1.8583,112.54
1.8407,110.49
1.825,108.19
3.1183,86.698
3.1163,86.356
3.1134,86.063
3.1017,85.721
3.0802,85.379
3.0469,85.038
3.0039,84.793
2.9521,84.5
2.8935,84.256
2.8289,83.865
2.7605,83.475
2.6921,83.133
2.6285,82.595
2.5689,82.156
2.5073,81.716
2.4477,81.374
2.391,81.032
2.3382,80.69
2.2903,80.446
2.2454,80.69
2.2014,82.009
2.1593,84.94
2.1193,89.678
2.0811,95.539
2.044,101.55
2.0117,106.68
1.9814,110.63
1.9482,113.37
1.913,115.37
1.8778,116.93
1.8436,118.11
1.8104,118.89
1.7781,119.13
1.7458,118.79
1.7155,118.06
1.6852,116.98
1.6559,115.76
1.6315,114.25
1.6109,112.63
1.5904,110.73
1.5689,108.68
1.5474,106.48
1.5269,104.18
1.5044,101.94
1.4809,99.935
1.4565,98.372
1.4291,97.053
1.4008,95.979
1.3734,95.051
1.3529,94.171
1.3441,93.439
1.349,92.804
1.3715,92.218
1.4203,91.778
1.4976,91.387
1.6012,90.997
1.7283,90.655
1.8729,90.362
2.0283,89.922
2.1867,89.482
2.3402,89.043
2.4819,88.603
2.5934,88.164
2.6813,87.822
2.7644,87.431
2.8348,87.138
2.8935,86.796
2.9335,86.405
2.9521,86.112
2.955,85.819
2.9443,85.477
2.9198,85.233
2.8837,84.989
2.8368,84.745
2.783,84.403
2.7273,84.11
2.6706,83.865
2.608,83.475
2.5435,83.133
2.478,82.693
2.4135,82.156
2.3529,81.863
2.2952,81.57
2.2405,81.228
2.1906,80.935
2.1447,80.739
2.1026,81.228
2.0674,83.182
2.0362,86.845
2.002,92.071
1.9668,98.03
1.9316,103.74
1.8964,108.48
1.8622,111.95
1.8289,114.34
1.7967,116.1
1.7664,117.57
1.7361,118.59
1.7067,119.23
1.6804,119.37
1.6588,118.98
1.6393,118.3
1.6158,117.23
1.5924,115.91
1.5699,114.34
1.5474,112.68
1.5249,110.88
1.5024,108.82
1.48,106.53
1.4585,104.28
1.437,102.13
1.4154,100.23
1.3978,98.665
1.3822,97.346
1.3627,96.321
1.3431,95.441
1.3284,94.66
1.3236,94.074
1.3363,93.439
1.3715,92.95
1.435,92.511
1.5279,92.071
1.6471,91.632
1.7879,91.241
1.9433,90.85
2.0831,90.557
2.2111,90.166
2.35,89.824
2.4848,89.434
2.609,88.945
2.7165,88.506
2.8065,88.066
2.8768,87.626
2.9286,87.236
2.9619,86.845
2.9785,86.552
2.9804,86.259
2.9677,85.868
2.9423,85.477
2.9071,85.135
2.8622,84.793
2.8084,84.5
2.7458,84.158
2.6784,83.914
2.609,83.621
2.5406,83.279
2.4751,82.84
2.4125,82.449
2.3539,82.107
2.2991,81.716
2.2532,81.423
2.2111,81.228
2.1681,81.57
2.1271,82.986
2.087,86.112
2.0479,90.948
2.0088,96.809
1.9707,102.67
1.9335,107.75
1.8964,111.61
1.8622,114.3
1.828,116.35
1.7986,117.91
1.7732,119.23
1.7458,120.11
1.7185,120.5
1.6931,120.3
1.6676,119.77
1.6422,118.79
1.6178,117.57
1.5953,116.1
1.5728,114.49
1.5494,112.63
1.5259,110.63
1.5034,108.48
1.4858,106.19
1.4692,103.84
1.4487,101.69
1.4282,99.886
1.4057,98.372
1.3812,97.102
1.3578,96.174
1.3392,95.441
1.3304,94.855
1.3382,94.318
1.3675,93.732
1.4252,93.243
1.4966,92.755
1.5855,92.315
1.7048,91.925
1.8465,91.534
2.001,91.192
2.1593,90.801
2.3138,90.362
2.4858,89.971
2.6305,89.629
2.7243,89.238
2.8094,88.847
2.8798,88.408
2.9335,88.066
2.9648,87.675
2.9804,87.284
2.9883,86.991
2.9844,86.601
2.9668,86.308
2.9374,85.917
2.8954,85.624
2.8426,85.233
2.781,84.842
2.7146,84.549
2.6442,84.256
2.5718,83.865
2.5083,83.377
2.4497,82.937
2.3891,82.498
2.3294,82.058
2.2727,81.618
2.218,81.228
2.1652,81.228
2.1144,82.107
2.0645,84.5
2.0166,88.554
1.9707,93.781
1.9277,99.3
1.8876,104.23
1.8534,108.09
1.8231,110.88
1.7879,112.88
1.7527,114.44
1.7185,115.66
1.6843,116.64
1.651,117.13
1.6188,117.13
1.5875,116.54
1.5572,115.76
1.5279,114.64
1.4995,113.32
1.4761,111.76
1.4555,110
1.4262,107.95
1.3998,105.7
1.3803,103.31
1.3587,100.86
1.3353,98.616
1.3099,96.565
1.2815,94.855
1.2512,93.341
1.216,92.071
1.1877,90.948
1.176,89.922
1.174,89.043
1.1838,88.261
1.2141,87.529
1.2307,86.943
1.2542,86.405
1.3666,85.917
1.4936,85.428
1.5934,84.94
1.7126,84.5
1.8368,84.11
1.956,83.719
2.0645,83.279
2.1466,82.791
2.2102,82.351
2.2678,81.863
2.3118,81.472
2.3421,81.228
2.3539,80.935
2.3529,80.69
2.3441,80.349
2.3206,80.104
2.2854,79.909
2.2395,79.665
2.1838,79.323
2.1271,78.981
2.0694,78.688
2.0029,78.444
1.9306,78.102
1.8583,77.76
1.7722,77.369
1.6979,76.978
1.6452,76.636
1.5904,76.294
1.5367,76.001
1.4839,75.806
1.433,76.099
1.3851,77.418
1.347,80.349
1.3167,85.135
1.2845,91.192
1.2512,97.444
1.219,103.01
1.1867,107.26
1.1544,110.44
1.1212,112.78
1.0821,114.73
1.0479,116.35
1.0166,117.57
0.98729,118.25
0.97263,118.5
0.95894,118.45
0.9306,118.06
0.89541,117.37
0.87097,116.35
0.85337,115.08
0.82796,113.42
0.80547,111.56
0.78886,109.41
0.77126,107.07
0.7478,104.67
0.71848,102.47
0.69892,100.57
0.68524,99.007
0.67058,97.737
0.65982,96.662
0.65396,95.686
0.65885,94.855
0.68524,94.171
0.71457,93.634
0.78201,93.048
0.90518,92.657
1.043,92.364
1.1926,92.071
1.3304,91.778
1.4604,91.485
1.6022,91.192
1.741,90.801
1.871,90.41
1.9863,90.069
2.085,89.629
2.1681,89.189
2.2336,88.799
2.2825,88.506
2.3157,88.164
2.3353,87.871
2.3412,87.529
2.3343,87.236
2.3177,86.991
2.2913,86.747
2.2551,86.552
2.2121,86.308
2.1632,85.966
2.1114,85.624
2.0567,85.233
2.0029,84.745
1.9521,84.305
1.9022,83.865
1.8553,83.475
1.8172,83.133
1.784,82.84
1.7507,82.84
1.7185,83.621
1.6872,85.721
1.6579,89.629
1.6305,95.002
1.6041,101.01
1.5787,106.63
1.5543,111.22
1.5298,114.64
1.5044,116.98
1.48,118.89
1.4614,120.35
1.4448,121.43
1.4242,122.06
1.4027,122.06
1.3803,121.57
1.3568,120.74
1.3333,119.67
1.3089,118.25
1.2854,116.64
1.263,114.69
1.2414,112.54
1.2209,110.24
1.2063,107.8
1.1945,105.36
1.1789,103.16
1.1603,101.25
1.1398,99.593
1.1183,98.323
1.0987,97.2
1.085,96.174
1.0821,95.295
1.0948,94.562
1.129,93.878
1.1877,93.243
1.2698,92.657
1.3568,92.169
1.4506,91.778
1.564,91.436
1.6852,91.045
1.8055,90.752
1.9179,90.313
2.0176,89.873
2.1036,89.434
2.174,88.994
2.2287,88.603
2.2678,88.164
2.2933,87.822
2.305,87.48
2.3079,87.138
2.306,86.796
2.2952,86.405
2.2737,86.112
2.2434,85.721
2.2033,85.477
2.1554,85.233
2.1026,84.989
2.0469,84.745
1.9912,84.403
1.9365,84.11
1.8827,83.719
1.8368,83.279
1.7967,82.791
1.7556,82.449
1.7165,82.009
1.6804,81.618
1.6461,81.57
1.6139,82.107
1.5826,84.11
1.5523,87.871
1.522,93.243
1.4917,99.447
1.4633,105.26
1.4409,110
1.4213,113.51
1.3988,115.91
1.3754,117.76
1.3519,119.33
1.3284,120.5
1.305,121.23
1.2825,121.43
1.26,121.18
1.2375,120.5
1.216,119.47
1.1955,118.2
1.176,116.54
1.1613,114.69
1.1496,112.54
1.1349,110.29
1.1193,107.95
1.1026,105.6
1.086,103.45
1.0694,101.45
1.0518,99.789
1.0332,98.421
1.0166,97.297
1.0059,96.369
1.0049,95.637
1.0176,94.855
1.0459,94.318
1.0968,93.732
1.1711,93.195
1.2659,92.755
1.3773,92.218
1.4985,91.729
1.6217,91.29
1.74,90.948
1.8495,90.557
1.9453,90.166
2.0264,89.824
2.086,89.434
2.1281,88.994
2.1632,88.603
2.1887,88.261
2.2033,87.919
2.2082,87.626
2.2033,87.382
2.1887,87.04
2.1662,86.747
2.1369,86.552
2.1007,86.356
2.0596,86.161
2.0156,85.917
1.9746,85.624
1.9345,85.233
1.8915,84.842
1.8465,84.403
1.8035,83.914
1.7634,83.475
1.7253,83.133
1.6891,82.742
1.6569,82.449
1.6276,82.253
1.6022,82.595
1.5777,84.158
1.5591,87.48
1.5415,92.511
1.52,98.421
1.4976,104.38
1.4741,109.41
1.4506,113.32
1.4282,116.05
1.4057,118.11
1.3842,119.81
1.3636,121.18
1.3431,122.06
1.3236,122.45
1.305,122.35
1.2913,121.87
1.2796,120.99
1.2659,119.81
1.2502,118.35
1.2346,116.64
1.218,114.69
1.2023,112.49
1.1877,110.09
1.173,107.6
1.1574,105.31
1.2473,103.26
1.391,101.55
1.4585,100.13
1.4897,98.86
1.5015,97.737
1.5093,96.662
1.5239,95.686
1.5552,94.855
1.61,94.171
1.6911,93.634
1.7947,93.195
1.9169,92.755
2.0508,92.364
2.1887,92.071
2.3236,91.68
2.434,91.436
2.5259,91.192
2.6158,90.948
2.696,90.557
2.7634,90.166
2.8172,89.678
2.8573,89.238
2.8817,88.799
2.8925,88.359
2.8895,87.919
2.8739,87.529
2.8475,87.187
2.8162,86.845
2.7801,86.552
2.7361,86.161
2.6862,85.868
2.6344,85.575
2.5806,85.233
2.5269,84.842
2.4751,84.5
2.4252,84.061
2.3783,83.572
2.3363,83.182
2.2962,82.84
2.26,82.547
2.2317,82.302
2.2072,82.253
2.1799,82.986
2.1515,84.989
2.1222,88.75
2.0929,93.976
2.0645,99.984
2.0371,105.75
2.0088,110.63
1.9804,114.25
1.9521,116.88
1.9257,118.98
1.9052,120.94
1.8895,122.5
1.8719,123.58
1.8543,124.02
1.8368,123.82
1.8192,123.04
1.8016,122.01
1.783,120.69
1.7634,119.18
1.7439,117.47
1.7243,115.57
1.7058,113.22
1.6862,110.63
1.6716,107.95
1.6588,105.36
1.6413,103.11
1.6217,101.25
1.6031,99.691
1.5865,98.225
1.5758,96.907
1.5767,95.686
1.5953,94.611
1.6364,93.634
1.7038,92.804
1.7967,92.071
1.8935,91.436
1.9961,90.752
2.1183,90.117
2.2473,89.434
2.3754,88.701
2.4946,87.919
2.6002,87.187
2.6911,86.405
2.7683,85.721
2.8309,85.038
2.8807,84.5
2.9189,84.012
2.9433,83.572
2.9531,83.23
2.9511,82.937
2.9413,82.547
2.9238,82.156
2.8974,81.716
2.8612,81.277
2.8152,80.886
2.7625,80.446
2.7058,80.007
2.6471,79.616
2.5865,79.225
2.5269,78.883
2.4751,78.492
2.4291,78.004
2.3793,77.418
2.3304,76.978
2.2845,76.539
2.2405,76.099
2.1975,75.757
2.1554,75.611
2.1153,76.197
2.0762,78.004
2.0362,81.57
1.9951,86.747
1.955,92.853
1.9218,98.812
1.8915,103.79
1.8573,107.51
1.8221,110.24
1.7869,112.39
1.7527,114.2
1.7195,115.66
1.6882,116.69
1.6608,117.23
1.6354,117.32
1.6119,116.98
1.5875,116.3
1.5679,115.32
1.5533,113.9
1.5347,112.19
1.5142,110.09
1.4927,107.85
1.4692,105.31
1.4467,102.67
1.4233,100.03
1.3978,97.688
1.3715,95.686
1.346,94.074
1.3236,92.755
1.3079,91.534
1.305,90.557
1.3167,89.678
1.347,88.945
1.4027,88.261
1.4858,87.675
1.5953,87.04
1.7263,86.503
1.8719,85.966
2.0235,85.575
2.173,85.184
2.3148,84.842
2.4438,84.549
2.5445,84.158
2.6217,83.865
2.6921,83.621
2.7527,83.426
2.8006,83.279
2.8358,83.182
2.8583,83.035
2.8671,83.035
2.8622,83.035
2.8446,83.133
2.8152,83.23
2.7761,83.377
2.7273,83.475
2.6784,83.621
2.6295,83.67
2.5738,83.621
2.5171,83.572
2.4614,83.426
2.4066,83.23
2.3548,82.986
2.3069,82.693
2.2639,82.498
2.2258,82.302
2.1906,82.107
2.1593,82.302
2.1349,83.426
2.1134,86.161
2.0899,90.85
2.0655,96.907
2.042,103.26
2.0196,108.73
1.999,112.98
1.9804,116.1
1.9629,118.35
1.9472,120.25
1.9326,121.82
1.9198,122.94
1.912,123.58
1.9071,123.67
1.9013,123.28
1.8954,122.6
1.8886,121.62
1.8827,120.35
1.8759,118.74
1.87,116.88
1.8641,114.69
1.8592,112.24
1.8534,109.66
1.8475,107.12
1.8407,104.67
1.8348,102.57
1.8299,100.81
1.8221,99.349
1.8133,98.177
1.8065,97.2
1.8113,96.321
1.8348,95.49
1.8817,94.806
1.955,94.171
2.0577,93.683
2.1857,93.195
2.3333,92.755
2.4692,92.364
2.5982,91.925
2.741,91.534
2.8847,91.192
3.0215,90.801
3.1457,90.41
3.2542,89.971
3.346,89.629
3.4223,89.287
3.4819,88.994
3.5249,88.603
3.5533,88.164
3.567,87.822
3.564,87.431
3.5494,87.04
3.5279,86.747
3.4956,86.356
3.4536,86.063
3.4047,85.721
3.35,85.428
3.2913,85.135
3.2307,84.793
3.1691,84.403
3.1105,84.012
3.0547,83.572
3.0049,83.133
2.9599,82.742
2.915,82.302
2.8719,81.912
2.8309,81.863
2.7908,82.791
2.7517,85.282
2.7136,89.727
2.6784,95.49
2.6432,101.69
2.608,107.16
2.5728,111.56
2.5396,114.69
2.5103,116.88
2.4819,118.59
2.4526,120.01
2.4242,120.99
2.2884,121.48
2.1017,121.43
1.9971,120.89
1.9335,120.06
1.8905,118.89
1.8583,117.42
1.8299,115.66
1.8035,113.66
1.781,111.51
1.7615,109.17
1.74,106.82
1.7185,104.43
1.696,102.23
1.6716,100.33
1.6471,98.763
1.6217,97.444
1.5982,96.321
1.5806,95.295
1.5748,94.513
1.5855,93.732
1.6197,93.097
1.6657,92.56
1.7292,91.973
1.8231,91.534
1.9404,91.192
2.0714,90.85
2.2082,90.508
2.3441,90.117
2.4751,89.727
2.5943,89.385
2.6999,88.945
2.7908,88.554
2.8661,88.164
2.9169,87.871
2.9501,87.529
2.9785,87.236
2.9971,86.943
3.0049,86.601
3,86.308
2.9844,85.966
2.958,85.673
2.9208,85.428
2.8749,85.135
2.8211,84.842
2.7644,84.549
2.7067,84.256
2.652,83.865
2.6002,83.426
2.5455,82.986
2.4927,82.547
2.4418,82.156
2.3939,81.863
2.349,81.618
2.306,81.423
2.2649,81.716
2.2248,83.182
2.1867,86.356
2.1496,91.241
2.1173,97.2
2.088,103.11
2.0557,108.19
2.0235,112
1.9922,114.64
1.9599,116.64
1.9286,118.3
1.8983,119.67
1.868,120.55
1.8387,120.94
1.8123,120.74
1.7859,120.16
1.7605,119.33
1.74,118.06
1.7224,116.64
1.7019,114.93
1.6804,112.98
1.6598,110.88
1.6383,108.48
1.6158,106.14
1.5934,103.79
1.5689,101.74
1.5425,99.984
1.5152,98.616
1.4897,97.346
1.4731,96.321
1.4653,95.344
1.4663,94.513
1.4839,93.732
1.5239,93.195
1.5904,92.657
1.6833,92.218
1.7996,91.876
1.9355,91.436
2.0831,90.997
2.2336,90.508
2.3812,89.971
2.5191,89.629
2.6285,89.238
2.7165,88.847
2.8035,88.554
2.8798,88.164
2.9423,87.822
2.9912,87.431
3.0235,87.138
3.0401,86.796
3.043,86.503
3.0332,86.161
3.0108,85.868
2.9765,85.575
2.9355,85.282
2.8886,84.989
2.8348,84.745
2.7771,84.403
2.7175,84.11
2.6549,83.719
2.5934,83.279
2.5327,82.84
2.4741,82.449
2.4194,82.107
2.3685,81.716
2.3206,81.472
2.2766,81.472
2.2385,82.351
2.2033,84.696
2.1672,88.75
2.131,94.318
2.0948,100.23
2.0587,105.75
2.0225,110.05
1.9863,113.17
1.9501,115.47
1.9159,117.37
1.8817,118.89
1.8485,120.11
1.8211,120.79
1.7957,120.94
1.7703,120.6
1.7458,119.91
1.7204,118.89
1.695,117.57
1.6706,116
1.6481,114.25
1.6256,112.24
1.6012,110.05
1.5767,107.75
1.5533,105.36
1.5298,103.16
1.5083,101.3
1.4888,99.691
1.4653,98.323
1.4428,97.102
1.4242,96.125
1.4164,95.246
1.4262,94.513
1.4565,93.878
1.5122,93.292
1.5963,92.804
1.7048,92.364
1.8358,91.973
1.9609,91.632
2.0841,91.241
2.2268,90.85
2.3734,90.41
2.5142,89.971
2.6432,89.531
2.7566,89.189
2.8524,88.799
2.9296,88.408
2.9883,88.066
3.0293,87.675
3.0538,87.382
3.0606,87.04
3.0528,86.747
3.0371,86.356
3.0088,86.063
2.9687,85.819
2.9189,85.477
2.8612,85.233
2.7977,84.94
2.7292,84.598
2.6569,84.158
2.5855,83.719
2.5171,83.23
2.4516,82.742
2.3939,82.351
2.3421,82.058
2.2884,81.716
2.2375,81.57
2.1906,82.009
2.1466,83.572
2.1056,86.796
2.0674,91.729
2.0313,97.542
1.9971,103.26
1.9619,108.09
1.9267,111.76
1.8964,114.3
1.868,116.25
1.8358,117.81
1.8025,119.13
1.7693,120.01
1.7361,120.3
1.7038,120.01
1.6725,119.23
1.6432,118.06
1.6158,116.49
1.5904,114.73
1.565,112.78
1.5396,110.68
1.52,108.29
1.5024,105.8
1.4809,103.16
1.4585,100.67
1.435,98.372
1.4096,96.369
1.3832,94.66
1.3568,93.243
1.3324,92.071
1.3167,90.997
1.3138,90.069
1.3314,89.238
1.3656,88.506
1.4203,87.822
1.5044,87.187
1.6149,86.698
1.7468,86.161
1.8915,85.673
2.042,85.233
2.1896,84.793
2.3275,84.354
2.4526,83.865
2.5601,83.426
2.6481,82.986
2.7185,82.547
2.7634,82.107
2.7889,81.667
2.8045,81.277
2.8055,80.935
2.7928,80.544
2.7654,80.251
2.7234,79.909
2.6696,79.616
2.6051,79.323
2.5318,78.932
2.4536,78.541
2.3724,78.248
2.2981,77.906
2.2287,77.613
2.1554,77.32
2.0831,76.929
2.0127,76.49
1.9443,76.001
1.8798,75.611
1.8192,75.318
1.7625,75.073
1.7087,75.122
1.6579,75.904
1.5415,78.053
1.392,82.009
1.3001,87.48
1.2395,93.683
1.1887,99.544
1.1427,104.28
1.1007,107.8
1.0596,110.39
1.0196,112.29
0.97947,113.9
0.94135,115.22
0.90518,116.1
0.86999,116.49
0.83578,116.35
0.81134,115.91
0.79081,115.13
0.76637,114.05
0.74096,112.63
0.71554,110.88
0.69013,108.82
0.66471,106.48
0.64125,104.04
0.61975,101.55
0.59726,99.3
0.57478,97.346
0.54936,95.783
0.52395,94.562
0.50635,93.536
0.49462,92.755
0.4868,92.071
0.49267,91.632
0.52004,91.241
0.57771,90.948
0.66667,90.606
0.78592,90.313
0.93255,89.922
1.0978,89.531
1.2737,89.287
1.4506,89.043
1.6012,88.799
1.7322,88.554
1.8661,88.261
1.9902,87.919
2.0987,87.675
2.1877,87.431
2.2571,87.138
2.3079,86.845
2.3392,86.698
2.3539,86.503
2.3539,86.308
2.3382,86.112
2.3089,85.917
2.2737,85.673
2.2336,85.428
2.1828,85.233
2.1232,84.989
2.0596,84.696
1.9941,84.354
1.9296,84.012
1.869,83.572
1.8133,83.133
1.7605,82.742
1.7126,82.449
1.6696,82.107
1.6344,81.912
1.6051,82.253
1.5767,83.621
1.5474,86.796
1.5171,91.729
1.4878,97.688
1.4575,103.6
1.4272,108.68
1.3978,112.49
1.3685,115.13
1.3392,117.03
1.3118,118.59
1.2854,119.86
1.2639,120.69
1.2463,120.94
1.2278,120.69
1.2092,120.06
1.1916,119.13
1.174,117.86
1.1554,116.35
1.1369,114.69
1.1193,112.68
1.1007,110.49
1.0821,108.09
1.0635,105.75
1.0479,103.5
1.0332,101.45
1.0137,99.74
0.99022,98.323
0.96481,97.102
0.94135,96.076
0.92473,95.051
0.9218,94.171
0.94037,93.439
0.98631,92.755
1.0616,92.169
1.1662,91.729
1.2942,91.29
1.4194,90.85
1.5445,90.41
1.6882,89.971
1.8358,89.531
1.9775,89.092
2.1046,88.75
2.216,88.31
2.3089,87.919
2.3812,87.529
2.433,87.187
2.4663,86.845
2.4829,86.503
2.4829,86.112
2.4692,85.819
2.4467,85.428
2.4154,85.135
2.3754,84.793
2.3255,84.5
2.2688,84.256
2.2063,83.914
2.1408,83.572
2.0743,83.23
2.0098,82.937
1.9462,82.547
1.8915,82.107
1.8426,81.716
1.7908,81.374
1.739,80.984
1.6891,80.593
1.6432,80.349
1.6002,80.69
1.5591,82.058
1.521,85.135
1.4858,89.922
1.4497,95.783
1.4135,101.79
1.3793,106.92
1.3509,110.83
1.3255,113.51
1.2972,115.37
1.2669,116.93
1.2366,118.11
1.2072,118.98
1.1789,119.37
1.1505,119.23
1.1232,118.69
1.0968,117.76
1.0704,116.54
1.045,115.08
1.0244,113.37
1.0078,111.41
0.98925,109.31
0.96872,107.07
0.94721,104.67
0.92571,102.47
0.90518,100.47
0.8827,98.86
0.85924,97.493
0.83578,96.321
0.81525,95.246
0.80254,94.318
0.80352,93.439
0.81916,92.755
0.8563,92.169
0.91984,91.632
1.0137,91.094
1.1339,90.752
1.2737,90.362
1.4252,89.922
1.5816,89.531
1.7351,89.092
1.8768,88.701
2.002,88.261
2.1095,87.871
2.1877,87.431
2.2454,87.04
2.2952,86.747
2.3304,86.405
2.3519,86.112
2.3597,85.819
2.3548,85.477
2.3382,85.184
2.3118,84.793
2.2747,84.549
2.2278,84.256
2.174,84.012
2.1153,83.719
2.0606,83.475
2.0078,83.182
1.9511,82.937
1.8935,82.547
1.8368,82.107
1.782,81.667
1.7302,81.228
1.6823,80.935
1.6364,80.544
1.5934,80.3
1.5523,80.3
1.5132,81.228
1.4809,83.67
1.4536,87.871
1.4252,93.439
1.3978,99.447
1.3705,104.92
1.3441,109.26
1.3187,112.29
1.2933,114.49
1.2678,116.25
1.2424,117.67
1.218,118.79
1.1945,119.42
1.1691,119.62
1.1486,119.37
1.13,118.69
1.1095,117.62
1.089,116.3
1.0694,114.78
1.0508,113.07
1.0313,111.07
1.0117,108.82
0.9912,106.48
0.97067,104.14
0.95015,101.94
0.92864,100.03
0.913,98.47
0.90029,97.2
0.88465,96.125
0.87097,95.197
0.86608,94.318
0.87586,93.634
0.90811,92.999
0.96774,92.413
1.0557,91.925
1.1711,91.436
1.3079,90.997
1.4594,90.606
1.6178,90.166
1.7556,89.824
1.8788,89.434
2.0049,89.043
2.1222,88.603
2.2258,88.261
2.3138,87.822
2.3842,87.431
2.437,87.04
2.4721,86.747
2.4917,86.405
2.4966,86.112
2.4878,85.819
2.4682,85.575
2.4399,85.184
2.4027,84.842
2.3568,84.549
2.303,84.305
2.3675,84.012
2.4917,83.719
2.522,83.475
2.5064,83.182
2.4692,82.791
2.4233,82.302
2.3754,81.863
2.3275,81.472
2.2864,81.13
2.2502,80.886
2.2131,80.69
2.1769,80.984
2.1427,82.449
2.1095,85.477
2.0762,90.313
2.043,96.174
2.0108,102.13
1.9795,107.16
1.9492,110.97
1.9208,113.66
1.8993,115.66
1.8807,117.32
1.8583,118.69
1.8358,119.67
1.8133,120.25
1.7889,120.25
1.7644,119.77
1.741,118.94
1.7185,117.86
1.696,116.49
1.6745,114.93
1.653,113.12
1.6315,110.97
1.6168,108.73
1.6041,106.38
1.5875,103.99
1.566,101.89
1.5445,100.03
1.522,98.47
1.5005,97.249
1.4809,96.174
1.4692,95.246
1.4712,94.367
1.4917,93.634
1.5367,92.999
1.5973,92.413
1.6764,91.925
1.7869,91.485
1.9208,91.094
2.0694,90.752
2.2258,90.313
2.3822,89.922
2.5308,89.531
2.6667,89.092
2.7869,88.75
2.8895,88.359
2.9746,87.919
3.0411,87.529
3.085,87.187
3.1105,86.845
3.1281,86.552
3.1349,86.259
3.131,85.917
3.1144,85.624
3.085,85.233
3.0459,84.94
2.9971,84.598
2.9404,84.305
2.8778,84.012
2.8123,83.67
2.7517,83.426
2.695,83.035
2.6373,82.595
2.5806,82.156
2.5259,81.716
2.4741,81.277
2.4262,80.984
2.3803,80.69
2.3382,80.495
2.2991,80.886
2.262,82.449
2.2258,85.624
2.1906,90.508
2.1603,96.223
2.132,101.89
2.1007,106.53
2.0684,109.95
2.0381,112.29
2.0088,114
1.9804,115.32
1.9521,116.44
1.9228,117.18
1.8944,117.42
1.8661,117.18
1.8387,116.49
1.8172,115.47
1.7986,114.2
1.7791,112.63
1.7586,110.88
1.7361,108.87
1.7146,106.68
1.6931,104.38
1.6716,101.94
1.6491,99.544
1.6266,97.346
1.6022,95.49
1.5758,93.927
1.5552,92.608
1.5396,91.436
1.5269,90.362
1.5249,89.434
1.5396,88.554
1.5767,87.822
1.6403,87.04
1.7312,86.503
1.8485,85.917
1.9844,85.379
2.131,84.94
2.2835,84.403
2.433,84.012
2.5562,83.572
2.6588,83.133
2.7615,82.595
2.8553,82.156
2.9345,81.667
2.9961,81.277
3.0401,80.935
3.0674,80.544
3.0792,80.251
3.0753,79.86
3.0567,79.469
3.0254,79.176
2.9873,78.883
2.9423,78.59
2.8866,78.297
2.8231,78.004
2.7537,77.662
2.6813,77.418
2.607,77.174
2.5337,76.929
2.4624,76.636
2.392,76.246
2.3245,75.855
2.261,75.464
2.2023,75.171
2.1535,74.78
2.1114,74.487
2.0674,74.438
2.0254,75.171
1.9844,77.369
1.9453,81.374
1.9081,86.845
1.87,92.999
1.8319,98.763
1.7937,103.45
1.7566,106.72
1.7214,109.07
1.6931,110.92
1.6676,112.49
1.6393,113.76
1.609,114.54
1.5787,114.88
1.5484,114.78
1.52,114.34
1.4936,113.66
1.4692,112.68
1.4467,111.32
1.4262,109.75
1.4066,107.85
1.3871,105.75
1.3744,103.45
1.3636,101.16
1.348,99.056
1.3294,97.346
1.3099,95.979
1.2884,94.904
1.2659,94.074
1.2463,93.292
1.2366,92.657
1.2434,92.071
1.2737,91.534
1.3333,91.045
1.4086,90.606
1.5054,90.215
1.6393,89.873
1.8006,89.531
1.9785,89.238
2.1632,88.945
2.346,88.554
2.52,88.164
2.6794,87.871
2.8201,87.626
2.9404,87.284
3.0401,87.04
3.1193,86.747
3.172,86.356
3.2053,86.063
3.2297,85.721
3.2424,85.428
3.2424,85.184
3.2297,84.989
3.2033,84.745
3.1652,84.549
3.1173,84.305
3.0606,84.061
2.998,83.816
2.9345,83.572
2.8768,83.182
2.824,82.742
2.7693,82.302
2.7165,81.863
2.6657,81.472
2.6178,81.13
2.5738,80.788
2.5337,80.788
2.4946,81.57
2.4555,83.816
2.4184,87.822
2.3832,93.292
2.348,99.251
2.3187,104.72
2.2933,109.12
2.2669,112.24
2.2375,114.49
2.2082,116.2
2.1818,117.57
2.1554,118.54
2.13,118.98
2.1065,118.94
2.0831,118.35
2.0587,117.47
2.0332,116.44
2.0117,115.08
1.9922,113.51
1.9697,111.76
1.9462,109.75
1.9228,107.55
1.9003,105.16
1.8788,102.87
1.8573,100.67
1.8348,98.763
1.8104,97.2
1.784,95.93
1.7576,94.904
1.7351,94.074
1.7224,93.243
1.7234,92.56
1.7439,91.925
1.7918,91.436
1.87,90.948
1.9795,90.41
2.1173,89.971
2.2766,89.629
2.4487,89.189
2.6237,88.75
2.7928,88.359
2.8876,87.919
2.915,87.48
2.9648,87.138
3.0342,86.747
3.1026,86.356
3.1603,85.966
3.2014,85.624
3.2248,85.233
3.2317,84.842
3.2219,84.549
3.1984,84.158
3.1623,83.865
3.1153,83.572
3.0596,83.23
3.001,82.986
2.9394,82.693
2.869,82.351
2.7928,82.058
2.7165,81.667
2.6413,81.277
2.5679,80.886
2.5005,80.446
2.4379,80.055
2.3793,79.762
2.3255,79.421
2.2737,79.176
2.2278,79.372
2.1848,80.544
2.1398,83.426
2.0938,88.066
2.0489,93.878
2.0059,99.789
1.9629,104.92
1.9198,108.92
1.8778,111.66
1.8377,113.61
1.7986,115.13
1.7615,116.3
1.7263,117.13
1.6979,117.37
1.6725,117.23
1.6452,116.64
1.6168,115.76
1.5885,114.54
1.5591,113.12
1.5298,111.41
1.5024,109.61
1.4761,107.55
1.4497,105.36
1.4242,103.11
1.3998,100.91
1.3803,98.909
1.3627,97.249
1.3392,95.881
1.3138,94.806
1.2884,93.878
1.2678,93.048
1.259,92.315
1.2678,91.68
1.3011,91.094
1.3656,90.655
1.4633,90.215
1.5924,89.873
1.7468,89.482
1.8944,89.043
2.0381,88.701
2.2014,88.261
2.3656,87.871
2.521,87.382
2.6618,86.943
2.784,86.503
2.8847,86.112
2.9638,85.819
3.0225,85.477
3.0616,85.184
3.0811,84.842
3.0811,84.598
3.0665,84.305
3.0381,84.061
2.9971,83.719
2.9453,83.475
2.8847,83.182
2.8172,82.937
2.7449,82.693
2.6696,82.449
2.5943,82.107
2.521,81.814
2.4497,81.423
2.3861,80.984
2.3294,80.593
2.2717,80.3
2.216,80.007
2.1642,79.665
2.1163,79.469
2.0714,79.86
2.0293,81.57
1.9892,84.94
1.9511,89.922
1.914,95.93
1.8778,101.74
1.8436,106.63
1.8133,110.19
1.784,112.63
1.7527,114.44
1.7195,115.81
1.6852,116.88
1.653,117.57
1.6227,117.76
1.5943,117.47
1.5679,116.88
1.5425,115.91
1.5161,114.73
1.4907,113.37
1.4712,111.8
1.4555,110
1.437,107.99
1.4164,105.8
1.3949,103.5
1.3724,101.35
1.349,99.495
1.3245,97.932
1.2991,96.662
1.2757,95.539
1.2551,94.611
1.2424,93.781
1.2454,93.048
1.2639,92.413
1.3021,91.876
1.3715,91.387
1.4741,90.948
1.607,90.508
1.7654,90.117
1.9413,89.678
2.1261,89.287
2.3109,88.847
2.4858,88.408
2.6461,87.919
2.7869,87.529
2.8915,87.187
2.9687,86.796
3.0391,86.405
3.0958,86.112
3.1349,85.819
3.1564,85.477
3.1603,85.184
3.1476,84.842
3.1202,84.5
3.0802,84.158
3.0283,83.816
2.9668,83.572
2.8974,83.279
2.8289,82.986
2.7605,82.742
2.6872,82.498
2.6119,82.107
2.5386,81.716
2.4663,81.228
2.3988,80.886
2.3353,80.495
2.2757,80.153
2.2199,79.86
2.1691,79.86
2.1222,80.593
2.0821,82.791
2.0469,86.747
2.0088,92.169
1.9697,98.177
1.9296,103.7
1.8915,107.99
1.8534,111.17
1.8152,113.42
1.7791,115.17
1.7449,116.54
1.7116,117.62
1.6804,118.2
1.6491,118.3
1.6237,118.06
1.6012,117.37
1.5758,116.44
1.5494,115.17
1.523,113.76
1.4966,112.05
1.4712,110.19
1.4477,108.19
1.4262,105.99
1.4047,103.74
1.3822,101.55
1.3578,99.593
1.3372,98.03
1.3187,96.809
1.2962,95.734
1.2727,94.855
1.2561,94.074
1.2532,93.341
1.2727,92.755
1.3226,92.218
1.4057,91.68
1.5239,91.241
1.6716,90.801
1.8416,90.41
2.0264,90.069
2.1916,89.727
2.3421,89.287
2.5024,88.847
2.6569,88.408
2.7957,87.968
2.914,87.529
3.0117,87.187
3.087,86.796
3.1408,86.405
3.174,86.063
3.1877,85.721
3.1857,85.379
3.1691,85.135
3.1388,84.745
3.0968,84.403
3.044,84.061
2.9824,83.719
2.912,83.426
2.8348,83.133
2.7537,82.791
2.6706,82.498
2.5904,82.107
2.5142,81.667
2.4418,81.228
2.3724,80.886
2.3138,80.544
2.262,80.153
2.2111,79.86
2.1613,79.909
2.1124,80.984
2.0665,83.572
2.0225,87.822
1.9814,93.292
1.9423,99.105
1.9042,104.28
1.8661,108.29
1.8289,111.12
1.7977,113.12
1.7693,114.64
1.7361,115.76
1.7028,116.54
1.6686,116.79
1.6354,116.64
1.6022,116
1.5709,114.98
1.5396,113.76
1.5103,112.24
1.4819,110.53
1.4536,108.73
1.4262,106.72
1.4057,104.58
1.39,102.23
1.3724,99.935
1.3519,97.737
1.3294,95.783
1.2473,94.22
1.1339,92.95
1.0645,91.778
1.0205,90.801
0.99804,89.873
0.99804,89.043
1.0254,88.261
1.0733,87.529
1.1437,86.943
1.2502,86.405
1.3891,85.917
1.5513,85.428
1.7273,84.989
1.9071,84.549
2.0831,84.11
2.2473,83.67
2.3939,83.182
2.5171,82.693
2.6168,82.156
2.6931,81.667
2.741,81.228
2.7683,80.886
2.7859,80.495
2.7889,80.104
2.7752,79.762
2.7449,79.372
2.6989,79.03
2.6393,78.737
2.5689,78.444
2.4897,78.102
2.4037,77.76
2.3148,77.369
2.2346,77.027
2.1593,76.685
2.0802,76.294
2.001,75.904
1.9228,75.562
1.8465,75.171
1.7752,74.878
1.7097,74.536
1.6481,74.243
1.5904,74.097
1.5367,74.487
1.4868,76.099
1.4457,79.421
1.4096,84.549
1.3695,90.606
1.3275,96.565
1.2854,101.5
1.2434,105.26
1.2014,107.85
1.1613,109.8
1.1212,111.36
1.0841,112.49
1.0489,113.17
1.0147,113.42
0.98143,113.32
0.95699,112.88
0.93646,112.1
0.91105,111.12
0.88465,109.85
0.85728,108.29
0.83089,106.48
0.80743,104.38
0.78592,102.13
0.7654,99.74
0.74389,97.444
0.72141,95.49
0.69795,93.927
0.68133,92.755
0.66764,91.729
0.65005,90.85
0.63539,90.166
0.6305,89.629
0.64418,89.189
0.68622,88.799
0.76051,88.554
0.87097,88.359
1.0176,88.261
1.1945,88.066
1.393,87.871
1.6022,87.675
1.7849,87.431
1.9482,87.236
2.1193,87.04
2.2825,86.796
2.4282,86.503
2.5513,86.259
2.651,85.966
2.7292,85.721
2.7849,85.477
2.8182,85.282
2.8328,85.135
2.8299,84.94
2.8113,84.696
2.7791,84.403
2.7331,84.256
2.6745,84.012
2.6061,83.719
2.5308,83.475
2.4516,83.182
2.3734,82.791
2.2981,82.449
2.2258,82.058
2.1584,81.618
2.0958,81.277
2.0391,80.984
1.9922,80.739
1.9511,80.739
1.911,81.374
1.8729,83.23
1.8368,86.845
1.8035,92.071
1.7732,97.981
1.7439,103.5
1.7136,107.99
1.6833,111.17
1.654,113.42
1.6266,114.93
1.6031,116.1
1.5816,117.13
1.5582,117.81
1.5337,118.11
1.5093,118.06
1.4858,117.47
1.4633,116.2
1.4418,114.05
1.4223,111.66
1.4037,109.66
1.3851,108.04
1.3685,106.68
1.3519,105.36
1.3382,103.79
1.3265,101.79
1.3109,99.495
1.2903,97.493
1.2669,96.125
1.2414,95.051
1.216,94.22
1.1955,93.781
1.1896,93.488
1.2063,93.048
1.2522,92.413
1.3324,91.729
1.4262,90.997
1.5376,90.313
1.6872,89.727
1.8622,89.434
2.0508,89.189
2.2424,88.847
2.4262,88.554
2.5934,88.115
2.739,87.626
2.8602,87.04
2.956,86.503
3.0264,85.868
3.0723,85.282
3.0938,84.793
3.0958,84.354
3.086,83.914
3.0626,83.475
3.0244,83.035
2.9726,82.693
2.9081,82.498
2.8338,82.449
2.7507,82.498
2.6628,82.498
2.5728,82.253
2.4829,81.814
2.4027,81.179
2.3294,80.446
2.2551,79.811
2.1838,79.372
2.1163,79.127
2.0528,79.127
1.9932,79.323
1.9355,79.909
1.8817,81.472
1.8319,84.549
1.784,89.189
1.738,94.758
1.694,100.47
1.6579,105.41
1.6256,109.31
1.5894,112
1.5523,113.86
1.5161,115.17
1.4809,116.05
1.4457,116.44
1.4096,116.3
1.3744,115.81
1.3412,114.98
1.3099,114
1.2796,112.68
1.2561,111.22
1.2366,109.56
1.2131,107.75
1.1877,105.7
1.1632,103.55
1.1378,101.45
1.1095,99.495
1.0811,97.737
1.0518,96.321
1.0205,95.099
0.98925,94.171
0.95992,93.341
0.93744,92.608
0.92766,91.973
0.93451,91.436
0.96383,90.85
1.0225,90.362
1.1153,89.922
1.2424,89.629
1.3998,89.287
1.5797,88.945
1.7722,88.554
1.9668,88.261
2.1535,87.919
2.3245,87.529
2.4575,87.187
2.563,86.747
2.6618,86.308
2.7439,85.868
2.8045,85.477
2.8446,85.038
2.8651,84.696
2.8671,84.305
2.8524,83.914
2.8221,83.572
2.7781,83.182
2.7234,82.84
2.6579,82.547
2.5914,82.253
2.5249,81.912
2.4516,81.618
2.3754,81.277
2.2981,80.935
2.2219,80.495
2.1486,80.007
2.0802,79.616
2.0137,79.225
1.9501,78.883
1.8905,78.541
1.8348,78.688
1.7869,79.665
1.7449,82.351
1.7019,86.796
1.6588,92.511
1.6168,98.47
1.5767,103.74
1.5367,107.8
1.4976,110.68
1.4614,112.68
1.4252,114.25
1.39,115.42
1.3568,116.3
1.391,116.64
1.4594,116.49
1.4809,115.91
1.479,115.13
1.4663,114
1.4497,112.68
1.4321,111.12
1.4145,109.51
1.3988,107.6
1.3832,105.55
1.3666,103.45
1.35,101.25
1.3333,99.3
1.3187,97.591
1.305,96.223
1.2864,95.099
1.2659,94.171
1.2473,93.341
1.2356,92.657
1.2375,91.973
1.26,91.387
1.3069,90.85
1.3812,90.41
1.4829,89.971
1.607,89.629
1.7283,89.238
1.8495,88.847
1.9892,88.506
2.1349,88.115
2.2757,87.724
2.4037,87.284
2.5161,86.943
2.6119,86.503
2.6882,86.063
2.7439,85.624
2.782,85.233
2.8035,84.94
2.8094,84.696
2.8006,84.5
2.781,84.158
2.7507,83.865
2.7116,83.475
2.6637,83.133
2.61,82.693
2.5523,82.302
2.4907,81.912
2.4282,81.618
2.3656,81.374
2.305,81.032
2.2483,80.739
2.1984,80.446
2.1535,80.104
2.1065,79.811
2.0616,79.469
2.0186,79.372
1.9785,79.86
1.9404,81.57
1.9042,84.94
1.869,89.922
1.8358,95.881
1.8035,101.6
1.7713,106.43
1.738,110.05
1.7097,112.54
1.6852,114.44
1.6579,115.86
1.6295,116.98
1.6022,117.57
1.5767,117.67
1.5523,117.37
1.5288,116.74
1.5064,115.76
1.4829,114.54
1.4604,113.17
1.4389,111.61
1.4223,109.85
1.4086,107.99
1.392,105.94
1.3734,103.74
1.3548,101.6
1.3343,99.691
1.3138,98.03
1.2923,96.76
1.2717,95.686
1.2522,94.758
1.2385,94.074
1.2366,93.341
1.2512,92.804
1.2815,92.218
1.3304,91.729
1.4096,91.387
1.5171,90.997
1.6481,90.655
1.7967,90.362
1.955,90.069
2.1134,89.629
2.2649,89.043
2.4037,88.506
2.5269,87.822
2.6315,87.04
2.7058,86.405
2.7586,85.917
2.8045,85.624
2.8377,85.477
2.8583,85.379
2.8651,85.282
2.8583,85.233
2.8387,85.038
2.8065,84.793
2.7644,84.5
2.7136,84.11
2.6549,83.67
2.5914,83.279
2.5318,82.84
2.4751,82.498
2.4145,82.009
2.3519,81.57
2.2903,81.032
2.2307,80.69
2.175,80.446
2.1232,80.104
2.0753,79.909
2.0303,80.104
1.9892,81.179
1.9521,83.719
1.9218,87.919
1.8944,93.292
1.8651,99.007
1.8348,104.14
1.8045,108.09
1.7742,110.92
1.7429,112.93
1.7107,114.49
1.6784,115.76
1.6471,116.54
1.6158,116.79
1.5865,116.54
1.5572,115.86
1.5327,114.88
1.5112,113.56
1.4878,112
1.4643,110.24
1.4409,108.39
1.4174,106.28
1.3949,104.14
1.3724,101.79
1.3509,99.544
1.3294,97.346
1.3069,95.49
1.2835,93.878
1.2649,92.511
1.2493,91.29
1.2317,90.215
1.218,89.385
1.2141,88.701
1.2287,88.066
1.2678,87.48
1.3343,86.943
1.4282,86.356
1.5484,85.868
1.6882,85.428
1.8387,84.989
1.9932,84.549
2.1241,84.11
2.2366,83.572
2.35,83.035
2.4536,82.547
2.5406,82.009
2.609,81.423
2.6588,80.984
2.6901,80.69
2.7048,80.446
2.7038,80.251
2.6882,80.007
2.6579,79.811
2.6197,79.616
2.5738,79.372
2.5171,79.127
2.4516,78.786
2.3793,78.346
2.3021,78.004
2.2219,77.564
2.1417,77.174
2.0635,76.783
1.9892,76.441
1.9189,76.099
1.8543,75.806
1.7947,75.611
1.7449,75.415
1.7019,75.366
1.6569,75.66
1.6129,76.734
1.5699,79.225
1.5298,83.426
1.4917,88.945
1.4555,94.806
1.4203,100.13
1.3871,104.28
1.3529,107.36
1.3196,109.51
1.2933,111.17
1.2708,112.44
1.2454,113.22
1.219,113.61
1.1916,113.51
1.1662,113.12
1.1437,112.49
1.1232,111.76
1.1026,110.88
1.0831,109.66
1.0635,108.19
1.0459,106.28
1.0283,104.18
1.0166,101.74
1.0078,99.349
0.99609,97.249
0.9824,95.49
0.96774,94.171
0.95015,93.195
0.93157,92.364
0.91496,91.485
0.90518,90.508
0.90811,89.727
0.93255,89.482
0.98534,89.629
1.0567,89.531
1.1505,89.287
1.2805,89.043
