0.54643,54.368
0.53959,53.781
0.53275,53.39
0.5259,52.999
0.52004,52.608
0.51417,52.216
0.50831,52.021
0.50342,51.825
0.49853,51.825
0.49462,52.216
0.49169,52.999
0.4868,54.759
0.48289,57.497
0.47898,61.408
0.47507,65.906
0.46921,70.991
0.46432,76.271
0.45748,81.16
0.45064,85.658
0.44379,89.765
0.43695,93.286
0.43109,96.415
0.4262,98.566
0.42033,100.33
0.41349,101.11
0.40762,101.5
0.40078,101.3
0.39394,100.91
0.3871,99.935
0.38025,98.566
0.37341,97.001
0.36559,95.046
0.35875,92.894
0.35386,90.352
0.34897,87.81
0.34311,85.072
0.33627,82.138
0.32942,79.205
0.32258,76.467
0.31574,73.924
0.30987,71.578
0.30499,69.622
0.30303,67.862
0.30596,66.493
0.31378,65.319
0.32845,64.342
0.34702,63.755
0.3695,63.168
0.40176,62.777
0.44086,62.582
0.48387,62.386
0.53079,62.386
0.57771,62.19
0.6217,62.19
0.66276,62.19
0.6999,62.19
0.73412,62.19
0.76344,62.19
0.78495,62.19
0.80059,62.19
0.81525,61.995
0.82893,61.799
0.83871,61.604
0.84457,61.408
0.84653,61.213
0.84555,61.017
0.84164,60.821
0.83382,60.43
0.82307,60.039
0.81036,59.844
0.79374,59.452
0.77713,59.061
0.76051,58.67
0.74194,58.279
0.72336,57.888
0.70381,57.497
0.68524,57.106
0.66862,56.715
0.652,56.128
0.63734,55.737
0.62463,55.346
0.6129,54.954
0.60215,54.563
0.58065,54.172
0.5523,53.781
0.5347,53.39
0.52297,52.999
0.5132,52.608
0.50635,52.216
0.49951,51.825
0.49462,51.434
0.48876,51.239
0.48289,51.239
0.47801,51.239
0.47214,51.825
0.46628,52.999
0.46139,55.346
0.45552,58.67
0.44966,62.973
0.44379,68.057
0.43793,73.533
0.43109,78.814
0.42424,83.898
0.4174,88.396
0.41056,92.308
0.40371,95.828
0.39687,98.566
0.39101,100.52
0.38514,101.89
0.38025,102.48
0.37439,102.48
0.36755,102.09
0.35973,101.11
0.35288,99.739
0.34604,98.175
0.3392,96.415
0.33236,94.263
0.32454,91.917
0.31769,89.179
0.31085,86.245
0.30401,83.312
0.29912,80.183
0.29423,77.249
0.28837,74.511
0.28348,72.164
0.27761,69.818
0.2737,68.057
0.27175,66.493
0.27468,65.319
0.28152,64.342
0.29619,63.559
0.31574,62.973
0.34213,62.582
0.36852,62.19
0.39589,61.995
0.42815,61.995
0.46237,61.995
0.49658,61.995
0.52981,62.19
0.56109,62.19
0.58847,62.386
0.61193,62.386
0.63148,62.386
0.64712,62.386
0.65982,62.19
0.6696,62.19
0.67449,61.995
0.67644,61.799
0.67644,61.408
0.67449,61.213
0.67058,61.017
0.66276,60.821
0.652,60.43
0.63832,60.039
0.62366,59.844
0.60802,59.257
0.5914,58.866
0.5738,58.475
0.55914,58.083
0.54448,57.497
0.52981,57.106
0.51515,56.715
0.50147,56.323
0.48778,55.737
0.47605,55.346
0.4653,54.954
0.45552,54.563
0.44673,54.172
0.43891,53.781
0.43206,53.194
0.42522,52.803
0.41935,52.412
0.41447,52.216
0.41056,51.825
0.40567,51.63
0.40078,51.434
0.39589,51.434
0.39101,51.63
0.38612,52.216
0.38123,53.585
0.37634,55.737
0.37146,59.061
0.36559,63.168
0.3607,68.057
0.35582,73.338
0.35093,78.227
0.34506,83.116
0.34018,87.419
0.33431,91.33
0.32845,94.655
0.3216,97.393
0.31476,99.348
0.30792,100.72
0.30205,101.3
0.29521,101.3
0.28837,100.72
0.28348,99.739
0.27859,98.37
0.27273,96.806
0.26686,94.655
0.261,92.308
0.25415,89.765
0.24829,86.832
0.24242,83.898
0.23656,80.769
0.23167,77.836
0.22483,75.098
0.21896,72.36
0.21505,70.209
0.21212,68.253
0.21017,66.493
0.20919,65.124
0.21212,64.146
0.21994,63.168
0.23265,62.582
0.2522,61.995
0.27664,61.799
0.30596,61.604
0.3392,61.408
0.37341,61.408
0.40762,61.408
0.43597,61.408
0.46139,61.604
0.48583,61.604
0.50929,61.799
0.52884,61.799
0.54545,61.799
0.55914,61.799
0.56891,61.799
0.57478,61.604
0.57771,61.604
0.57771,61.408
0.57478,61.213
0.56989,60.821
0.56207,60.626
0.5523,60.43
0.54057,60.039
0.52786,59.844
0.5132,59.452
0.49756,59.061
0.48192,58.475
0.4653,58.279
0.45064,57.888
0.43695,57.301
0.42326,56.91
0.41251,56.519
0.40371,56.128
0.39394,55.541
0.38514,55.346
0.37634,54.759
0.3695,54.368
0.36364,53.977
0.35875,53.39
0.35386,52.999
0.34995,52.608
0.34604,52.216
0.34213,51.825
0.3392,51.63
0.33627,51.434
0.33431,51.239
0.33138,51.434
0.32845,52.021
0.32551,53.194
0.32258,55.346
0.31867,58.475
0.31476,62.777
0.31085,67.666
0.30694,72.947
0.30303,78.031
0.29814,83.116
0.29521,87.614
0.29228,91.721
0.28837,95.241
0.28446,97.979
0.27957,100.13
0.27566,101.5
0.27077,102.28
0.26588,102.48
0.261,102.09
0.25611,101.11
0.25122,99.739
0.24633,97.979
0.24242,96.024
0.23851,93.481
0.23656,90.939
0.23167,88.201
0.22678,85.072
0.22092,81.943
0.21603,78.814
0.21114,75.88
0.20626,73.142
0.20235,70.795
0.19844,68.644
0.19746,66.884
0.19844,65.515
0.20235,64.342
0.21017,63.364
0.22287,62.777
0.24047,62.19
0.26491,61.799
0.29326,61.604
0.32649,61.604
0.3607,61.604
0.39492,61.604
0.42717,61.799
0.45846,61.799
0.48485,61.995
0.50831,61.995
0.5259,62.19
0.53861,62.19
0.55034,62.19
0.56012,62.19
0.56696,62.19
0.56989,61.995
0.57087,61.799
0.56891,61.604
0.56403,61.408
0.55621,61.408
0.54643,61.213
0.5347,60.821
0.52199,60.626
0.51026,60.235
0.4956,60.039
0.47996,59.648
0.46432,59.257
0.44868,58.866
0.43402,58.279
0.42033,57.888
0.4086,57.497
0.39785,57.106
0.38807,56.715
0.37928,56.323
0.37243,55.932
0.36657,55.541
0.36266,55.346
0.35875,54.954
0.35582,54.563
0.35288,54.368
0.34897,53.977
0.36168,53.585
0.38221,53.39
0.39198,53.194
0.39589,52.999
0.39785,53.194
0.39785,53.781
0.39785,55.15
0.39687,57.497
0.39492,60.821
0.39198,65.124
0.38905,70.209
0.3871,75.685
0.38416,80.965
0.38221,86.05
0.38123,90.939
0.37928,95.241
0.37634,98.761
0.37439,101.5
0.37243,103.65
0.37146,105.02
0.37048,105.61
0.3695,105.61
0.36852,105.02
0.36755,104.04
0.36559,102.67
0.36461,101.11
0.36266,98.957
0.36168,96.61
0.3607,93.872
0.35973,90.939
0.35973,87.81
0.35973,84.485
0.35973,81.356
0.35875,78.227
0.35777,75.489
0.35679,73.142
0.35679,70.991
0.35777,69.231
0.3607,67.666
0.36755,66.493
0.37928,65.711
0.39785,65.124
0.42131,64.537
0.45064,64.342
0.47898,64.146
0.50831,64.146
0.54252,64.146
0.57967,64.342
0.61584,64.537
0.65005,64.537
0.68035,64.733
0.70674,64.733
0.73021,64.928
0.74976,64.928
0.76442,65.124
0.77615,64.928
0.78201,64.928
0.78495,64.733
0.78592,64.537
0.78397,64.537
0.78006,64.146
0.77322,63.95
0.76344,63.755
0.75171,63.364
0.73803,62.973
0.72336,62.582
0.70772,62.19
0.6911,61.799
0.67546,61.408
0.6608,60.821
0.64907,60.43
0.63539,59.844
0.62268,59.452
0.61193,58.866
0.60117,58.475
0.5914,58.083
0.5826,57.497
0.57576,57.106
0.56989,56.715
0.565,56.323
0.56012,55.932
0.55718,55.541
0.55327,55.15
0.55132,54.954
0.54839,54.563
0.54545,54.563
0.5435,54.563
0.54057,54.954
0.53763,55.737
0.5347,57.301
0.53177,60.039
0.52884,63.95
0.52493,68.644
0.52199,73.924
0.51906,79.4
0.51515,84.681
0.51222,89.765
0.50733,94.263
0.50342,98.37
0.49853,101.69
0.49462,104.24
0.48974,106.19
0.48485,107.37
0.47898,107.76
0.4741,107.76
0.46921,107.17
0.46432,106.19
0.46041,104.82
0.45552,103.06
0.45064,101.11
0.44575,98.761
0.44086,96.024
0.43597,93.09
0.43109,89.961
0.4262,86.832
0.42131,83.507
0.4174,80.574
0.41251,77.64
0.4086,75.293
0.40665,73.142
0.40567,71.382
0.40665,69.818
0.41056,68.644
0.42033,67.666
0.435,66.884
0.4565,66.493
0.48289,66.102
0.5132,66.102
0.54741,65.906
0.58162,66.102
0.61486,66.297
0.64125,66.297
0.66276,66.493
0.68426,66.688
0.70381,66.688
0.71945,66.884
0.73216,66.884
0.74096,67.08
0.74682,66.884
0.74976,66.884
0.75073,66.884
0.74878,66.688
0.74487,66.493
0.73803,66.297
0.73021,65.906
0.72043,65.711
0.7087,65.319
0.69599,64.733
0.68231,64.537
0.66667,63.95
0.65103,63.559
0.63636,63.168
0.62072,62.777
0.60606,62.386
0.59335,61.799
0.58162,61.408
0.57283,61.017
0.56403,60.43
0.55621,60.039
0.54936,59.648
0.5435,59.257
0.53861,58.67
0.5347,58.279
0.53079,57.888
0.52786,57.497
0.52395,57.106
0.52102,56.91
0.51711,56.715
0.51417,56.715
0.51124,56.91
0.50929,57.301
0.50733,58.475
0.5044,60.626
0.50049,64.146
0.49658,68.449
0.49267,73.533
0.48778,79.205
0.48387,84.681
0.47898,89.961
0.4741,94.85
0.46921,99.153
0.4653,102.87
0.46139,105.8
0.45748,107.95
0.45259,109.52
0.44673,110.3
0.44184,110.5
0.43695,110.1
0.43206,109.32
0.42717,107.95
0.42229,106.39
0.41838,104.43
0.41349,102.28
0.40958,99.935
0.40665,97.197
0.40371,94.068
0.40078,90.939
0.39687,87.614
0.39296,84.289
0.38807,81.356
0.38221,78.618
0.37732,76.467
0.37439,74.511
0.37439,72.751
0.37732,71.382
0.38514,70.209
0.39687,69.426
0.41251,68.644
0.43402,68.253
0.46139,67.862
0.49169,67.666
0.52395,67.666
0.55621,67.666
0.58553,67.666
0.6129,67.666
0.63734,67.862
0.65591,68.057
0.67155,68.057
0.68133,68.253
0.68817,68.253
0.69306,68.253
0.69599,68.057
0.69795,67.862
0.69697,67.666
0.69404,67.471
0.68915,67.08
0.68328,66.884
0.67449,66.493
0.66471,66.297
0.652,65.906
0.63832,65.319
0.62561,64.928
0.6129,64.537
0.6002,63.95
0.58651,63.364
0.57283,62.973
0.56109,62.386
0.55034,61.799
0.53959,61.408
0.52981,60.821
0.52199,60.43
0.51417,59.844
0.50831,59.452
0.50342,59.061
0.50049,58.475
0.49658,58.083
0.49365,57.692
0.49169,57.301
0.48876,56.91
0.4868,56.519
0.48485,56.323
0.48192,56.323
0.47801,56.519
0.47507,56.91
0.47214,58.279
0.46823,60.821
0.44282,64.342
0.40665,69.035
0.38612,74.316
0.37341,79.987
0.36364,85.658
0.35582,91.134
0.34897,96.024
0.34311,100.33
0.33627,104.04
0.3304,106.98
0.32454,109.13
0.31769,110.5
0.31281,111.08
0.3089,111.28
0.30303,110.69
0.29717,109.71
0.2913,108.34
0.28446,106.58
0.27859,104.43
0.27273,102.09
0.26686,99.348
0.261,96.415
0.25513,93.286
0.24927,89.765
0.24438,86.441
0.24047,83.116
0.23754,80.183
0.23265,77.445
0.22776,75.098
0.22483,72.947
0.22385,71.382
0.22678,70.013
0.23558,69.035
0.25122,68.253
0.27273,67.666
0.3001,67.275
0.33333,67.08
0.36364,66.884
0.39296,66.884
0.42424,67.08
0.45552,67.08
0.48485,67.275
0.51026,67.471
0.53177,67.471
0.54936,67.666
0.56207,67.666
0.57185,67.666
0.57674,67.666
0.57967,67.666
0.57869,67.471
0.57576,67.471
0.57087,67.08
0.56403,66.884
0.55425,66.493
0.54154,66.297
0.52786,65.906
0.51222,65.515
0.49462,65.124
0.47605,64.733
0.45748,64.342
0.43988,63.755
0.42326,63.364
0.4086,62.777
0.39589,62.19
0.38416,61.604
0.37243,61.213
0.36168,60.626
0.35288,60.235
0.34506,59.844
0.3392,59.257
0.33333,58.866
0.32845,58.279
0.32454,57.888
0.32063,57.301
0.31769,56.91
0.31574,56.519
0.31476,56.323
0.31281,56.323
0.31085,56.323
0.30694,56.519
0.30401,57.106
0.3001,58.475
0.29619,61.017
0.29228,64.537
0.28837,69.035
0.28348,74.316
0.27859,79.987
0.27566,85.463
0.27175,90.743
0.26686,95.632
0.26197,100.13
0.25709,103.85
0.2522,106.78
0.24731,108.74
0.24145,110.1
0.23656,110.69
0.23167,110.5
0.22776,109.91
0.22287,108.74
0.21799,107.17
0.21408,105.22
0.21114,102.87
0.20626,100.33
0.20137,97.393
0.19648,94.263
0.19159,90.743
0.18671,87.419
0.18182,84.094
0.17693,80.769
0.17204,77.836
0.16813,75.293
0.1652,73.142
0.16422,71.382
0.1652,69.818
0.16911,68.644
0.17791,67.666
0.19257,67.08
0.2131,66.493
0.23851,66.297
0.26979,66.102
0.30401,66.102
0.3392,66.297
0.37341,66.297
0.40665,66.493
0.43206,66.688
0.45357,66.884
0.4741,67.08
0.49169,67.275
0.5044,67.275
0.51417,67.275
0.52004,67.275
0.52297,67.275
0.52199,67.08
0.51808,66.884
0.51124,66.688
0.50147,66.297
0.48974,66.102
0.47801,65.711
0.4653,65.515
0.45064,65.124
0.43402,64.537
0.41642,64.146
0.39883,63.559
0.38221,63.168
0.36559,62.582
0.35191,61.995
0.33822,61.604
0.32454,61.017
0.31378,60.626
0.30499,60.235
0.29912,59.844
0.29326,59.257
0.28837,58.67
0.28446,58.279
0.28152,57.692
0.27957,57.301
0.27761,56.91
0.27566,56.715
0.2737,56.323
0.27175,56.323
0.26979,56.128
0.26784,56.323
0.26686,56.91
0.26588,58.083
0.26393,60.039
0.26197,63.168
0.26002,67.471
0.25709,72.555
0.25513,78.031
0.2522,83.507
0.24927,88.983
0.24438,94.068
0.24047,98.566
0.23558,102.28
0.23167,105.41
0.22874,107.76
0.22483,109.32
0.2219,110.1
0.21799,110.3
0.21408,109.71
0.20919,108.74
0.20528,107.37
0.20039,105.61
0.1955,103.26
0.19062,100.52
0.18671,97.588
0.18182,94.459
0.17986,90.939
0.17791,87.419
0.17498,84.094
0.17204,80.965
0.16813,78.031
0.1652,75.489
0.16129,73.142
0.15934,71.382
0.15934,69.818
0.16325,68.644
0.17204,67.666
0.18671,67.08
0.2043,66.493
0.22678,66.297
0.25513,66.102
0.28837,66.102
0.32454,66.297
0.35973,66.297
0.39394,66.493
0.42522,66.688
0.45161,67.08
0.47507,67.275
0.49267,67.471
0.50538,67.471
0.51417,67.471
0.51906,67.471
0.52102,67.471
0.52102,67.471
0.51711,67.275
0.51222,66.884
0.50342,66.688
0.49267,66.493
0.47996,66.102
0.4653,65.711
0.44966,65.319
0.43206,64.928
0.41447,64.342
0.3998,63.95
0.38612,63.364
0.37243,62.777
0.35875,62.386
0.34506,61.799
0.33236,61.408
0.32063,60.821
0.31183,60.43
0.30401,59.844
0.29814,59.452
0.29423,58.866
0.2913,58.279
0.28935,57.888
0.28837,57.497
0.28837,57.106
0.28739,56.715
0.28641,56.519
0.28446,56.323
0.28348,56.323
0.2825,56.323
0.28152,56.91
0.27957,58.279
0.27761,60.626
0.27468,63.95
0.27175,68.449
0.26882,73.729
0.26784,79.4
0.26588,85.072
0.26393,90.548
0.261,95.828
0.25904,100.33
0.25513,104.24
0.27859,107.37
0.31378,109.71
0.32845,111.08
0.33333,111.86
0.33236,111.86
0.3304,111.28
0.32845,110.3
0.32649,108.74
0.32356,106.78
0.31867,104.43
0.31378,101.89
0.3089,98.761
0.30303,95.632
0.29619,91.917
0.29032,88.396
0.28446,84.876
0.27957,81.552
0.2737,78.422
0.27077,75.88
0.26979,73.533
0.26784,71.578
0.26784,70.013
0.27273,68.84
0.2825,67.862
0.29912,67.08
0.32356,66.688
0.35386,66.297
0.39003,66.297
0.43011,66.297
0.47116,66.297
0.51124,66.493
0.54545,66.884
0.57283,67.08
0.6002,67.275
0.62463,67.471
0.64418,67.666
0.65885,67.666
0.66862,67.862
0.67449,67.862
0.67546,67.862
0.67351,67.862
0.66764,67.666
0.65885,67.471
0.64907,67.275
0.63832,66.884
0.62366,66.493
0.60802,66.102
0.58944,65.906
0.56989,65.319
0.54936,64.928
0.52884,64.342
0.50831,63.95
0.48876,63.364
0.47019,62.777
0.45455,62.19
0.44086,61.604
0.43109,61.213
0.42424,60.626
0.4174,60.039
0.41153,59.648
0.40665,59.061
0.40274,58.67
0.39883,58.083
0.39687,57.692
0.39492,57.301
0.39296,56.91
0.39101,56.715
0.39003,56.715
0.38905,56.715
0.38807,56.91
0.3871,57.692
0.38612,59.257
0.38416,61.799
0.38123,65.711
0.3783,70.6
0.37537,76.271
0.37243,82.138
0.3695,88.005
0.36657,93.677
0.36266,98.761
0.35973,103.46
0.35777,107.17
0.35386,110.3
0.34995,112.45
0.34409,113.62
0.33822,114.21
0.33333,114.21
0.32845,113.43
0.32356,112.26
0.31867,110.5
0.31378,108.34
0.30987,106
0.30499,103.26
0.30108,100.13
0.29717,96.806
0.2913,93.286
0.28543,89.57
0.28055,85.854
0.27566,82.334
0.27077,79.205
0.26686,76.662
0.26491,74.12
0.26393,72.164
0.26588,70.6
0.2737,69.231
0.28543,68.449
0.30108,67.666
0.32551,67.275
0.35679,67.08
0.39492,66.884
0.435,67.08
0.47703,67.08
0.51613,67.275
0.5523,67.471
0.58456,67.862
0.61193,68.057
0.63343,68.449
0.64907,68.644
0.65885,68.84
0.66373,68.84
0.66667,68.84
0.66667,68.84
0.66276,68.84
0.65689,68.644
0.64809,68.449
0.63636,68.057
0.62072,67.862
0.60411,67.471
0.58553,67.275
0.56598,66.884
0.54839,66.297
0.53079,65.906
0.51222,65.319
0.49267,64.733
0.4741,64.342
0.4565,63.755
0.44086,63.364
0.42717,62.973
0.41642,62.386
0.40665,61.995
0.39883,61.408
0.39296,61.017
0.38807,60.43
0.38514,60.039
0.38319,59.648
0.38221,59.257
0.38025,58.866
0.37928,58.475
0.3783,58.279
0.37732,58.279
0.37732,58.279
0.37634,58.866
0.37537,59.844
0.37341,61.995
0.37048,65.319
0.36852,69.818
0.36755,75.098
0.36559,81.16
0.36266,87.223
0.35973,93.09
0.35582,98.566
0.35191,103.65
0.34702,107.95
0.34115,111.67
0.33627,114.41
0.33138,116.17
0.32551,117.14
0.31965,117.34
0.31574,116.95
0.31183,115.97
0.30694,114.6
0.30108,112.84
0.29521,110.69
0.29032,108.15
0.28446,105.22
0.27957,102.09
0.2737,98.566
0.26882,95.046
0.26393,91.134
0.25904,87.614
0.25611,84.094
0.25415,80.965
0.2522,78.227
0.25024,75.88
0.24927,73.924
0.25318,72.36
0.26197,70.991
0.27761,70.209
0.3001,69.426
0.3304,69.035
0.36559,69.035
0.40665,69.035
0.44868,69.035
0.48485,69.231
0.51613,69.622
0.54741,70.013
0.57576,70.209
0.6002,70.6
0.61877,70.795
0.63148,71.186
0.64027,71.382
0.64418,71.578
0.64418,71.578
0.64125,71.382
0.63636,71.186
0.62952,70.991
0.62072,70.795
0.61095,70.404
0.59824,70.209
0.58358,69.818
0.56794,69.231
0.55034,68.84
0.53079,68.449
0.51222,67.862
0.49267,67.275
0.4741,66.884
0.45748,66.297
0.44184,65.711
0.43011,65.319
0.42131,64.733
0.41349,64.342
0.40567,63.755
0.3998,63.364
0.39589,62.973
0.39296,62.386
0.39003,61.799
0.38905,61.408
0.38905,61.017
0.38905,60.626
0.39003,60.039
0.39101,59.844
0.39198,59.648
0.39296,59.844
0.39394,60.235
0.39394,61.408
0.39296,63.559
0.39198,67.275
0.39101,71.969
0.38807,77.64
0.38514,83.898
0.38123,90.157
0.37928,96.219
0.37634,101.89
0.37634,106.98
0.37634,111.28
0.37537,114.8
0.37439,117.14
0.37243,118.71
0.37048,119.49
0.36755,119.49
0.36461,118.71
0.35973,117.54
0.35484,115.78
0.35093,113.62
0.34604,111.28
0.34409,108.34
0.34604,105.41
0.34995,102.09
0.35093,98.566
0.34897,94.85
0.34702,91.134
0.34409,87.419
0.34213,83.898
0.34018,80.769
0.33822,78.031
0.33822,75.685
0.34213,73.533
0.34995,72.164
0.36364,70.795
0.38221,70.013
0.40958,69.426
0.44477,69.035
0.48778,69.035
0.53568,68.84
0.58456,69.035
0.63148,69.231
0.67546,69.426
0.71261,69.622
0.74389,70.013
0.76735,70.209
0.78397,70.404
0.79374,70.6
0.79961,70.6
0.80254,70.795
0.80156,70.6
0.79668,70.6
0.78886,70.404
0.77908,70.013
0.76637,69.818
0.75171,69.426
0.73412,69.035
0.71457,68.644
0.69306,68.057
0.67253,67.471
0.652,67.08
0.62952,66.493
0.60704,65.906
0.58553,65.515
0.56598,64.928
0.54936,64.342
0.53568,63.755
0.52395,63.168
0.51417,62.777
0.50733,62.19
0.50244,61.604
0.49951,61.213
0.49756,60.626
0.49658,60.039
0.4956,59.648
0.4956,59.061
0.4956,58.67
0.49658,58.279
0.49658,58.083
0.49756,57.888
0.49756,57.888
0.49658,58.083
0.49462,58.866
0.49267,60.235
0.49071,62.973
0.48778,67.08
0.48485,72.36
0.48192,78.422
0.47801,84.876
0.4741,91.33
0.46823,97.393
0.46237,103.06
0.4565,108.15
0.45161,112.45
0.44673,115.58
0.44184,117.93
0.43891,119.3
0.435,119.49
0.43011,119.3
0.42326,118.32
0.41544,116.75
0.40762,114.8
0.40176,112.45
0.39785,109.71
0.39296,106.58
0.38807,103.26
0.38221,99.544
0.37634,95.828
0.37146,91.917
0.36755,88.005
0.36168,84.289
0.35582,80.769
0.35191,77.64
0.348,74.902
0.34702,72.751
0.348,70.991
0.35484,69.622
0.3695,68.644
0.39198,67.862
0.42326,67.471
0.46237,67.275
0.50049,67.275
0.53763,67.471
0.58065,67.666
0.62366,67.862
0.66373,68.253
0.69795,68.84
0.7263,69.035
0.74682,69.426
0.76051,69.818
0.76931,70.013
0.77322,70.209
0.77224,70.209
0.76833,70.209
0.76149,70.013
0.75073,69.818
0.73705,69.622
0.72141,69.231
0.70283,69.035
0.68231,68.644
0.6608,68.057
0.63734,67.471
0.61388,67.08
0.58944,66.493
0.565,65.906
0.54154,65.319
0.52199,64.733
0.50635,64.146
0.48876,63.559
0.4741,62.973
0.46041,62.386
0.45064,61.799
0.44184,61.213
0.435,60.626
0.43011,60.235
0.4262,59.648
0.42424,59.061
0.42229,58.67
0.42229,58.279
0.42229,57.888
0.42326,57.692
0.42424,57.497
0.42326,57.497
0.42229,57.692
0.42131,58.279
0.41838,59.648
0.41447,62.19
0.41056,65.906
0.40567,70.795
0.40176,76.662
0.39785,82.725
0.39589,88.983
0.39394,95.046
0.39198,100.52
0.38807,105.61
0.38416,109.71
0.37928,113.04
0.37243,115.19
0.36657,116.56
0.35973,116.95
0.35288,116.56
0.34702,115.78
0.34115,114.21
0.33822,112.06
0.33529,109.71
0.33138,106.98
0.32649,103.85
0.3216,100.33
0.31672,96.806
0.31085,92.894
0.30499,88.983
0.3001,85.072
0.29423,81.552
0.28935,78.227
0.28543,75.293
0.28152,72.751
0.28152,70.6
0.28446,69.035
0.2913,67.862
0.30401,67.08
0.32454,66.297
0.35191,66.102
0.3871,65.906
0.42815,65.906
0.47312,66.102
0.51711,66.297
0.55914,66.688
0.59726,67.08
0.62659,67.471
0.64907,67.862
0.66862,68.057
0.68328,68.449
0.69404,68.644
0.69795,68.644
0.69795,68.84
0.69306,68.84
0.68524,68.644
0.67351,68.449
0.65885,68.057
0.64223,67.862
0.62366,67.471
0.60606,67.08
0.58847,66.688
0.56794,66.102
0.54448,65.711
0.52004,65.124
0.4956,64.537
0.47214,63.95
0.45161,63.168
0.43304,62.777
0.41642,62.19
0.40371,61.604
0.39394,61.213
0.38807,60.626
0.38416,60.235
0.38025,59.844
0.3783,59.257
0.37634,58.67
0.37634,58.279
0.37537,57.888
0.37537,57.497
0.37537,57.106
0.37634,56.91
0.37634,56.715
0.37732,56.715
0.37732,56.91
0.3783,57.692
0.37928,59.257
0.37928,61.995
0.3783,66.102
0.37634,70.991
0.37341,76.858
0.3695,82.725
0.36657,88.788
0.36266,94.655
0.35973,99.935
0.35582,104.43
0.35191,108.34
0.34897,111.28
0.34604,113.23
0.34213,114.21
0.33724,114.41
0.33236,113.82
0.32747,112.84
0.3216,111.08
0.31672,108.93
0.31183,106.58
0.30596,103.85
0.30108,100.72
0.29619,97.197
0.29228,93.677
0.29032,89.961
0.28935,86.05
0.28739,82.334
0.28446,78.814
0.28152,75.685
0.27957,72.947
0.27859,70.6
0.27175,68.84
0.26491,67.471
0.26686,66.297
0.27859,65.515
0.29717,65.124
0.32063,64.928
0.34897,64.928
0.38416,65.124
0.42424,65.515
0.46628,65.906
0.50635,66.297
0.5435,66.884
0.57478,67.275
0.60117,67.666
0.6217,68.057
0.63636,68.253
0.64516,68.449
0.64907,68.644
0.64907,68.644
0.64516,68.644
0.63734,68.449
0.62757,68.253
0.61486,67.862
0.59922,67.666
0.5826,67.275
0.56305,66.884
0.54252,66.493
0.52004,65.906
0.49658,65.515
0.4741,64.928
0.45357,64.537
0.43695,63.95
0.41838,63.364
0.40078,62.777
0.38612,62.386
0.37341,61.799
0.36364,61.408
0.35582,60.821
0.35093,60.43
0.34702,59.844
0.34506,59.452
0.34409,58.866
0.34506,58.475
0.348,58.083
0.35093,57.692
0.35386,57.301
0.35679,57.106
0.35875,57.106
0.3607,57.301
0.3607,58.083
0.36168,59.844
0.36168,62.582
0.36168,66.493
0.36168,71.578
0.36168,77.64
0.36168,83.898
0.36168,90.157
0.36168,96.024
0.35973,101.5
0.35777,106.39
0.35484,110.3
0.35191,113.23
0.348,115.38
0.34409,116.36
0.34018,116.75
0.33529,116.36
0.3304,115.19
0.32747,113.62
0.32454,111.67
0.3216,109.32
0.31769,106.78
0.31378,103.85
0.31085,100.72
0.30694,97.393
0.30303,93.872
0.29814,90.157
0.29521,86.441
0.2913,82.921
0.28641,79.791
0.28348,77.054
0.2825,74.511
0.2825,72.555
0.28543,70.795
0.29228,69.622
0.30499,68.644
0.32454,67.862
0.35386,67.471
0.39003,67.471
0.43206,67.471
0.47703,67.471
0.52297,67.666
0.56696,67.862
0.60313,68.057
0.63343,68.253
0.6608,68.449
0.68524,68.644
0.70283,68.644
0.71457,68.644
0.72043,68.644
0.72141,68.644
0.71945,68.449
0.71359,68.253
0.70479,68.057
0.69404,67.862
0.68133,67.471
0.66862,67.08
0.65494,66.688
0.63832,66.297
0.61975,65.906
0.59922,65.319
0.57967,64.733
0.55914,64.146
0.53959,63.559
0.52199,62.973
0.5044,62.386
0.48974,61.799
0.47605,61.408
0.46628,60.821
0.45943,60.235
0.45259,59.648
0.4477,59.257
0.44379,58.67
0.44184,58.279
0.43988,57.692
0.43988,57.106
0.43988,56.715
0.43891,56.128
0.43891,55.932
0.43988,55.737
0.43988,55.541
0.44086,55.932
0.44184,56.715
0.44184,58.475
0.44184,61.408
0.43988,65.711
0.43793,71.186
0.43597,77.249
0.43402,83.703
0.43109,90.157
0.42717,96.219
0.42424,101.69
0.42131,106.39
0.41838,110.3
0.41642,113.04
0.41447,114.8
0.41153,115.78
0.4086,115.97
0.40567,115.19
0.40078,114.02
0.39687,112.26
0.39296,110.3
0.38807,107.95
0.38416,105.22
0.38025,102.48
0.37537,99.348
0.37146,96.024
0.3695,92.503
0.36657,88.983
0.36266,85.267
0.35875,81.747
0.35484,78.422
0.35093,75.489
0.348,72.947
0.348,70.795
0.35191,69.035
0.36168,67.666
0.3783,66.688
0.39883,65.906
0.42424,65.515
0.45943,65.319
0.50147,65.319
0.54741,65.319
0.59629,65.515
0.64223,65.906
0.68524,66.102
0.72239,66.297
0.75269,66.688
0.77615,66.884
0.79277,67.08
0.8045,67.275
0.80938,67.275
0.81036,67.08
0.80841,67.08
0.80352,66.884
0.79668,66.493
0.78592,66.102
0.77419,65.906
0.76051,65.515
0.74389,65.124
0.7263,64.537
0.70772,64.146
0.68719,63.559
0.66764,63.168
0.64907,62.582
0.62952,61.995
0.60997,61.408
0.59238,60.821
0.57478,60.235
0.56012,59.844
0.54545,59.257
0.53372,58.866
0.52493,58.279
0.51906,57.888
0.51515,57.301
0.51222,56.91
0.51026,56.323
0.51026,55.932
0.51124,55.346
0.51124,54.954
0.51124,54.563
0.51026,54.368
0.51026,54.172
0.50831,53.977
0.50733,54.368
0.50538,55.346
0.5044,57.106
0.50244,60.43
0.49951,64.733
0.49756,70.404
0.49365,76.662
0.48876,82.921
0.48387,89.374
0.47898,95.241
0.4741,100.52
0.47019,105.02
0.46628,108.54
0.46237,111.08
0.45748,112.84
0.45259,113.43
0.44673,113.43
0.44184,112.84
0.43695,111.47
0.43109,109.71
0.42522,107.56
0.42033,105.22
0.41544,102.67
0.41056,99.739
0.40567,96.61
0.40078,93.286
0.39492,89.765
0.38905,86.05
0.38319,82.529
0.3783,79.205
0.37439,76.076
0.37048,73.338
0.36755,70.991
0.36559,69.035
0.36657,67.471
0.37341,66.102
0.3871,65.124
0.40958,64.537
0.44086,64.146
0.47898,63.95
0.52297,63.95
0.56403,63.95
0.60215,64.146
0.63148,64.537
0.65005,64.733
0.67449,64.928
0.69697,65.319
0.7175,65.515
0.73314,65.711
0.74389,65.711
0.74976,65.711
0.75171,65.711
0.75073,65.515
0.74585,65.319
0.739,65.124
0.73021,64.928
0.71945,64.537
0.70577,64.146
0.6911,63.755
0.67546,63.364
0.65689,62.973
0.63832,62.386
0.61779,61.799
0.59726,61.408
0.57771,60.821
0.55816,60.235
0.54252,59.648
0.52884,59.061
0.51515,58.475
0.50342,58.083
0.49365,57.497
0.4868,57.106
0.48094,56.519
0.47605,56.128
0.47116,55.541
0.46725,55.15
0.46432,54.759
0.46139,54.172
0.46041,53.781
0.46041,53.585
0.46041,53.39
0.45943,53.194
0.45846,53.39
0.45748,53.977
0.45552,55.346
0.45259,58.083
0.44868,61.799
0.44477,66.688
0.44184,72.555
0.43988,78.618
0.43793,84.876
0.43597,90.548
0.43402,95.828
0.43011,100.33
0.42522,104.24
0.42033,107.17
0.41447,109.13
0.40958,110.3
0.40469,110.5
0.40078,110.1
0.39589,109.13
0.39198,107.56
0.3871,105.61
0.38123,103.26
0.37732,100.72
0.37341,97.979
0.36852,94.85
0.36461,91.525
0.35973,88.005
0.35484,84.485
0.34995,80.965
0.34604,77.64
0.34115,74.511
0.33627,71.773
0.33236,69.231
0.32942,67.275
0.32942,65.711
0.33333,64.342
0.34115,63.364
0.35582,62.777
0.3783,62.386
0.4086,62.19
0.44379,62.19
0.48387,62.19
0.52493,62.386
0.565,62.582
0.60313,62.973
0.63636,63.168
0.66471,63.559
0.68622,63.755
0.70186,63.95
0.71359,64.146
0.72141,64.146
0.7263,64.146
0.72825,64.146
0.7263,63.95
0.72141,63.755
0.71261,63.364
0.70186,63.168
0.68915,62.777
0.67351,62.386
0.65885,61.995
0.64321,61.408
0.62463,61.017
0.60606,60.626
0.58651,60.039
0.56696,59.648
0.54839,59.061
0.52981,58.475
0.5132,58.083
0.49853,57.497
0.48583,56.91
0.47605,56.519
0.46725,55.932
0.46139,55.541
0.4565,54.954
0.45259,54.563
0.44868,53.977
0.44673,53.585
0.44477,53.194
0.44282,52.803
0.44184,52.412
0.43988,52.216
0.43891,52.021
0.43793,52.021
0.43695,52.608
0.43597,53.781
0.435,55.932
0.43304,59.257
0.43011,63.95
0.42717,69.622
0.42522,75.685
0.42229,81.943
0.41935,87.81
0.41544,93.286
0.41153,97.979
0.40665,101.89
0.40176,105.02
0.39687,107.17
0.39394,108.74
0.39198,109.13
0.38905,108.93
0.38514,108.15
0.38123,106.78
0.37732,105.02
0.37243,102.87
0.36755,100.52
0.36266,97.784
0.35679,94.85
0.35191,91.721
0.34604,88.396
0.34311,84.876
0.34018,81.356
0.33627,78.031
0.33236,74.902
0.32747,71.969
0.32258,69.426
0.31965,67.471
0.31769,65.711
0.31965,64.146
0.32649,63.168
0.34018,62.386
0.36168,61.799
0.39003,61.408
0.42033,61.408
0.45259,61.408
0.49169,61.604
0.53275,61.799
0.57478,61.995
0.61193,62.19
0.64516,62.386
0.67253,62.777
0.69404,62.973
0.70968,62.973
0.72043,63.168
0.7263,63.168
0.72825,62.973
0.7263,62.973
0.72141,62.777
0.71457,62.582
0.70577,62.19
0.69404,61.995
0.68035,61.604
0.66471,61.213
0.64712,60.821
0.62854,60.43
0.60899,59.844
0.58847,59.452
0.56794,58.866
0.55132,58.279
0.53568,57.888
0.52004,57.301
0.50538,56.91
0.49169,56.323
0.47996,55.932
0.47019,55.346
0.46237,54.954
0.4565,54.563
0.45161,53.977
0.44673,53.585
0.44379,53.194
0.44184,52.608
0.44086,52.216
0.43988,51.825
0.43988,51.434
0.43891,51.239
0.43891,51.239
0.43793,51.434
0.43597,52.021
0.435,53.39
0.43304,56.128
0.43011,60.039
0.42815,65.124
0.42522,70.991
0.42229,77.249
0.42131,83.312
0.41838,88.983
0.41544,94.263
0.41251,98.761
0.4086,102.48
0.40371,105.41
0.39883,107.17
0.39394,108.34
0.38905,108.54
0.38416,107.95
0.37928,106.98
0.37537,105.41
0.37146,103.65
0.36755,101.5
0.36266,98.957
0.35679,96.415
0.35191,93.481
0.348,90.157
0.34506,86.832
0.34018,83.312
0.33627,79.791
0.33138,76.662
0.32551,73.533
0.3216,70.795
0.31867,68.253
0.31574,66.297
0.31476,64.537
0.31672,63.168
0.32454,62.19
0.34018,61.408
0.36364,61.017
0.39492,60.626
0.43206,60.626
0.47312,60.626
0.51613,60.626
0.55816,60.821
0.59335,61.213
0.62268,61.408
0.65103,61.799
0.67546,61.995
0.69697,62.19
0.71359,62.386
0.72434,62.386
0.73021,62.386
0.72923,62.386
0.72336,62.19
0.71554,61.995
0.70577,61.799
0.69404,61.408
0.68133,61.213
0.66667,60.821
0.65005,60.43
0.6305,60.039
0.60997,59.648
0.58651,59.257
0.56305,58.67
0.53959,58.279
0.51808,57.888
0.49756,57.301
0.47801,56.91
0.46139,56.323
0.44868,55.737
0.43891,55.346
0.42913,54.954
0.42131,54.563
0.41349,54.172
0.40762,53.781
0.40274,53.39
0.39785,52.999
0.39589,52.412
0.39394,52.216
0.39394,51.825
0.39296,51.434
0.39198,51.239
0.39296,51.239
0.39198,51.63
0.39101,52.412
0.38905,53.977
0.3871,56.91
0.38416,61.213
0.38123,66.493
0.3783,72.555
0.37439,78.814
0.37146,84.876
0.36657,90.548
0.36168,95.437
0.35777,99.739
0.35386,103.06
0.34897,105.61
0.34409,107.37
0.3392,108.15
0.33431,108.34
0.32942,107.76
0.32454,106.58
0.31965,105.02
0.31476,103.26
0.30987,101.11
0.30499,98.566
0.30108,96.024
0.29814,93.09
0.29423,89.961
0.2913,86.832
0.28641,83.312
0.2825,79.987
0.27761,76.858
0.27175,73.729
0.26588,71.186
0.261,68.84
0.25806,66.884
0.25806,65.319
0.26491,64.146
0.27566,63.168
0.2913,62.386
0.31769,61.995
0.35288,61.604
0.39492,61.604
0.44184,61.604
0.49071,61.799
0.53959,61.995
0.58553,62.19
0.62757,62.582
0.66178,62.777
0.69013,62.973
0.70968,63.168
0.72239,63.168
0.73216,63.168
0.739,63.168
0.74194,62.973
0.74194,62.973
0.739,62.582
0.73118,62.386
0.72141,61.995
0.7087,61.604
0.69306,61.408
0.67546,61.017
0.65591,60.43
0.63734,60.039
0.61877,59.648
0.59824,59.061
0.57674,58.67
0.55621,58.279
0.53763,57.692
0.51906,57.301
0.50342,56.91
0.48778,56.323
0.47507,55.932
0.46334,55.541
0.45357,55.15
0.4477,54.759
0.44282,54.368
0.43988,53.977
0.43695,53.585
0.43597,53.194
0.435,52.803
0.435,52.216
0.435,52.021
0.43597,51.63
0.435,51.434
0.43402,51.63
0.43304,52.021
0.43109,53.39
0.43011,55.737
0.42913,59.648
0.4262,64.537
0.42229,70.6
0.41838,76.858
0.41447,83.116
0.41056,88.983
0.40665,94.068
0.39492,113.62
0.39003,114.21
0.38612,113.82
0.38123,113.04
0.37634,111.86
0.37146,110.1
0.36657,107.95
0.36168,105.61
0.35679,103.06
0.35191,100.33
0.34702,97.197
0.34213,93.872
0.33724,90.548
0.33236,87.027
0.32845,83.507
0.32551,80.183
0.32063,77.054
0.31574,74.511
0.31183,72.164
0.30792,70.209
0.30499,68.84
0.30596,67.471
0.31085,66.688
0.3216,66.297
0.33822,65.906
0.36168,65.906
0.39003,65.906
0.41838,66.102
0.4477,66.297
0.48094,66.493
0.51613,66.884
0.54936,67.275
0.58065,67.471
0.60997,67.666
0.63441,67.862
0.65494,67.862
0.67155,67.862
0.68328,67.666
0.69306,67.471
0.69892,67.275
0.70088,67.08
0.70186,66.688
0.70186,66.297
0.69892,65.906
0.69404,65.515
0.68622,64.928
0.67644,64.537
0.66471,63.95
0.65103,63.559
0.63734,62.973
0.6217,62.582
0.60606,61.995
0.59238,61.408
0.57869,61.017
0.56598,60.43
0.55327,60.039
0.54154,59.452
0.53079,59.061
0.52199,58.67
0.51417,58.279
0.50635,57.692
0.50049,57.106
0.4956,56.715
0.49169,55.932
0.48876,55.541
0.48583,55.15
0.48289,54.759
0.47996,54.563
0.47703,54.759
0.4741,55.346
0.47116,56.91
0.46823,59.844
0.4653,64.146
0.46139,69.818
0.45846,76.271
0.45552,83.116
0.45161,89.765
0.4477,96.024
0.44477,101.69
0.43988,106.39
0.435,110.1
0.43011,112.84
0.42424,114.6
0.41935,115.38
0.41447,115.38
0.40958,114.8
0.40469,113.62
0.40078,112.06
0.39589,110.1
0.39198,107.76
0.3871,105.41
0.38221,102.67
0.37634,99.739
0.37146,96.61
0.36559,93.481
0.35973,89.961
0.35484,86.441
0.35093,83.116
0.34702,79.791
0.34115,76.858
0.33627,74.316
0.33138,72.164
0.32845,70.404
0.32747,69.035
0.32942,68.057
0.33627,67.275
0.34897,66.688
0.36852,66.493
0.39296,66.297
0.42326,66.493
0.45748,66.493
0.49365,66.688
0.52981,66.884
0.565,67.08
0.59238,67.275
0.61584,67.471
0.63832,67.471
0.65885,67.666
0.67546,67.471
0.69013,67.471
0.6999,67.275
0.70772,67.08
0.71163,66.688
0.71261,66.297
0.71163,65.906
0.7087,65.515
0.70381,65.124
0.69599,64.733
0.68817,64.146
0.67742,63.755
0.66569,63.168
0.652,62.777
0.63734,62.19
0.62072,61.799
0.60508,61.213
0.58944,60.626
0.57478,60.235
0.56207,59.648
0.54936,59.257
0.53861,58.67
0.52981,58.279
0.52102,57.692
0.5132,57.301
0.50635,56.91
0.50049,56.323
0.4956,55.932
0.49071,55.346
0.4868,54.954
0.48387,54.563
0.47996,54.368
0.47605,54.172
0.47214,54.172
0.46725,54.563
0.46334,55.541
0.45943,57.497
0.45455,60.821
0.44868,65.711
0.44379,71.773
0.43891,78.422
0.43304,85.267
0.42815,91.917
0.42326,97.979
0.41838,103.26
0.41251,107.76
0.40762,111.28
0.40274,113.62
0.39687,114.99
0.39198,115.58
0.38612,115.19
0.38025,114.41
0.37439,113.04
0.36852,111.28
0.36266,109.13
0.35777,106.78
0.35191,104.04
0.34604,101.11
0.3392,97.979
0.33431,94.655
0.3304,91.134
0.32551,87.419
0.32063,83.898
0.31476,80.574
0.30987,77.445
0.30401,74.707
0.29912,72.36
0.29521,70.6
0.29228,69.035
0.29228,67.862
0.29717,67.08
0.30499,66.297
0.31672,65.906
0.33431,65.906
0.35777,65.906
0.38612,65.906
0.41838,66.102
0.45064,66.297
0.48387,66.493
0.51417,66.884
0.54154,67.08
0.565,67.275
0.58553,67.471
0.60117,67.471
0.61193,67.471
0.61975,67.275
0.62561,67.08
0.6305,66.884
0.63245,66.493
0.63343,66.102
0.63148,65.711
0.62757,65.319
0.62072,64.928
0.6129,64.537
0.60215,63.95
0.58944,63.559
0.57674,62.973
0.56403,62.582
0.55034,61.995
0.53666,61.408
0.52297,60.821
0.50831,60.235
0.49462,59.844
0.48192,59.257
0.47019,58.67
0.45748,58.279
0.4477,57.888
0.44086,57.301
0.435,56.91
0.43011,56.323
0.4262,55.737
0.42229,55.346
0.41935,54.954
0.41642,54.563
0.41251,54.368
0.4086,54.172
0.40469,54.368
0.3998,54.759
0.39589,55.737
0.39296,57.692
0.39003,61.017
0.3871,65.711
0.38416,71.382
0.38123,77.836
0.37732,84.485
0.37341,90.743
0.36852,96.61
0.36364,101.69
0.35875,106
0.35288,109.52
0.348,111.86
0.34311,113.23
0.33822,114.02
0.33431,113.82
0.3304,113.04
0.32551,111.67
0.32063,109.71
0.31476,107.56
0.30987,105.02
0.30499,102.28
0.3001,99.348
0.29521,96.024
0.29032,92.503
0.28543,88.983
0.27957,85.267
0.27468,81.552
0.27175,78.227
0.26882,75.293
0.26491,72.751
0.26002,70.6
0.25611,68.84
0.25318,67.471
0.25318,66.297
0.25709,65.711
0.26491,65.124
0.27859,64.928
0.29814,64.733
0.32258,64.928
0.348,65.124
0.37341,65.319
0.40274,65.711
0.43304,65.906
0.46237,66.297
0.48974,66.493
0.5132,66.688
0.53372,66.884
0.5523,66.884
0.56598,66.688
0.5738,66.688
0.57869,66.493
0.58162,66.102
0.58162,65.906
0.57967,65.515
0.57576,64.928
0.57185,64.537
0.565,64.146
0.55621,63.559
0.54643,63.168
0.5347,62.777
0.52102,62.19
0.50635,61.604
0.48876,61.017
0.47214,60.43
0.46237,59.844
0.45259,59.452
0.44184,58.866
0.43109,58.279
0.42131,57.888
0.41251,57.301
0.40469,56.91
0.39785,56.519
0.39198,55.932
0.38807,55.346
0.38416,54.954
0.38123,54.563
0.3783,54.172
0.37634,53.781
0.37439,53.585
0.37243,53.585
0.37146,53.585
0.3695,54.172
0.36657,55.541
0.36461,57.888
0.36168,61.799
0.35875,66.884
0.35484,72.947
0.35191,79.596
0.34702,86.245
0.34311,92.503
0.34018,98.175
0.33627,103.26
0.33236,107.37
0.32845,110.5
0.32356,112.65
0.31867,113.62
0.31476,114.02
0.30987,113.43
0.30499,112.45
0.30108,110.89
0.29619,108.93
0.2913,106.78
0.28739,104.04
0.28446,101.11
0.28055,97.979
0.27468,94.85
0.26979,91.33
0.26588,87.614
0.26295,84.094
0.25709,80.378
0.25024,77.054
0.24536,74.12
0.24242,71.773
0.23949,69.622
0.23851,67.862
0.23851,66.493
0.23949,65.515
0.24829,64.928
0.25904,64.537
0.26979,64.537
0.28837,64.537
0.31281,64.537
0.34995,64.928
0.39198,65.319
0.42815,65.711
0.45846,66.102
0.48192,66.297
0.50049,66.493
0.51808,66.688
0.53275,66.884
0.54545,66.884
0.55425,66.884
0.56012,66.884
0.56403,66.688
0.56696,66.297
0.56598,66.102
0.56305,65.711
0.55816,65.319
0.55132,64.928
0.54448,64.537
0.53568,63.95
0.52395,63.559
0.51124,63.168
0.49756,62.582
0.48387,62.19
0.46921,61.604
0.45846,61.213
0.4477,60.626
0.43402,60.235
0.42229,59.844
0.41251,59.257
0.40469,58.866
0.39883,58.475
0.39296,58.083
0.38905,57.497
0.38514,57.106
0.38319,56.715
0.38025,56.323
0.3783,55.737
0.37634,55.346
0.37439,55.346
0.37243,55.15
0.37048,55.346
0.36852,55.737
0.36755,56.715
0.36461,58.866
0.36266,62.386
0.35973,67.275
0.35679,73.142
0.35386,79.791
0.35093,86.441
0.348,92.894
0.34506,98.761
0.35582,104.04
0.37341,108.34
0.38025,111.67
0.38221,113.82
0.38221,115.19
0.38025,115.78
0.37732,115.38
0.37341,114.6
0.3695,113.23
0.36559,111.47
0.3607,109.52
0.35777,107.17
0.35386,104.63
0.34995,101.89
0.34604,98.761
0.34311,95.437
0.3392,91.917
0.33529,88.592
0.3304,85.072
0.32551,81.747
0.32063,78.618
0.31672,75.88
0.31378,73.533
0.31281,71.773
0.31476,70.209
0.32063,69.035
0.33138,68.057
0.34506,67.471
0.36266,67.275
0.3871,67.08
0.41642,67.08
0.44868,67.08
0.48387,67.275
0.51808,67.471
0.55034,67.471
0.57967,67.666
0.60508,67.862
0.62757,67.862
0.64614,68.057
0.6608,68.057
0.67155,67.862
0.67742,67.862
0.68328,67.666
0.68719,67.471
0.68817,67.08
0.68817,66.688
0.68719,66.297
0.68328,65.906
0.67742,65.319
0.6696,64.928
0.65982,64.342
0.64809,63.755
0.63734,63.364
0.62561,62.777
0.6129,62.19
0.59922,61.408
0.58553,61.017
0.57283,60.43
0.56207,59.844
0.55132,59.257
0.54154,58.866
0.53372,58.279
0.52688,57.888
0.52199,57.497
0.51711,56.91
0.51417,56.519
0.51222,56.128
0.51026,55.541
0.50733,55.15
0.50538,54.759
0.50342,54.368
0.50147,54.172
0.49853,54.172
0.49462,54.368
0.49169,55.15
0.48778,56.91
0.48485,60.039
0.48192,64.733
0.47996,70.6
0.47605,77.249
0.47312,84.094
0.46921,90.743
0.46432,97.001
0.45943,102.67
0.45552,107.37
0.45161,111.08
0.4477,113.82
0.44379,115.38
0.43988,116.17
0.435,116.17
0.43206,115.38
0.42815,114.02
0.42326,112.26
0.41838,110.3
0.41349,107.95
0.40762,105.41
0.40274,102.48
0.39687,99.544
0.39198,96.219
0.38807,92.894
0.38416,89.374
0.38025,85.854
0.37732,82.138
0.37439,78.814
0.37048,75.88
0.36559,73.338
0.36266,71.186
0.36168,69.426
0.36364,68.057
0.37048,67.08
0.38319,66.493
0.40274,65.906
0.42815,65.711
0.45846,65.711
0.49267,65.906
0.52395,65.906
0.5523,66.297
0.58358,66.493
0.61388,66.688
0.64125,67.08
0.66667,67.08
0.68817,67.275
0.70577,67.275
0.72043,67.275
0.73118,67.08
0.73998,66.884
0.74487,66.688
0.7478,66.297
0.7478,65.906
0.74585,65.515
0.74194,65.124
0.73607,64.733
0.72825,64.146
0.7175,63.755
0.70577,63.168
0.69208,62.582
0.67742,61.995
0.66276,61.604
0.64809,61.017
0.63343,60.43
0.62072,60.039
0.60899,59.452
0.59824,59.061
0.58749,58.475
0.57771,58.083
0.56891,57.497
0.56207,57.106
0.55523,56.715
0.54936,56.128
0.54448,55.737
0.53959,55.15
0.53568,54.759
0.53275,54.368
0.52981,53.977
0.52688,53.585
0.52395,53.39
0.52102,53.39
0.51808,53.781
0.51417,54.759
0.50929,56.519
0.50538,59.844
0.49951,64.537
0.49462,70.404
0.48974,77.054
0.48485,83.898
0.47996,90.352
0.47605,96.61
0.47116,101.89
0.46628,106.39
0.46139,109.91
0.45552,112.26
0.44966,113.82
0.44379,114.41
0.43793,114.21
0.43109,113.23
0.42522,111.86
0.42033,110.1
0.41544,107.95
0.41251,105.61
0.4086,102.87
0.40371,99.935
0.39883,96.806
0.39296,93.481
0.38612,90.157
0.38025,86.441
0.37341,82.921
0.36755,79.596
0.36168,76.467
0.35582,73.533
0.35191,71.382
0.34995,69.426
0.34995,67.862
0.35191,66.688
0.35973,65.906
0.37146,65.124
0.39003,64.928
0.41447,64.733
0.44379,64.733
0.47703,64.733
0.51124,64.928
0.54448,65.124
0.57771,65.515
0.60411,65.711
0.62659,65.906
0.64809,66.102
0.66862,66.102
0.68622,66.102
0.70186,66.102
0.71359,66.102
0.72141,65.906
0.72727,65.515
0.73118,65.319
0.73216,64.928
0.73021,64.537
0.72532,64.146
0.71945,63.755
0.71163,63.168
0.70186,62.777
0.69013,62.19
0.67742,61.799
0.66373,61.213
0.64907,60.821
0.63441,60.235
0.61975,59.648
0.60606,59.257
0.59238,58.67
0.57967,58.083
0.56989,57.692
0.56109,57.106
0.5523,56.715
0.54448,56.128
0.53666,55.737
0.53079,55.346
0.5259,54.759
0.52297,54.368
0.52004,53.977
0.51711,53.585
0.51417,53.194
0.51026,52.999
0.50635,52.999
0.50244,53.194
0.49951,53.781
0.4956,55.346
0.49071,58.083
0.4868,62.386
0.48192,67.666
0.47703,74.12
0.47116,80.574
0.46628,87.027
0.46139,93.09
0.45552,98.566
0.45064,103.26
0.44575,106.98
0.44184,109.71
0.43597,111.47
0.43109,112.26
0.41349,112.45
0.39101,111.86
0.37634,110.5
0.36559,108.93
0.35777,106.98
0.34995,104.63
0.34311,102.09
0.33529,99.153
0.3304,96.219
0.32551,92.894
0.31965,89.57
0.31476,85.854
0.3089,82.334
0.30303,79.009
0.29717,75.88
0.29032,73.142
0.28446,70.795
0.28055,68.84
0.27761,67.275
0.27859,65.906
0.28543,64.928
0.29619,64.342
0.31085,63.95
0.33333,63.755
0.36266,63.755
0.39785,63.95
0.43597,64.146
0.47507,64.342
0.51417,64.537
0.5523,64.733
0.58749,64.928
0.61877,65.124
0.64712,65.319
0.66764,65.319
0.68231,65.319
0.69697,65.319
0.7087,65.124
0.7175,64.733
0.72434,64.537
0.72727,64.146
0.72825,63.755
0.72532,63.364
0.72141,62.973
0.71359,62.582
0.70283,61.995
0.69013,61.604
0.67644,61.017
0.66276,60.626
0.64712,60.039
0.6305,59.648
0.6129,59.061
0.59726,58.475
0.58065,58.083
0.56598,57.497
0.55327,56.91
0.54057,56.519
0.52981,56.128
0.52004,55.737
0.51222,55.346
0.50635,54.759
0.49951,54.368
0.49462,53.781
0.48974,53.39
0.48583,52.999
0.48094,52.803
0.47703,52.412
0.47214,52.412
0.46725,52.608
0.46237,53.194
0.45748,54.563
0.45357,56.91
0.45064,61.017
0.44673,66.102
0.44184,72.36
0.43695,79.009
0.43109,85.463
0.42522,91.721
0.41838,97.393
0.41251,102.09
0.40567,106
0.3998,108.93
0.39394,110.89
0.3871,111.86
0.38221,112.06
0.3783,111.67
0.37341,110.5
0.36755,108.93
0.36168,107.17
0.35386,105.02
0.34702,102.48
0.34018,99.739
0.33431,96.806
0.32747,93.677
0.3216,90.352
0.31476,87.027
0.30792,83.507
0.30303,79.987
0.29814,76.858
0.29326,73.924
0.28837,71.382
0.28348,69.231
0.27957,67.666
0.27957,66.102
0.28348,65.124
0.29326,64.342
0.31085,63.95
0.33529,63.559
0.36559,63.559
0.39687,63.559
0.42913,63.755
0.46725,63.95
0.50831,64.146
0.54839,64.342
0.58553,64.537
0.62072,64.733
0.652,64.928
0.67937,64.928
0.70186,64.928
0.72043,64.928
0.73509,64.733
0.74682,64.537
0.75269,64.146
0.75562,63.95
0.7566,63.559
0.7566,63.168
0.75367,62.777
0.7478,62.386
0.73998,61.799
0.72825,61.408
0.71359,60.821
0.69795,60.43
0.68133,59.844
0.66373,59.452
0.64809,58.866
0.63245,58.279
0.61681,57.888
0.60117,57.301
0.58651,56.91
0.57283,56.519
0.56012,55.932
0.54936,55.541
0.53959,55.15
0.53079,54.563
0.52297,54.172
0.51613,53.781
0.51026,53.194
0.5044,52.803
0.49951,52.412
0.49462,52.216
0.48974,52.021
0.48485,52.021
0.47996,52.412
0.47507,53.585
0.46921,55.737
0.46334,59.257
0.45748,64.146
0.45064,70.013
0.44477,76.662
0.43988,83.116
0.435,89.57
0.42913,95.437
0.42326,100.52
0.4174,104.63
0.41056,107.76
0.40371,110.1
0.39589,111.28
0.38807,111.86
0.38025,111.47
0.37341,110.69
0.36559,109.32
0.35777,107.76
0.35288,105.61
0.348,103.46
0.34213,100.91
0.33529,98.175
0.32845,95.241
0.3216,91.917
0.31476,88.592
0.30792,85.072
0.30108,81.552
0.29423,78.227
0.28739,75.293
0.28152,72.555
0.27664,70.209
0.2737,68.253
0.27175,66.688
0.27273,65.515
0.27859,64.537
0.2913,63.95
0.31085,63.559
0.33724,63.364
0.3695,63.364
0.40762,63.559
0.4477,63.755
0.48876,63.95
0.52884,64.146
0.56207,64.537
0.59042,64.537
0.61877,64.733
0.64418,64.928
0.66667,64.928
0.68524,64.928
0.70088,64.928
0.71261,64.733
0.72141,64.537
0.72727,64.342
0.72923,63.95
0.72825,63.755
0.72336,63.364
0.71652,62.973
0.70772,62.386
0.69599,61.995
0.68231,61.408
0.66667,61.017
0.65005,60.626
0.63148,60.039
0.6129,59.648
0.59531,59.257
0.57771,58.67
0.56109,58.279
0.54643,57.888
0.5347,57.497
0.52297,57.106
0.51124,56.715
0.50049,56.323
0.49169,55.737
0.48387,55.346
0.47703,54.954
0.47019,54.368
0.46432,53.977
0.45943,53.781
0.45552,53.39
0.45161,53.194
0.4477,53.194
0.44477,53.585
0.44086,54.563
0.43695,56.715
0.43206,60.235
0.42717,65.124
0.42131,70.991
0.41642,77.64
0.41153,84.289
0.40567,90.743
0.3998,96.61
0.39296,101.69
0.3871,106
0.38123,109.13
0.37634,111.47
0.37048,112.84
0.36364,113.23
0.35777,113.04
0.35191,112.26
0.34604,111.08
0.34018,109.32
0.33529,107.56
0.32942,105.41
0.31965,103.06
0.30596,100.33
0.29717,97.588
0.2913,94.655
0.28543,91.33
0.27859,87.81
0.27273,84.485
0.26686,81.16
0.26002,78.227
0.25415,75.293
0.24829,72.947
0.24438,70.991
0.2434,69.426
0.24536,68.057
0.2522,67.08
0.26393,66.493
0.28348,65.906
0.31085,65.711
0.34409,65.711
0.38221,65.711
0.42424,65.906
0.46725,65.906
0.50929,66.102
0.54839,66.297
0.58553,66.493
0.61779,66.493
0.64614,66.493
0.66667,66.493
0.68231,66.297
0.69697,66.102
0.70968,65.906
0.71848,65.515
0.72532,65.124
0.72825,64.733
0.72825,64.342
0.7263,63.95
0.72043,63.364
0.71261,62.973
0.70186,62.582
0.6911,62.19
0.6784,61.604
0.66373,61.213
0.64809,60.821
0.63148,60.235
0.61388,59.844
0.59824,59.257
0.58162,58.67
0.56696,58.279
0.55327,57.692
0.54057,57.301
0.52981,56.715
0.52102,56.323
0.5132,55.737
0.50831,55.346
0.50244,54.954
0.49853,54.563
0.49365,53.977
0.48876,53.585
0.48289,53.194
0.47801,52.999
0.47214,52.803
0.46823,52.803
0.46432,53.194
0.45943,54.563
0.45552,56.91
0.45161,60.821
0.44673,66.102
0.44282,72.555
0.43891,79.4
0.43402,86.245
0.42913,92.894
0.42326,98.566
0.4174,103.65
0.41056,107.76
0.40469,110.89
0.39883,112.84
0.39296,114.02
0.3871,114.21
0.38319,113.82
0.37732,112.65
0.37048,111.28
0.36461,109.52
0.35875,107.37
0.35386,105.02
0.348,102.48
0.34311,99.544
0.33724,96.61
0.33138,93.286
0.32454,89.961
0.31965,86.441
0.31574,82.921
0.30987,79.791
0.30303,76.662
0.29717,73.924
0.2913,71.773
0.28739,69.818
0.28641,68.253
0.29032,67.08
0.30108,66.102
0.31769,65.515
0.34311,65.124
0.37537,64.928
0.40762,64.733
0.44086,64.928
0.48094,64.928
0.52395,65.124
0.56598,65.319
0.60508,65.515
0.64027,65.711
0.67155,65.711
0.69795,65.711
0.72043,65.711
0.739,65.711
0.75367,65.515
0.76246,65.124
0.76833,64.928
0.77224,64.537
0.77419,64.342
0.77419,63.755
0.76931,63.364
0.76246,62.973
0.75171,62.582
0.739,62.19
0.72434,61.604
0.70772,61.213
0.6911,60.821
0.67253,60.235
0.65591,59.844
0.64027,59.257
0.62366,58.67
0.60704,58.279
0.5914,57.692
0.57771,57.106
0.56403,56.715
0.55132,56.323
0.54057,55.737
0.53177,55.346
0.52395,54.954
0.51711,54.563
0.51124,53.977
0.50635,53.585
0.50244,53.194
0.49756,52.803
0.49267,52.412
0.4868,52.216
0.48192,52.216
0.47605,52.608
0.47116,53.585
0.46628,55.346
0.46041,58.67
0.45357,63.559
0.44673,69.426
0.44086,76.271
0.43597,83.116
0.43011,89.765
0.42229,95.828
0.41447,101.11
0.40567,105.61
0.39883,109.13
0.39198,111.47
0.38514,113.04
0.37732,113.62
0.37048,113.43
0.36364,112.65
0.35777,111.28
0.35288,109.71
0.348,107.56
0.34115,105.22
0.33333,102.67
0.32649,99.739
0.31965,96.61
0.31183,93.286
0.30499,89.961
0.29814,86.245
0.2913,82.725
0.28446,79.4
0.27761,76.271
0.2737,73.533
0.26979,71.186
0.26491,69.035
0.26295,67.471
0.26393,66.297
0.26979,65.319
0.2825,64.733
0.30205,64.342
0.32845,64.146
0.36168,63.95
0.40078,63.95
0.44282,64.146
0.48094,64.342
0.51613,64.537
0.5523,64.733
0.58749,64.928
0.62072,65.124
0.65005,65.124
0.67546,65.124
0.69501,65.124
0.71065,65.124
0.72239,64.928
0.73021,64.537
0.73509,64.342
0.73607,63.95
0.73412,63.364
0.73021,62.973
0.72434,62.582
0.71554,62.19
0.70479,61.604
0.6911,61.213
0.67546,60.821
0.65787,60.235
0.63832,59.844
0.61877,59.257
0.6002,58.67
0.5826,58.279
0.56794,57.692
0.55425,57.106
0.54057,56.715
0.52786,56.128
0.51613,55.737
0.5044,55.346
0.49462,54.954
0.48485,54.563
0.47801,53.977
0.47116,53.585
0.4653,53.194
0.46041,52.803
0.45552,52.412
0.45161,52.216
0.44673,52.021
0.44086,52.021
0.43597,52.412
0.43109,53.39
0.4262,55.541
0.42033,58.866
0.41447,63.755
0.4086,69.622
0.40176,76.076
0.39492,82.725
0.38905,88.983
0.38319,94.85
0.3783,99.935
0.37341,104.04
0.36755,107.37
0.3607,109.71
0.35484,111.08
0.348,111.67
0.34115,111.28
0.33333,110.5
0.32551,109.13
0.31867,107.17
0.31183,105.02
0.30792,102.67
0.30401,99.935
0.29912,97.001
0.29326,93.872
0.28739,90.548
0.28348,87.027
0.27957,83.507
0.27468,79.987
0.26784,76.662
0.261,73.533
0.25415,70.991
0.24927,68.84
0.24536,66.884
0.24438,65.515
0.24633,64.342
0.25318,63.559
0.26491,62.973
0.28348,62.777
0.3089,62.582
0.34115,62.582
0.37732,62.582
0.41642,62.777
0.4565,62.973
0.4956,63.168
0.53275,63.364
0.56207,63.559
0.58553,63.755
0.60899,63.95
0.6305,63.95
0.64907,63.755
0.66471,63.755
0.67546,63.559
0.68231,63.168
0.68719,62.973
0.68817,62.582
0.68524,62.19
0.68035,61.799
0.67351,61.408
0.66373,61.017
0.65298,60.43
0.64027,60.039
0.62463,59.648
0.60899,59.061
0.5914,58.475
0.57478,58.083
0.55718,57.692
0.54057,57.106
0.52493,56.715
0.51026,56.128
0.49658,55.737
0.48485,55.346
0.47605,54.759
0.46628,54.368
0.45846,53.977
0.45064,53.585
0.44379,53.194
0.43793,52.803
0.43304,52.216
0.42913,52.021
0.42522,51.63
0.42229,51.434
0.41838,51.239
0.41544,51.434
0.41153,52.021
0.4086,53.39
0.40371,55.932
0.39883,60.039
0.39492,65.515
0.39003,71.773
0.38416,78.422
0.3783,85.072
0.37243,91.33
0.36657,96.806
0.3607,101.69
0.35484,105.61
0.34995,108.54
0.34604,110.5
0.34115,111.47
0.33529,111.67
0.3304,111.28
0.32454,110.1
0.31867,108.54
0.31281,106.78
0.30596,104.43
0.3001,101.89
0.29326,99.348
0.28739,96.219
0.2825,93.09
0.27859,89.765
0.27468,86.245
0.27077,82.725
0.26588,79.4
0.261,76.271
0.25611,73.533
0.25122,70.991
0.24633,69.035
0.2434,67.471
0.24242,66.102
0.24633,65.124
0.25513,64.537
0.26882,63.95
0.28641,63.755
0.31183,63.755
0.34506,63.755
0.38221,63.95
0.42229,64.146
0.46334,64.342
0.50342,64.537
0.54252,64.928
0.57674,65.124
0.60802,65.124
0.63441,65.319
0.65689,65.319
0.67253,65.124
0.68426,65.124
0.69404,64.928
0.70186,64.537
0.70577,64.342
0.70772,63.95
0.70674,63.364
0.70283,62.973
0.69697,62.582
0.68719,61.995
0.67546,61.604
0.6608,61.213
0.64712,60.626
0.63343,60.235
0.61779,59.844
0.60117,59.257
0.58456,58.866
0.56891,58.279
0.55425,57.888
0.53959,57.497
0.52688,57.106
0.51515,56.715
0.5044,56.323
0.49658,55.932
0.48876,55.541
0.48289,55.15
0.47801,54.563
0.47312,54.172
0.46921,53.781
0.4653,53.39
0.46237,53.194
0.45846,52.999
0.45455,52.803
0.45161,53.194
0.44673,54.172
0.44282,56.128
0.43891,59.452
0.435,64.146
0.43206,70.209
0.42717,76.662
0.42229,83.507
0.4174,89.961
0.41153,95.828
0.40567,100.91
0.3998,105.02
0.39492,108.15
0.39003,110.3
0.38514,111.47
0.37928,111.86
0.37341,111.67
0.36755,110.89
0.36266,109.52
0.35777,107.76
0.35191,105.8
0.34604,103.65
0.34115,101.11
0.33529,98.566
0.32942,95.632
0.32454,92.503
0.31965,89.374
0.31476,86.05
0.30987,82.725
0.30596,79.4
0.30205,76.467
0.29717,73.729
0.29326,71.382
0.28935,69.426
0.28739,67.666
0.28837,66.493
0.29326,65.515
0.30499,64.733
0.32356,64.146
0.35093,63.95
0.38319,63.755
0.41544,63.95
0.44868,63.95
0.48778,64.146
0.52786,64.342
0.56696,64.537
0.60411,64.537
0.63832,64.733
0.66862,64.733
0.69306,64.733
0.71457,64.537
0.73118,64.537
0.74585,64.342
0.75562,63.95
0.76149,63.755
0.76344,63.364
0.76442,62.973
0.76246,62.582
0.75953,61.995
0.75367,61.604
0.74487,61.213
0.73314,60.626
0.71945,60.235
0.70381,59.648
0.68817,59.257
0.67155,58.67
0.65591,58.279
0.64223,57.888
0.62757,57.301
0.61388,56.91
0.6002,56.519
0.58749,55.932
0.57576,55.541
0.565,55.15
0.55425,54.563
0.54545,54.172
0.53763,53.781
0.53079,53.39
0.52493,52.999
0.51906,52.608
0.51515,52.216
0.51026,51.825
0.50635,51.434
0.50244,51.434
0.49853,51.434
0.49462,52.021
0.48876,53.194
0.48387,55.737
0.47801,59.648
0.47312,64.928
0.46725,71.382
0.46139,78.227
0.4565,84.876
0.45064,91.134
0.44379,96.806
0.43695,101.5
0.43109,105.41
0.42522,108.34
0.41935,110.3
0.41349,111.28
0.40665,111.47
0.3998,110.89
0.39296,109.91
0.38612,108.34
0.38025,106.39
0.37537,104.24
0.3695,101.89
0.36364,99.348
0.35679,96.415
0.34995,93.481
0.34311,90.157
0.33627,86.832
0.3304,83.312
0.32454,79.987
0.31769,76.858
0.31378,73.924
0.31085,71.382
0.30792,69.231
0.30499,67.471
0.30303,66.102
0.30401,64.928
0.30987,64.146
0.3216,63.559
0.34018,63.168
0.36559,62.973
0.39687,62.973
0.43304,63.168
0.47214,63.168
0.51222,63.364
0.54545,63.559
0.57576,63.559
0.60704,63.755
0.63636,63.95
0.66373,63.95
0.68817,63.95
0.7087,63.755
0.72434,63.559
0.73803,63.364
0.74682,63.168
0.75269,62.777
0.75562,62.386
0.75367,61.995
0.74976,61.604
0.74389,61.213
0.73607,60.821
0.72532,60.43
0.71359,59.844
0.69892,59.452
0.68231,58.866
0.66569,58.475
0.64907,58.083
0.63148,57.497
0.61486,57.106
0.59922,56.715
0.58553,56.128
0.5738,55.541
0.56207,55.15
0.55034,54.759
0.54057,54.172
0.53079,53.781
0.52297,53.39
0.51515,52.999
0.50831,52.412
0.50244,52.021
0.49756,51.63
0.49169,51.239
0.4868,51.043
0.48289,50.847
0.47703,50.847
0.47214,51.043
0.46725,52.021
0.46139,53.781
0.45455,56.91
0.44868,61.408
0.44184,67.08
0.43597,73.338
0.43011,79.987
0.42424,86.245
0.41838,92.112
0.41349,97.001
0.40762,101.3
0.40176,104.43
0.39492,106.78
0.38905,108.15
0.38221,108.54
0.37537,108.34
0.36852,107.56
0.36266,106.19
0.35582,104.43
0.34897,102.48
0.34213,100.13
0.33627,97.588
0.33138,94.85
0.32551,91.917
0.31965,88.592
0.31281,85.267
0.30694,81.943
0.3001,78.618
0.29423,75.489
0.28739,72.555
0.28152,70.013
0.27566,67.862
0.27077,66.102
0.26686,64.733
0.26686,63.559
0.27077,62.973
0.27859,62.386
0.29228,61.995
0.31378,61.995
0.34018,61.799
0.37341,61.799
0.40958,61.995
0.4477,62.19
0.4868,62.386
0.52395,62.582
0.55914,62.777
0.58749,62.777
0.60997,62.973
0.63245,62.973
0.65396,62.777
0.67155,62.777
0.68622,62.582
0.69697,62.19
0.70479,61.995
0.7087,61.604
0.70968,61.213
0.7087,60.821
0.70381,60.43
0.69795,60.039
0.68915,59.648
0.6784,59.257
0.66569,58.67
0.652,58.279
0.63636,57.888
0.61877,57.301
0.60215,56.91
0.58456,56.519
0.56891,55.932
0.55327,55.346
0.53959,54.954
0.52786,54.563
0.51711,54.172
0.50831,53.781
0.49951,53.39
0.49169,52.803
0.48387,52.412
0.47801,52.021
0.47214,51.63
0.46725,51.043
0.46237,50.652
0.45748,50.456
0.45259,50.456
0.4477,50.456
0.44379,50.652
0.43891,51.434
0.435,53.39
0.42913,56.323
0.42424,60.821
0.41838,66.297
0.41251,72.555
0.40567,79.009
0.3998,85.267
0.39492,90.939
0.38807,95.828
0.38221,99.935
0.37634,103.06
0.37146,105.41
0.36755,106.78
0.36266,107.37
0.35777,107.17
0.35191,106.39
0.34506,105.22
0.33822,103.65
0.33236,101.5
0.32551,99.348
0.31867,96.806
0.31281,94.068
0.30694,90.939
0.30205,87.81
0.29814,84.485
0.29326,81.16
0.28739,77.836
0.28152,74.707
0.27566,71.969
0.26979,69.622
0.26491,67.471
0.26002,65.906
0.25709,64.537
0.25806,63.364
0.26197,62.582
0.27077,61.995
0.28348,61.799
0.30108,61.604
0.32551,61.604
0.35679,61.604
0.39296,61.604
0.43206,61.799
0.47214,61.995
0.51124,62.19
0.54839,62.386
0.5826,62.582
0.61388,62.582
0.64027,62.582
0.65982,62.582
0.67449,62.386
0.68915,62.19
0.70186,61.995
0.71163,61.604
0.7175,61.408
0.72043,61.017
0.72043,60.43
0.7175,60.039
0.71065,59.844
0.70088,59.257
0.68915,58.866
0.67546,58.279
0.66178,57.888
0.64712,57.497
0.63148,56.91
0.61486,56.519
0.59922,55.932
0.5826,55.541
0.56794,54.954
0.55327,54.563
0.53959,53.977
0.52786,53.781
0.51808,53.39
0.50929,52.999
0.50244,52.412
0.49658,52.021
0.49071,51.63
0.48485,51.239
0.47801,50.847
0.47214,50.456
0.46628,50.065
0.46139,50.065
0.4565,50.065
0.45259,50.261
0.4477,51.239
0.44282,53.194
0.43793,56.323
0.43402,60.821
0.42913,66.493
0.42522,72.947
0.41935,79.4
0.41349,85.463
0.40665,90.939
0.40078,95.828
0.39492,99.739
0.38905,102.87
0.38319,105.02
0.37634,106.39
0.37048,106.98
0.36559,106.58
0.3607,105.8
0.35582,104.63
0.34897,103.06
0.34311,101.11
0.33627,98.957
0.3304,96.61
0.32356,93.872
0.31769,90.939
0.31085,87.81
0.30499,84.681
0.29912,81.356
0.29326,78.031
0.28935,74.902
0.28543,72.164
0.28055,69.818
0.27468,67.666
0.26979,65.906
0.26491,64.537
0.26197,63.364
0.26393,62.582
0.27175,61.995
0.28641,61.604
0.3089,61.408
0.33822,61.408
0.36755,61.604
0.39883,61.604
0.435,61.799
0.47507,62.19
0.51515,62.386
0.55327,62.386
0.58847,62.582
0.62072,62.582
0.65005,62.582
0.67449,62.582
0.69501,62.386
0.71163,62.19
0.72434,61.995
0.73216,61.799
0.73705,61.408
0.73998,61.213
0.73998,60.821
0.73705,60.43
0.73118,60.039
0.72336,59.648
0.71261,59.257
0.6999,58.866
0.68524,58.279
0.6696,58.083
0.65396,57.497
0.63832,57.106
0.62366,56.715
0.60802,56.323
0.59238,55.932
0.57771,55.541
0.56403,55.15
0.55132,54.759
0.54057,54.368
0.52981,53.977
0.52102,53.585
0.51222,53.194
0.5044,52.803
0.49853,52.412
0.49267,52.021
0.48876,51.825
0.48485,51.63
0.47996,51.434
0.47507,51.63
0.47116,52.216
0.46628,53.781
0.46139,56.323
0.45748,60.235
0.45259,65.711
0.44673,71.773
0.44086,78.227
0.43597,84.485
0.43109,90.352
0.4262,95.437
0.42033,99.739
0.41544,103.26
0.40958,106
0.40371,107.56
0.39785,108.54
0.39198,108.54
0.38514,107.95
0.37928,107.17
0.37243,105.61
0.36657,104.04
0.3607,102.09
0.35679,99.935
0.35093,97.588
0.34506,95.046
0.3392,92.112
0.33333,89.179
0.32747,85.854
0.3216,82.725
0.31672,79.596
0.30987,76.662
0.30401,73.924
0.29814,71.578
0.29326,69.622
0.2913,68.057
0.29032,66.688
0.2913,65.711
0.29619,64.928
0.30792,64.537
0.32551,64.146
0.35093,63.95
0.38221,63.95
0.41838,63.95
0.45846,64.146
0.50049,64.146
0.54252,64.146
0.57869,64.146
0.60997,64.146
0.64418,64.146
0.67644,64.146
0.70577,64.146
0.73118,63.95
0.75269,63.755
0.77126,63.364
0.7869,63.168
0.79863,62.973
0.80743,62.582
0.81232,62.19
0.81329,61.799
0.81036,61.408
0.80547,60.821
0.79863,60.43
0.78886,59.844
0.77713,59.452
0.76344,59.061
0.7478,58.475
0.73118,58.083
0.71457,57.497
0.69795,56.91
0.68133,56.519
0.66667,56.128
0.65396,55.541
0.64125,55.346
0.62952,54.759
0.61877,54.368
0.60899,53.977
0.6002,53.585
0.59238,53.194
0.58553,52.608
0.57869,52.216
0.57185,51.825
0.56598,51.434
0.56012,51.239
0.55425,51.043
0.54839,51.043
0.54154,51.434
0.53568,52.608
0.52981,54.954
0.52395,58.475
0.51711,63.559
0.51124,69.622
0.5044,76.271
0.49756,82.725
0.48974,88.983
0.48192,94.459
0.47605,99.153
0.46921,102.87
0.46334,105.61
0.4565,107.56
0.45064,108.74
0.44379,108.93
0.43695,108.74
0.43011,107.76
0.42326,106.58
0.4174,104.82
0.41056,102.87
0.40371,100.72
0.39687,98.37
0.39101,95.632
0.38612,92.894
0.37928,89.765
0.37146,86.636
0.36364,83.312
0.35582,80.183
0.348,77.054
0.34115,74.12
0.33431,71.773
0.32845,69.622
0.32356,67.862
0.32063,66.493
0.32063,65.319
0.32356,64.537
0.33236,64.146
0.34702,63.755
0.3695,63.559
0.39883,63.559
0.435,63.559
0.4741,63.559
0.51711,63.559
0.56012,63.755
0.60215,63.755
0.64223,63.95
0.6784,63.95
0.70674,63.95
0.72923,63.755
0.75269,63.559
0.77419,63.364
0.79374,63.168
0.80938,62.973
0.82111,62.582
0.82893,62.19
0.83382,61.799
0.8348,61.408
0.83284,61.017
0.82796,60.626
0.81916,60.039
0.80938,59.648
0.79668,59.257
0.78201,58.866
0.7654,58.279
0.74878,57.888
0.73021,57.497
0.71163,57.106
0.69306,56.519
0.67546,56.128
0.65885,55.541
0.64321,55.15
0.62952,54.759
0.61779,54.368
0.60704,53.977
0.59629,53.585
0.58651,53.194
0.57771,52.803
0.56891,52.216
0.56109,51.825
0.55327,51.434
0.54545,51.043
0.53763,50.847
0.53079,50.847
0.52395,50.847
0.51808,51.434
0.51124,52.803
0.50342,55.15
0.49658,59.061
0.48876,64.146
0.48094,70.209
0.47312,76.662
0.4653,83.116
0.45748,89.179
0.44868,94.459
0.44086,98.957
0.43206,102.67
0.42424,105.41
0.4174,107.17
0.41056,108.15
0.40371,108.34
0.39687,107.76
0.38905,106.78
0.38025,105.41
0.37243,103.65
0.36364,101.69
0.35582,99.544
0.34702,97.001
0.33822,94.263
0.3304,91.33
0.32356,88.201
0.31867,84.876
0.31183,81.552
0.30401,78.227
0.29619,75.293
0.28837,72.555
0.28055,70.209
0.2737,68.253
0.26686,66.688
0.26295,65.319
0.26197,64.342
0.26588,63.559
0.2737,63.168
0.2825,62.777
0.29717,62.777
0.31965,62.582
0.348,62.777
0.38123,62.777
0.4174,62.973
0.45455,63.168
0.48974,63.168
0.52395,63.364
0.55425,63.364
0.5826,63.559
0.60704,63.364
0.62561,63.364
0.6393,63.168
0.65298,62.973
0.66373,62.582
0.67351,62.386
0.67937,61.995
0.68328,61.604
0.68328,61.213
0.68133,60.821
0.67644,60.235
0.66862,59.844
0.65885,59.452
0.64614,59.061
0.63343,58.475
0.62072,58.083
0.60508,57.692
0.58847,57.106
0.57283,56.715
0.55621,56.323
0.54154,55.737
0.52786,55.346
0.51515,54.954
0.50342,54.563
0.49267,53.977
0.48289,53.585
0.47507,53.194
0.46725,52.803
0.46041,52.412
0.45357,52.021
0.4477,51.63
0.44184,51.434
0.43597,51.043
0.43011,51.043
0.42522,51.239
0.41935,51.63
0.41349,52.803
0.4086,55.15
0.40274,58.67
0.39785,63.364
0.39394,69.231
0.38905,75.489
0.38319,81.552
0.37732,87.419
0.37048,92.699
0.36461,97.197
0.35875,101.11
0.35288,103.85
0.34604,105.61
0.34018,106.78
0.33333,107.17
0.32747,106.78
0.32356,105.8
0.31769,104.43
0.31183,102.67
0.30596,100.72
0.29912,98.566
0.29326,96.024
0.28641,93.286
0.28055,90.352
0.2737,87.223
0.26686,83.898
0.26002,80.574
0.25415,77.445
0.24927,74.511
0.24633,71.773
0.24145,69.622
0.23656,67.666
0.23167,66.102
0.22776,64.928
0.22678,63.95
0.22874,63.168
0.23656,62.777
0.25024,62.582
0.26979,62.386
0.29423,62.386
0.32063,62.386
0.348,62.582
0.38025,62.582
0.41544,62.777
0.45161,62.973
0.4868,62.973
0.51906,63.168
0.54936,63.168
0.57576,62.973
0.59824,62.973
0.61681,62.777
0.63245,62.582
0.64223,62.19
0.64907,61.995
0.65396,61.604
0.65591,61.213
0.65591,60.821
0.65298,60.43
0.64809,60.039
0.64027,59.844
0.6305,59.257
0.61779,58.866
0.60411,58.475
0.58944,58.083
0.57478,57.497
0.56012,57.106
0.54643,56.519
0.53275,56.128
0.51808,55.541
0.5044,55.15
0.49169,54.759
0.47996,54.172
0.47019,53.781
0.46041,53.39
0.45259,52.999
0.44575,52.608
0.43988,52.216
0.43402,51.825
0.42913,51.434
0.42424,51.043
0.41935,50.847
0.41447,50.652
0.40958,50.847
0.40371,51.434
0.39883,52.608
0.39394,55.15
0.38905,59.061
0.38416,64.146
0.37928,70.013
0.37341,76.467
0.36852,82.725
0.36461,88.592
0.35973,93.677
0.35386,98.175
0.34897,101.89
0.34311,104.43
0.33822,106.39
0.33236,107.17
0.32649,107.37
0.31965,106.98
0.31378,106.19
0.30792,104.82
0.30303,103.06
0.29912,101.11
0.29326,98.761
0.28739,96.415
0.2825,93.481
0.27664,90.548
0.27077,87.419
0.26491,84.094
0.25806,80.769
0.25318,77.445
0.24731,74.511
0.24145,71.773
0.23558,69.426
0.23167,67.471
0.22874,65.906
0.22581,64.733
0.22581,63.755
0.22874,62.973
0.23656,62.582
0.25024,62.19
0.27077,61.995
0.29717,61.995
0.32845,62.19
0.36364,62.386
0.3998,62.386
0.43206,62.582
0.46237,62.777
0.49462,62.973
0.5259,62.973
0.55621,63.168
0.5826,63.168
0.60606,62.973
0.62659,62.973
0.64321,62.777
0.65591,62.386
0.66569,61.995
0.67155,61.604
0.67449,61.408
0.67449,61.017
0.67155,60.626
0.66667,60.235
0.65885,59.844
0.64809,59.452
0.63636,59.061
0.62268,58.475
0.60704,58.083
0.5914,57.692
0.57576,57.301
0.56012,56.715
0.54448,56.323
0.53079,55.932
0.51906,55.541
0.50635,55.15
0.4956,54.759
0.48485,54.368
0.4741,53.977
0.4653,53.781
0.45748,53.39
0.45064,52.999
0.44379,52.608
0.43793,52.216
0.43304,52.021
0.42815,51.825
0.42424,51.825
0.42131,52.021
0.4174,52.803
0.41251,54.563
0.40665,57.497
0.40176,61.799
0.39687,67.275
0.39198,73.338
0.38612,79.791
0.37928,85.854
0.37341,91.525
0.36755,96.61
0.36266,100.72
0.35875,103.85
0.35386,106.19
0.348,107.76
0.34311,108.54
0.33822,108.34
0.33333,107.76
0.32845,106.78
0.32258,105.41
0.31672,103.85
0.31183,101.69
0.30596,99.544
0.3001,97.001
0.29521,94.263
0.2913,91.33
0.28543,88.201
0.28055,85.072
0.27566,81.747
0.27077,78.618
0.26588,75.685
0.261,73.142
0.25611,70.991
0.25122,69.035
0.24829,67.666
0.24633,66.493
0.24731,65.515
0.25122,64.928
0.261,64.537
0.27566,64.342
0.29814,64.342
0.32551,64.342
0.3695,64.342
0.42229,64.537
0.47116,64.537
0.51711,64.733
0.55914,64.928
0.59922,64.928
0.63441,64.928
0.66276,64.928
0.68524,64.928
0.70772,64.733
0.72825,64.537
0.74585,64.342
0.76051,64.146
0.77126,63.755
0.7781,63.364
0.78201,62.973
0.78299,62.582
0.78104,62.19
0.77615,61.799
0.76931,61.408
0.75855,60.821
0.74682,60.43
0.73216,59.844
0.71652,59.648
0.6999,59.061
0.68328,58.67
0.66667,58.279
0.65103,57.692
0.63636,57.301
0.62268,56.91
0.60899,56.519
0.59629,55.932
0.58553,55.541
0.57674,54.954
0.56696,54.563
0.55816,53.977
0.55132,53.585
0.54448,52.999
0.53763,52.608
0.53275,52.216
0.52786,52.021
0.52199,52.021
0.51711,52.216
0.51222,52.999
0.50635,54.759
0.50147,57.888
0.4956,62.386
0.48974,67.862
0.48289,74.316
0.47605,81.16
0.47019,87.419
0.46432,93.286
0.45846,98.175
0.45161,102.28
0.44477,105.61
0.43891,107.76
0.43402,109.13
0.42913,109.91
0.42326,109.71
0.4174,109.13
0.41056,107.95
0.40469,106.58
0.39883,104.82
0.39198,102.87
0.38612,100.72
0.37928,98.175
0.37341,95.437
0.36657,92.699
0.35973,89.57
0.35386,86.441
0.34897,83.116
0.34311,79.791
0.33724,76.858
0.3304,74.12
0.32356,71.969
0.31769,70.013
0.31378,68.253
0.31183,67.08
0.31281,65.906
0.31867,65.319
0.33138,64.733
0.348,64.537
0.36755,64.342
0.39589,64.342
0.43109,64.342
0.47019,64.342
0.51222,64.537
0.55425,64.537
0.59726,64.733
0.63734,64.733
0.67351,64.733
0.70674,64.733
0.73509,64.537
0.76051,64.537
0.7781,64.342
0.79081,63.95
0.80254,63.559
0.81329,63.168
0.82209,62.973
0.82698,62.386
0.82991,61.995
0.82796,61.408
0.82405,61.017
0.81623,60.626
0.80547,60.235
0.79277,59.844
0.7781,59.452
0.76344,59.061
0.74682,58.475
0.73021,58.083
0.71261,57.692
0.69501,57.106
0.67742,56.715
0.66178,56.323
0.64614,55.737
0.63245,55.346
0.61975,54.954
0.60802,54.563
0.59629,54.172
0.58749,53.781
0.57869,53.39
0.57087,52.999
0.56305,52.412
0.55621,52.216
0.54936,51.825
0.54252,51.434
0.53568,51.434
0.52884,51.63
0.52199,52.412
0.51515,54.172
0.50831,57.106
0.50147,61.604
0.4956,67.275
0.48876,73.533
0.48094,80.183
0.47214,86.441
0.46432,92.308
0.45552,97.393
0.4477,101.69
0.43988,105.22
0.43304,107.56
0.42522,108.93
0.41838,109.52
0.41056,109.52
0.40371,108.93
0.39785,107.76
0.39101,106.19
0.38319,104.43
0.37634,102.48
0.3695,100.13
0.36168,97.588
0.35386,94.85
0.34604,91.917
0.33822,88.788
0.3304,85.463
0.32258,82.138
0.31672,78.814
0.31183,75.88
0.30596,73.142
0.29912,70.991
0.29228,69.035
0.28739,67.471
0.28348,66.102
0.28348,65.319
0.28739,64.537
0.29814,64.146
0.31574,63.95
0.34018,63.755
0.37146,63.559
0.40371,63.559
0.43597,63.755
0.4741,63.755
0.51515,63.95
0.55718,64.146
0.59726,64.342
0.63441,64.342
0.66862,64.146
0.69892,64.146
0.72434,63.95
0.74585,63.755
0.76344,63.559
0.77517,63.168
0.78201,62.973
0.78788,62.582
0.79277,61.995
0.79374,61.604
0.79179,61.213
0.7869,60.821
0.77908,60.43
0.76833,59.844
0.75464,59.452
0.739,59.061
0.72239,58.67
0.70381,58.279
0.68622,57.692
0.66862,57.301
0.652,56.715
0.63441,56.323
0.61779,55.932
0.60215,55.346
0.58847,54.954
0.57478,54.368
0.56305,53.977
0.5523,53.585
0.54154,53.194
0.53275,52.803
0.52493,52.412
0.51906,52.216
0.51222,51.825
0.50538,51.434
0.49853,51.434
0.49169,51.434
0.48485,51.825
0.47703,52.999
0.47116,55.15
0.46432,58.475
0.45748,63.168
0.44966,69.035
0.44184,75.098
0.43597,81.356
0.43011,87.223
0.42229,92.503
0.41544,97.197
0.40762,101.11
0.3998,103.85
0.39198,105.8
0.38514,106.98
0.37732,107.37
0.37048,107.17
0.36266,106.39
0.35582,105.02
0.34995,103.26
0.34409,101.3
0.33724,99.153
0.32942,96.61
0.32258,93.677
0.31476,90.743
0.30694,87.614
0.3001,84.485
0.29228,81.16
0.28543,78.031
0.27859,75.098
0.27077,72.36
0.26393,70.013
0.25806,68.057
0.25318,66.493
0.24927,65.319
0.24731,64.342
0.24927,63.559
0.25513,63.168
0.26686,62.777
0.28543,62.582
0.31085,62.582
0.34213,62.777
0.37928,62.777
0.41935,62.973
0.4477,62.973
0.46725,63.168
0.49462,63.364
0.52493,63.364
0.55327,63.364
0.58065,63.364
0.60508,63.168
0.62659,63.168
0.64321,62.973
0.65787,62.582
0.66862,62.19
0.67644,61.799
0.68035,61.408
0.68133,61.213
0.67937,60.821
0.67546,60.43
0.66862,59.844
0.65982,59.452
0.64907,59.061
0.63636,58.67
0.62268,58.279
0.60802,57.692
0.59238,57.301
0.57674,56.715
0.56207,56.323
0.54936,55.932
0.53763,55.346
0.52493,54.954
0.51222,54.563
0.50049,54.172
0.48974,53.781
0.48094,53.39
0.47214,52.999
0.4653,52.412
0.45846,52.021
0.45259,51.63
0.44673,51.239
0.44184,51.043
0.43695,51.043
0.43206,51.043
0.42717,51.434
0.42229,52.412
0.4174,54.563
0.41251,57.888
0.4086,62.582
0.40274,68.253
0.39785,74.511
0.39198,80.769
0.3871,86.636
0.38123,91.917
0.37634,96.61
0.37146,100.33
0.36559,103.26
0.35973,105.41
0.35386,106.58
0.348,107.17
0.34213,106.98
0.33529,106.19
0.32942,105.02
0.32356,103.26
0.31672,101.3
0.31085,99.153
0.30596,96.61
0.30108,93.872
0.29619,90.939
0.29032,87.81
0.28543,84.485
0.27957,81.16
0.27468,78.031
0.26979,74.902
0.26393,72.164
0.25806,70.013
0.25318,68.057
0.24829,66.493
0.24438,65.124
0.2434,64.342
0.24536,63.559
0.25024,63.168
0.25904,62.777
0.27468,62.777
0.29521,62.582
0.3216,62.777
0.35288,62.777
0.3871,62.973
0.42424,63.168
0.46139,63.364
0.49756,63.364
0.52786,63.559
0.55327,63.559
0.57967,63.559
0.60411,63.364
0.62659,63.168
0.64516,62.973
0.6608,62.777
0.67253,62.386
0.68231,62.19
0.68817,61.799
0.69013,61.408
0.69013,61.017
0.68719,60.626
0.68133,60.235
0.67351,59.844
0.66276,59.257
0.65103,58.866
0.63734,58.475
0.62268,58.083
0.60802,57.497
0.59238,57.106
0.57674,56.519
0.56207,56.128
0.54741,55.541
0.5347,55.346
0.52297,54.759
0.51222,54.368
0.50244,53.977
0.49365,53.585
0.48485,53.194
0.47703,52.608
0.47019,52.216
0.46334,52.021
0.45748,51.63
0.45259,51.239
0.44673,51.239
0.44184,51.239
0.43695,51.825
0.43304,52.999
0.42913,55.346
0.42424,58.866
0.41935,63.755
0.41349,69.622
0.4086,75.88
0.40274,82.138
0.39687,88.005
0.39101,93.286
0.38514,97.979
0.37928,101.69
0.37341,104.43
0.36852,106.39
0.36364,107.37
0.35777,107.76
0.35288,107.56
0.34702,106.58
0.34115,105.41
0.33529,103.85
0.3304,101.89
0.32454,99.739
0.31867,97.393
0.31281,94.655
0.30694,91.721
0.30108,88.592
0.29619,85.463
0.29228,82.138
0.28739,79.009
0.2825,76.076
0.27664,73.338
0.27077,70.991
0.26491,69.035
0.26002,67.471
0.25611,66.102
0.25415,65.124
0.25611,64.342
0.26197,63.755
0.27273,63.364
0.28641,63.168
0.30694,63.168
0.33333,63.168
0.36559,63.168
0.40078,63.364
0.43793,63.364
0.47507,63.559
0.51222,63.755
0.54741,63.755
0.57967,63.755
0.60899,63.755
0.63539,63.559
0.65396,63.364
0.66862,63.168
0.68328,62.973
0.69599,62.582
0.70479,62.386
0.71163,61.995
0.71457,61.604
0.71554,61.213
0.71261,60.821
0.70674,60.43
0.69795,60.039
0.68817,59.648
0.67644,59.257
0.66373,58.866
0.65005,58.279
0.63441,57.888
0.61877,57.301
0.60215,56.91
0.58749,56.323
0.57185,55.932
0.55816,55.541
0.54545,55.15
0.53372,54.759
0.52297,54.172
0.5132,53.781
0.50538,53.39
0.49853,52.999
0.49169,52.608
0.48485,52.216
0.47801,51.825
0.47116,51.63
0.4653,51.63
0.45943,51.825
0.45259,52.412
0.44673,53.781
0.44184,56.323
0.43597,60.235
0.43206,65.515
0.42717,71.578
0.42229,78.227
0.4174,84.485
0.41153,90.352
0.40567,95.632
0.3998,100.13
0.39296,103.85
0.3871,106.58
0.38123,108.34
0.37439,109.32
0.36755,109.52
0.36168,109.13
0.35679,108.34
0.35191,107.17
0.34702,105.41
0.34018,103.46
0.33431,101.3
0.32747,98.957
0.32063,96.415
0.31378,93.677
0.30792,90.743
0.30205,87.419
0.29521,84.289
0.28935,80.965
0.28446,78.031
0.28055,75.098
0.27664,72.751
0.27077,70.795
0.26588,69.035
0.26197,67.666
0.25904,66.688
0.261,65.906
0.26784,65.319
0.27957,64.928
0.29912,64.733
0.32454,64.733
0.35093,64.733
0.3783,64.733
0.41251,64.928
0.45064,64.928
0.48974,65.124
0.52688,65.124
0.56305,65.319
0.60411,65.319
0.64516,65.319
0.6784,65.124
0.70479,65.124
0.72727,64.928
0.74487,64.537
0.7566,64.342
0.76442,63.95
0.77224,63.559
0.77713,63.168
0.77908,62.777
0.77713,62.386
0.77322,61.995
0.7654,61.408
0.75562,61.017
0.74291,60.626
0.72825,60.039
0.71261,59.648
0.69599,59.257
0.68035,58.67
0.66373,58.279
0.64809,57.888
0.63245,57.497
0.61779,57.106
0.60313,56.715
0.59042,56.323
0.57869,55.932
0.56794,55.346
0.55816,55.15
0.54936,54.563
0.54154,54.172
0.5347,53.781
0.52884,53.39
0.52199,53.194
0.51613,52.999
0.51124,53.194
0.50538,53.781
0.49951,55.346
0.49365,57.888
0.48778,61.995
0.48192,67.471
0.47507,73.533
0.46823,80.183
0.46139,86.636
0.4565,92.503
0.45064,97.784
0.44379,102.28
0.43695,105.8
0.43109,108.34
0.42424,110.1
0.41838,110.89
0.41153,111.08
0.40469,110.5
0.39785,109.52
0.39101,108.15
0.38416,106.58
0.3783,104.63
0.37341,102.48
0.36852,100.13
0.36266,97.588
0.35679,94.85
0.34995,91.917
0.34409,88.788
0.33724,85.658
0.3304,82.529
0.32356,79.4
0.31769,76.662
0.31085,74.12
0.30596,72.164
0.30205,70.404
0.29912,69.035
0.29717,67.862
0.29814,67.08
0.30499,66.297
0.31769,65.906
0.33627,65.711
0.36168,65.515
0.39394,65.515
0.43011,65.515
0.47019,65.515
0.51222,65.515
0.54839,65.711
0.58065,65.711
0.61584,65.711
0.65005,65.711
0.68231,65.515
0.71261,65.319
0.739,65.124
0.76051,64.928
0.77908,64.537
0.79374,64.342
0.8045,63.95
0.81134,63.559
0.81525,63.168
0.81427,62.777
0.81232,62.386
0.80841,61.995
0.80059,61.408
0.79081,61.017
0.77713,60.626
0.76246,60.235
0.74585,59.844
0.72923,59.452
0.71163,58.866
0.69404,58.279
0.67742,57.888
0.66276,57.497
0.64809,56.91
0.63441,56.519
0.61975,56.128
0.60606,55.737
0.59433,55.346
0.5826,54.954
0.57283,54.368
0.56305,53.977
0.55425,53.585
0.54545,53.194
0.53861,52.803
0.53177,52.608
0.52493,52.412
0.51808,52.803
0.51124,53.39
0.50342,55.15
0.49658,58.083
0.48876,62.386
0.47996,67.862
0.47214,74.316
0.46432,80.965
0.45552,87.419
0.4477,93.286
0.43891,98.566
0.43304,102.87
0.4262,106.39
0.41935,108.93
0.41153,110.5
0.40469,111.28
0.39687,111.47
0.39003,110.89
0.38319,109.91
0.37537,108.54
0.36755,106.78
0.35875,104.63
0.35093,102.48
0.34506,99.935
0.3392,97.393
0.33236,94.459
0.32454,91.134
0.31672,87.81
0.3089,84.485
0.30108,81.16
0.29423,78.227
0.28641,75.489
0.27859,73.142
0.27175,70.991
0.26588,69.231
0.261,68.057
0.25904,67.08
0.261,66.297
0.26784,65.711
0.27957,65.319
0.29814,65.124
0.32356,65.124
0.35484,65.124
0.39101,65.124
0.43011,65.319
0.46921,65.515
0.50929,65.515
0.54643,65.711
0.57771,65.711
0.60313,65.711
0.62952,65.515
0.65396,65.319
0.67449,65.124
0.69208,64.928
0.70674,64.537
0.71848,64.342
0.72727,63.95
0.73216,63.559
0.73412,62.973
0.73216,62.777
0.72727,62.19
0.72043,61.799
0.70968,61.408
0.69795,61.017
0.68328,60.626
0.66764,60.039
0.65005,59.648
0.63245,59.061
0.61486,58.67
0.59726,58.083
0.57967,57.692
0.56305,57.301
0.54643,56.91
0.53372,56.323
0.52199,55.932
0.51026,55.541
0.49951,55.15
0.48876,54.563
0.47898,54.172
0.47019,53.781
0.46237,53.39
0.45455,52.999
0.44868,52.608
0.44282,52.608
0.43695,52.608
0.43011,52.999
0.42522,53.781
0.42033,55.737
0.41447,59.061
0.40762,63.559
0.40078,69.231
0.39394,75.685
0.38612,82.138
0.37928,88.396
0.37243,94.068
0.36559,98.957
0.35875,103.06
0.35191,106.19
0.34604,108.54
0.34115,109.91
0.33431,110.5
0.32845,110.5
0.32063,109.71
0.31281,108.54
0.30596,106.98
0.29814,105.22
0.2913,103.06
0.28446,100.72
0.27761,97.979
0.27077,95.046
0.26588,91.917
0.261,88.592
0.25611,85.072
0.25024,81.747
0.2434,78.618
0.23656,75.685
0.22972,73.142
0.22287,70.991
0.21701,69.035
0.21212,67.471
0.21017,66.493
0.21017,65.515
0.21505,64.928
0.22287,64.537
0.23656,64.342
0.25611,64.342
0.2825,64.342
0.31281,64.342
0.348,64.537
0.38514,64.537
0.42424,64.733
0.46237,64.928
0.49853,64.928
0.53275,64.928
0.56207,64.928
0.58553,64.928
0.59433,64.733
0.59726,64.537
0.60411,64.342
0.61095,64.146
0.61584,63.755
0.61975,63.364
0.6217,62.973
0.62072,62.582
0.61681,62.19
0.61095,61.799
0.60313,61.408
0.59238,61.017
0.58162,60.626
0.57087,60.039
0.55816,59.648
0.54448,59.061
0.53079,58.67
0.51711,58.279
0.5044,57.692
0.49169,57.301
0.48094,56.91
0.47019,56.323
0.45943,55.932
0.45064,55.346
0.44379,54.954
0.43793,54.563
0.43206,54.172
0.42717,53.781
0.42326,53.39
0.41838,52.999
0.64418,60.235
0.6305,59.844
0.61486,59.452
0.6002,58.866
0.58553,58.475
0.57185,58.083
0.55816,57.692
0.54643,57.301
0.5347,56.91
0.52395,56.323
0.51515,55.932
0.50831,55.541
0.50147,55.15
0.4956,54.759
0.49071,54.172
0.48485,53.781
0.47996,53.39
0.47507,52.999
0.47019,52.608
0.4653,52.216
0.46041,51.825
0.45552,51.63
0.45161,51.434
0.4477,51.434
0.44379,51.825
0.43891,52.803
0.435,54.563
0.43011,57.692
0.42522,62.19
0.41935,67.666
0.41447,73.924
0.4086,80.183
0.40274,86.245
0.39687,91.721
0.39101,96.61
0.38514,100.72
0.38123,103.85
0.37732,106.19
0.37243,107.76
0.36755,108.54
0.36266,108.54
0.35777,107.95
0.35386,106.78
0.34897,105.22
0.34409,103.46
0.3392,101.3
0.33333,98.761
0.32845,96.219
0.32356,93.286
0.32063,90.157
0.31574,86.832
0.31085,83.507
0.30499,80.378
0.3001,77.445
0.29619,74.707
0.29228,72.164
0.28935,70.209
0.28837,68.449
0.2913,67.08
0.29912,65.906
0.31281,64.928
0.32942,64.342
0.34995,63.95
0.37732,63.559
0.4086,63.364
0.44282,63.364
0.47703,63.364
0.51026,63.364
0.54252,63.559
0.57185,63.559
0.59726,63.755
0.61975,63.755
0.63832,63.755
0.652,63.95
0.6608,63.755
0.6696,63.755
0.67546,63.559
0.67937,63.364
0.67937,62.973
0.67742,62.777
0.67253,62.386
0.66471,61.995
0.65591,61.799
0.64516,61.408
0.63245,61.017
0.61877,60.626
0.60508,60.235
0.59238,59.844
0.57869,59.452
0.56403,59.061
0.55034,58.67
0.53666,58.083
0.52297,57.692
0.51124,57.106
0.50049,56.715
0.49169,56.323
0.48289,55.932
0.47605,55.346
0.46921,54.954
0.46432,54.563
0.46041,54.172
0.4565,53.781
0.45259,53.39
0.44966,52.803
0.44575,52.412
0.44184,52.216
0.43793,52.021
0.43402,51.825
0.43011,52.021
0.42717,52.216
0.42229,53.194
0.41838,54.954
0.41544,58.083
0.41056,62.386
0.40665,67.666
0.40274,73.729
0.39785,79.791
0.39394,85.658
0.38905,90.939
0.38416,95.632
0.37928,99.739
0.37439,102.87
0.3695,105.41
0.36559,106.78
0.36168,107.56
0.35777,107.76
0.35288,107.17
0.34897,106.19
0.34409,104.63
0.3392,102.87
0.33333,100.72
0.32845,98.37
0.32258,95.632
0.31769,92.699
0.31281,89.57
0.30792,86.245
0.30401,82.725
0.30205,79.596
0.29814,76.662
0.29423,73.924
0.29032,71.578
0.28837,69.622
0.28837,67.862
0.29032,66.493
0.29814,65.515
0.31085,64.537
0.32942,63.95
0.35386,63.559
0.3783,63.364
0.40371,63.364
0.435,63.364
0.46725,63.364
0.49951,63.559
0.52981,63.559
0.55816,63.755
0.58358,63.755
0.60508,63.95
0.62366,63.95
0.63832,63.95
0.64907,63.95
0.65787,63.755
0.66178,63.559
0.66373,63.364
0.66373,63.168
0.6608,62.973
0.65591,62.582
0.64809,62.19
0.63832,61.799
0.62659,61.408
0.61388,61.017
0.6002,60.626
0.58553,60.235
0.57087,59.844
0.55816,59.452
0.54643,59.061
0.53372,58.475
0.52199,58.083
0.51026,57.692
0.49951,57.106
0.48974,56.715
0.48094,56.323
0.47312,55.932
0.46628,55.346
0.46041,55.15
0.45455,54.563
0.45064,54.172
0.4477,53.781
0.44379,53.39
0.43988,52.803
0.43695,52.412
0.43402,52.216
0.43109,52.021
0.42815,52.021
0.42424,52.021
0.42033,52.412
0.41544,53.585
0.41153,55.541
0.40762,59.061
0.40469,63.95
0.40176,69.622
0.39785,75.685
0.39394,81.943
0.39003,87.81
0.38612,93.286
0.38221,97.979
0.37732,101.89
0.37243,105.02
0.36755,107.17
0.36266,108.54
0.35777,109.13
0.35386,109.13
0.34995,108.34
0.34506,107.17
0.34018,105.61
0.33529,103.85
0.3304,101.5
0.32551,99.153
0.32063,96.415
0.31574,93.286
0.31085,90.157
0.30694,86.832
0.30205,83.507
0.29717,80.183
0.29423,77.054
0.29228,74.511
0.28935,72.164
0.28739,70.013
0.28837,68.449
0.29228,67.08
0.3001,65.906
0.31476,65.124
0.33431,64.537
0.35973,64.342
0.39003,64.146
0.42229,64.146
0.45161,64.146
0.47898,64.342
0.50831,64.342
0.53763,64.537
0.56403,64.733
0.58847,64.928
0.60899,65.124
0.62561,65.124
0.6393,65.124
0.64907,65.124
0.66569,65.124
0.68328,64.928
0.6911,64.733
0.69404,64.537
0.6911,64.342
0.68622,63.95
0.67742,63.559
0.66667,63.168
0.65298,62.973
0.63734,62.582
0.61975,62.19
0.60215,61.799
0.58456,61.408
0.56794,60.821
0.55132,60.43
0.53861,60.039
0.5259,59.648
0.51417,59.061
0.50147,58.67
0.48974,58.279
0.47898,57.888
0.47019,57.497
0.46237,57.106
0.4565,56.715
0.45161,56.323
0.4477,55.932
0.44379,55.541
0.43988,55.15
0.43695,54.759
0.43402,54.563
0.43109,54.172
0.42815,53.977
0.42522,54.172
0.42131,54.563
0.4174,55.346
0.41349,57.301
0.40958,60.626
0.40567,65.124
0.40176,70.6
0.39687,76.858
0.39296,83.116
0.38905,89.179
0.38514,94.655
0.38025,99.544
0.37537,103.65
0.37048,106.98
0.36657,109.32
0.36168,110.89
0.35582,111.67
0.35093,111.86
0.34604,111.47
0.34018,110.5
0.33529,109.13
0.33138,107.37
0.32747,105.41
0.32356,103.26
0.31867,100.72
0.31378,97.979
0.3089,95.046
0.30401,91.917
0.29912,88.592
0.29423,85.267
0.29032,82.138
0.28543,79.205
0.28152,76.662
0.28055,74.511
0.28152,72.555
0.28543,70.795
0.29423,69.426
0.30792,68.449
0.32942,67.666
0.35679,67.08
0.39003,66.688
0.42815,66.493
0.46921,66.297
0.50929,66.493
0.54839,66.493
0.58553,66.688
0.61388,66.688
0.63832,66.884
0.6608,66.884
0.68133,66.884
0.69892,66.884
0.71261,66.884
0.72239,66.688
0.73021,66.493
0.73509,66.297
0.73607,65.906
0.73412,65.711
0.73021,65.319
0.72434,64.733
0.71554,64.342
0.70479,63.95
0.69306,63.559
0.6784,62.973
0.66373,62.582
0.64712,62.19
0.6305,61.799
0.61388,61.408
0.59824,60.821
0.58358,60.43
0.56989,59.844
0.55718,59.452
0.54643,58.866
0.53763,58.475
0.52981,58.083
0.52199,57.692
0.51613,57.106
0.51026,56.91
0.5044,56.323
0.49951,55.932
0.49462,55.541
0.49071,55.15
0.48778,54.759
0.48387,54.172
0.48192,53.977
0.47898,53.781
0.47507,53.781
0.47214,53.977
0.46725,54.954
0.46237,56.91
0.45748,60.235
0.45259,64.928
0.44673,70.6
0.44086,77.054
0.435,83.507
0.43011,89.57
0.42424,95.241
0.41935,100.33
0.41447,104.63
0.4086,108.15
0.40371,110.69
0.39785,112.26
0.39296,113.04
0.38807,113.23
0.38319,112.65
0.37732,111.67
0.37243,110.3
0.36657,108.54
0.3607,106.58
0.35582,104.24
0.35191,101.69
0.34702,98.957
0.34115,95.828
0.33529,92.699
0.3304,89.374
0.32454,86.05
0.31965,82.725
0.31281,79.791
0.30792,76.858
0.30401,74.511
0.30401,72.36
0.30792,70.795
0.31672,69.426
0.3304,68.253
0.35093,67.471
0.37928,66.884
0.41349,66.493
0.45161,66.297
0.49169,66.297
0.53275,66.297
0.57185,66.297
0.60802,66.493
0.64027,66.493
0.6696,66.688
0.69013,66.688
0.70577,66.688
0.72141,66.688
0.73509,66.688
0.74487,66.493
0.75171,66.297
0.75562,66.102
0.75758,65.906
0.75562,65.515
0.75073,65.124
0.74389,64.733
0.73412,64.342
0.72336,63.95
0.71065,63.559
0.69697,63.168
0.68035,62.777
0.66373,62.386
0.64712,61.799
0.62952,61.408
0.6129,61.017
0.59726,60.43
0.5826,60.039
0.56891,59.452
0.55523,59.061
0.5435,58.475
0.53372,58.083
0.52493,57.497
0.51808,57.106
0.51026,56.715
0.5044,56.323
0.49853,55.932
0.49462,55.541
0.48876,55.15
0.48387,54.563
0.48094,54.172
0.47605,53.977
0.47116,53.781
0.46725,53.585
0.46237,53.781
0.45846,54.368
0.45259,55.737
0.4477,58.279
0.44184,61.995
0.43597,67.08
0.42913,73.142
0.42326,79.596
0.4174,85.854
0.41056,91.721
0.40371,97.001
0.39687,101.69
0.39101,105.61
0.38612,108.54
0.38025,110.5
0.37439,111.86
0.36755,112.26
0.3607,112.06
0.35484,111.28
0.34897,109.91
0.34311,108.34
0.33627,106.39
0.32942,104.24
0.32356,101.69
0.31867,98.957
0.31476,96.024
0.3089,92.699
0.30303,89.374
0.29717,86.05
0.2913,82.725
0.28543,79.596
0.27957,76.662
0.27468,74.12
0.27273,72.164
0.2737,70.404
0.28055,69.035
0.29326,67.862
0.30987,67.08
0.3304,66.297
0.35777,65.906
0.39101,65.711
0.42913,65.711
0.46921,65.711
0.50831,65.711
0.54643,65.906
0.58065,65.906
0.61095,66.102
0.63832,66.297
0.66178,66.297
0.6784,66.493
0.69013,66.493
0.70186,66.297
0.70968,66.297
0.71359,66.102
0.71261,65.906
0.70968,65.515
0.70577,65.124
0.69892,64.733
0.69013,64.537
0.67937,64.146
0.66569,63.755
0.65005,63.168
0.63441,62.777
0.61877,62.386
0.60215,61.799
0.58456,61.408
0.56696,61.017
0.55034,60.43
0.5347,60.039
0.52004,59.452
0.50635,59.061
0.49462,58.475
0.48485,58.083
0.47605,57.497
0.46921,57.106
0.46334,56.715
0.45748,56.128
0.45161,55.737
0.44673,55.346
0.44184,54.954
0.43793,54.563
0.43402,54.172
0.43011,53.781
0.42522,53.781
0.41935,53.585
0.41447,53.781
0.4086,54.563
0.40371,56.128
0.3998,58.67
0.39589,62.582
0.39101,67.666
0.38612,73.729
0.38025,79.987
0.37537,86.05
0.3695,91.721
0.36364,96.806
0.35679,101.3
0.34995,105.22
0.34409,107.95
0.33822,110.1
0.33431,111.28
0.32942,111.67
0.32356,111.28
0.31769,110.5
0.31085,109.32
0.30499,107.56
0.29912,105.61
0.29228,103.26
0.28543,100.52
0.27957,97.588
0.27273,94.655
0.26686,91.33
0.26197,87.81
0.25806,84.485
0.25318,81.16
0.24829,78.227
0.2434,75.489
0.23949,73.142
0.23754,71.186
0.23949,69.426
0.24633,68.253
0.26002,67.275
0.28935,66.493
0.32063,65.906
0.34115,65.711
0.36755,65.711
0.40176,65.515
0.43988,65.711
0.47898,65.711
0.51711,65.906
0.5523,65.906
0.58553,66.102
0.61388,66.297
0.63832,66.297
0.65885,66.297
0.67546,66.297
0.68719,66.102
0.69501,65.906
0.69795,65.906
0.6999,65.515
0.69892,65.124
0.69501,64.733
0.68915,64.537
0.67937,64.146
0.66862,63.755
0.65494,63.364
0.6393,62.973
0.62268,62.582
0.60508,61.995
0.58944,61.604
0.5738,61.017
0.55816,60.626
0.54252,60.039
0.52786,59.648
0.51417,59.257
0.50244,58.67
0.49071,58.279
0.47996,57.888
0.47116,57.301
0.46432,56.91
0.45748,56.519
0.45161,55.932
0.44673,55.541
0.44379,55.15
0.43988,54.759
0.43597,54.172
0.43206,53.977
0.42815,53.781
0.42326,53.585
0.41838,53.585
0.41349,53.781
0.4086,54.759
0.40371,56.715
0.39883,59.844
0.39492,64.342
0.39003,70.013
0.38514,76.271
0.38025,82.529
0.37537,88.592
0.36852,94.263
0.36266,99.348
0.35582,103.65
0.34897,107.17
0.34115,109.71
0.33431,111.47
0.32845,112.26
0.32454,112.45
0.32063,112.06
0.31672,111.08
0.31085,109.52
0.30596,107.76
0.3001,105.61
0.29326,103.26
0.28641,100.72
0.28055,97.784
0.2737,94.655
0.26784,91.134
0.261,87.81
0.25513,84.289
0.25122,80.965
0.24829,78.031
0.24438,75.293
0.24145,73.142
0.24047,71.186
0.2434,69.622
0.25024,68.449
0.26491,67.666
0.28641,67.08
0.31574,66.493
0.34995,66.297
0.38905,66.297
0.42424,66.297
0.45846,66.297
0.49658,66.493
0.54252,66.688
0.5826,66.884
0.60899,67.08
0.63441,67.275
0.65787,67.275
0.67742,67.275
0.69306,67.275
0.70577,67.275
0.71457,67.08
0.71945,66.884
0.72141,66.493
0.72043,66.297
0.71652,65.906
0.71065,65.515
0.70186,65.124
0.68524,64.733
0.66862,64.537
0.65591,64.146
0.64125,63.559
0.61975,63.168
0.59922,62.777
0.58553,62.386
0.57185,61.799
0.55914,61.408
0.54545,61.017
0.53177,60.43
0.51613,60.039
0.50244,59.648
0.49267,59.257
0.48192,58.67
0.47507,58.279
0.46921,57.888
0.46237,57.497
0.45748,56.91
0.45357,56.519
0.45064,56.128
0.44673,55.737
0.44282,55.541
0.43891,55.346
0.43402,55.346
0.42913,55.541
0.42424,56.323
0.41838,57.888
0.41349,60.821
0.40958,64.928
0.40469,70.404
0.40078,76.662
0.39687,83.116
0.39101,89.374
0.38612,95.241
0.38025,100.52
0.37439,105.02
0.36852,108.74
0.36266,111.47
0.35582,113.43
0.34995,114.6
0.34311,114.8
0.33724,114.6
0.33138,113.82
0.32649,112.45
0.3216,110.89
0.31672,109.13
0.31085,106.98
0.30499,104.43
0.29912,101.89
0.29326,98.957
0.28739,96.024
0.2825,92.699
0.27761,89.374
0.27273,86.05
0.26784,82.921
0.26491,79.987
0.26491,77.445
0.26588,75.293
0.27273,73.533
0.28446,71.969
0.30401,70.795
0.33138,69.818
0.36461,69.035
0.40274,68.644
0.44379,68.253
0.48583,68.057
0.52884,67.862
0.56891,67.862
0.60117,67.862
0.62854,68.057
0.65591,68.057
0.68133,68.253
0.70381,68.253
0.72239,68.253
0.73803,68.253
0.75073,68.057
0.75953,67.862
0.76442,67.666
0.76149,67.471
0.75269,67.08
0.74487,66.688
0.73705,66.297
0.72727,65.906
0.71652,65.515
0.70381,64.928
0.69013,64.537
0.67546,63.95
0.65982,63.559
0.64321,62.973
0.62757,62.582
0.6129,61.995
0.59922,61.604
0.58553,61.213
0.5738,60.626
0.56305,60.039
0.55327,59.648
0.54448,59.257
0.53568,58.67
0.52884,58.279
0.52199,57.888
0.51613,57.301
0.51026,56.91
0.50538,56.519
0.49951,56.128
0.4956,55.541
0.49071,55.346
0.48778,54.954
0.48387,54.563
0.47996,54.368
0.47605,54.563
0.47019,54.954
0.4653,56.128
0.45943,58.475
0.45357,62.386
0.4477,67.666
0.44184,73.924
0.43597,80.574
0.42913,87.223
0.42424,93.481
0.41935,99.153
0.41349,104.04
0.40665,108.34
0.39883,111.47
0.39198,113.82
0.38514,115.19
0.3783,115.78
0.37146,115.38
0.36461,114.8
0.35875,113.43
0.35191,111.86
0.34702,109.91
0.34311,107.56
0.33822,105.22
0.33236,102.67
0.32747,99.739
0.3216,96.61
0.31574,93.481
0.3089,89.961
0.30303,86.441
0.29717,83.116
0.29228,79.987
0.28935,77.054
0.28935,74.707
0.29423,72.555
0.30303,70.991
0.31769,69.622
0.34018,68.449
0.36852,67.666
0.40274,67.275
0.43988,66.884
0.47996,66.688
0.52004,66.688
0.55816,66.688
0.59433,66.688
0.62757,66.884
0.65298,67.08
0.67351,67.08
0.69306,67.275
0.71065,67.275
0.72532,67.275
0.73803,67.08
0.74682,67.08
0.75269,66.884
0.75464,66.493
0.75464,66.102
0.75171,65.906
0.74487,65.515
0.73607,64.928
0.72532,64.537
0.71261,64.146
0.69892,63.755
0.68328,63.168
0.66569,62.777
0.64712,62.386
0.62952,61.799
0.6129,61.408
0.59629,61.017
0.58065,60.43
0.56696,60.039
0.55327,59.452
0.54252,59.061
0.53275,58.475
0.52297,58.083
0.51417,57.692
0.50635,57.106
0.49853,56.715
0.49169,56.323
0.48485,55.932
0.47898,55.541
0.47312,54.954
0.46725,54.563
0.46139,54.172
0.45552,53.781
0.45064,53.585
0.44477,53.585
0.43891,53.585
0.43206,54.172
0.42522,55.541
0.41838,58.083
0.41251,61.995
0.40665,67.275
0.3998,73.338
0.39296,79.791
0.38612,86.245
0.37928,92.308
0.37341,97.784
0.36852,102.48
0.36266,106.58
0.35582,109.71
0.34897,111.86
0.34213,113.23
0.33529,113.62
0.32845,113.23
0.3216,112.45
0.31476,111.08
0.30694,109.32
0.3001,107.37
0.29521,105.02
0.29032,102.48
0.28446,99.739
0.27859,96.61
0.27175,93.481
0.26588,89.961
0.25904,86.441
0.25318,83.116
0.24731,79.987
0.24242,77.054
0.23851,74.511
0.23851,72.164
0.2434,70.404
0.2522,68.84
0.26588,67.666
0.28739,66.688
0.31476,66.102
0.34897,65.711
0.38612,65.319
0.4262,65.319
0.46628,65.124
0.50538,65.319
0.54154,65.319
0.57576,65.515
0.60606,65.711
0.62854,65.711
0.64614,65.906
0.66276,65.906
0.67742,65.906
0.68817,65.711
0.69697,65.711
0.70186,65.515
0.70381,65.319
0.70381,64.928
0.6999,64.537
0.69306,64.146
0.68328,63.755
0.67155,63.168
0.65982,62.973
0.64614,62.582
0.6305,62.19
0.6129,61.604
0.59531,61.213
0.57771,60.626
0.56109,60.235
0.54545,59.844
0.53079,59.257
0.51711,58.866
0.50538,58.279
0.49365,57.888
0.48387,57.497
0.47605,56.91
0.46823,56.519
0.46041,56.128
0.45357,55.541
0.44673,55.15
0.44184,54.759
0.43597,54.368
0.43109,53.977
0.4262,53.585
0.42033,53.194
0.41447,52.999
0.4086,52.803
0.40371,52.803
0.39883,53.194
0.39394,53.977
0.38807,55.932
0.38319,59.257
0.37732,63.95
0.37048,69.622
0.36461,75.88
0.35777,82.138
0.35191,88.201
0.34604,93.872
0.3392,98.761
0.33333,102.87
0.32845,106.19
0.32258,108.74
0.31672,110.3
0.30987,111.08
0.30401,111.08
0.29717,110.5
0.2913,109.32
0.28446,107.76
0.27761,105.8
0.27175,103.65
0.26686,101.3
0.261,98.566
0.25709,95.632
0.25415,92.503
0.24829,89.179
0.24242,85.854
0.23754,82.529
0.23167,79.205
0.22678,76.271
0.22287,73.729
0.22092,71.382
0.22287,69.426
0.23069,67.862
0.24438,66.688
0.26197,65.711
0.28446,64.928
0.31378,64.537
0.34897,64.146
0.38807,63.95
0.261,89.961
0.25611,86.636
0.2522,82.921
0.24731,79.596
0.24242,76.271
0.23851,73.142
0.2346,70.6
0.23167,68.253
0.23167,66.297
0.23656,64.733
0.24829,63.755
0.26393,62.777
0.28446,62.19
0.31378,61.995
0.35093,61.799
0.39296,61.799
0.43793,61.995
0.48289,62.19
0.5259,62.386
0.56403,62.777
0.59629,62.973
0.62268,63.364
0.64418,63.559
0.65787,63.755
0.66569,63.755
0.67253,63.755
0.67644,63.755
0.6784,63.559
0.67644,63.364
0.67155,63.168
0.66471,62.777
0.65494,62.582
0.64223,62.19
0.62659,61.799
0.60997,61.408
0.59433,60.821
0.57771,60.43
0.57283,59.844
0.5738,59.452
0.56305,58.866
0.54839,58.279
0.53079,57.888
0.51515,57.301
0.49951,56.91
0.4868,56.323
0.47605,55.932
0.46725,55.346
0.46041,54.954
0.45552,54.563
0.45161,53.977
0.44868,53.585
0.44575,53.194
0.44379,52.608
0.44184,52.216
0.43988,51.825
0.43891,51.63
0.43695,51.434
0.435,51.434
0.43206,51.825
0.42913,52.608
0.42522,54.368
0.42326,57.497
0.41935,62.19
0.41447,67.862
0.40958,74.316
0.40469,80.965
0.3998,87.419
0.39492,93.481
0.39101,98.566
0.38514,103.06
0.38025,106.39
0.37537,108.74
0.36852,110.3
0.36364,110.89
0.35973,110.69
0.35484,109.71
0.34995,108.34
0.34409,106.58
0.3392,104.43
0.33236,102.28
0.32649,99.739
0.32063,97.001
0.31476,94.068
0.3089,90.743
0.30303,87.419
0.29912,84.094
0.29521,80.769
0.29032,77.445
0.28543,74.316
0.28055,71.578
0.27761,69.231
0.27761,67.471
0.2825,65.906
0.29423,64.733
0.31476,63.755
0.34409,63.168
0.38123,62.973
0.42424,62.777
0.4653,62.777
0.50635,62.973
0.5523,63.168
0.59824,63.364
0.64125,63.755
0.67937,63.95
0.71163,64.342
0.73803,64.537
0.75855,64.537
0.77419,64.733
0.78495,64.733
0.79179,64.537
0.79374,64.537
0.79277,64.342
0.78983,63.95
0.78397,63.755
0.77517,63.364
0.76344,62.973
0.7478,62.582
0.73021,62.19
0.71163,61.604
0.6911,61.213
0.67058,60.821
0.65103,60.235
0.63148,59.844
0.61388,59.257
0.59824,58.866
0.58162,58.279
0.56598,57.888
0.5523,57.497
0.53959,56.91
0.52884,56.519
0.51906,56.128
0.51222,55.737
0.50635,55.346
0.50244,54.954
0.49853,54.563
0.4956,54.172
0.49365,53.585
0.49169,53.194
0.48974,52.999
0.4868,52.803
0.48485,52.803
0.48192,53.194
0.47898,53.977
0.47605,56.128
0.47116,59.648
0.46725,64.342
0.46237,70.209
0.45748,76.662
0.45455,83.507
0.45064,89.961
0.44673,95.828
0.44282,100.91
0.43793,105.02
0.43402,108.15
0.42815,110.3
0.42131,111.47
0.41544,111.86
0.40958,111.47
0.40469,110.5
0.3998,109.13
0.39589,107.37
0.39101,105.41
0.38612,103.06
0.38123,100.52
0.37537,97.784
0.37048,94.85
0.36559,91.721
0.35973,88.396
0.35288,84.876
0.34702,81.552
0.34018,78.227
0.33431,75.293
0.3304,72.751
0.32845,70.6
0.32942,68.644
0.33529,67.275
0.348,65.906
0.36852,65.124
0.39785,64.537
0.43597,64.146
0.48192,64.146
0.53275,64.146
0.58456,64.146
0.63636,64.342
0.68524,64.537
0.72434,64.537
0.75562,64.733
0.7869,64.928
0.81427,64.928
0.83773,64.928
0.8563,64.928
0.86901,64.928
0.87781,64.733
0.8827,64.537
0.88465,64.146
0.8827,63.95
0.87879,63.559
0.87097,62.973
0.86119,62.777
0.84848,62.19
0.83382,61.799
0.81623,61.408
0.79668,60.821
0.77615,60.43
0.75562,59.844
0.73509,59.452
0.71554,59.061
0.69795,58.475
0.68133,58.083
0.66569,57.497
0.65298,57.106
0.64125,56.519
0.63148,56.128
0.6217,55.541
0.61388,55.15
0.60704,54.759
0.60215,54.172
0.59824,53.781
0.59335,53.39
0.58944,52.803
0.58553,52.412
0.58065,52.216
0.57674,51.825
0.57185,51.63
0.56794,51.825
0.56305,52.216
0.55816,53.585
0.55425,55.932
0.54936,59.648
0.54448,64.928
0.53959,71.186
0.5347,77.836
0.52884,84.485
0.52199,90.743
0.51515,96.415
0.50929,101.3
0.5044,105.22
0.49853,107.95
0.49169,109.91
0.48485,110.89
0.47703,111.08
0.47019,110.5
0.46432,109.32
0.45846,107.76
0.45259,105.8
0.44575,103.65
0.43793,101.11
0.43109,98.37
0.42522,95.632
0.42033,92.503
0.41447,89.179
0.40762,85.854
0.40078,82.334
0.39394,78.814
0.38514,75.685
0.37732,72.751
0.37048,70.209
0.36657,68.057
0.36755,66.297
0.37439,64.928
0.38612,63.95
0.40469,63.364
0.43402,62.973
0.47214,62.582
0.51711,62.582
0.56794,62.582
0.62072,62.777
0.67253,62.973
0.72043,63.168
0.7654,63.364
0.80352,63.559
0.83578,63.755
0.85826,63.95
0.8739,64.146
0.88759,64.146
0.89834,64.146
0.90518,63.95
0.90811,63.755
0.90909,63.364
0.90616,62.973
0.89932,62.582
0.89052,62.19
0.87781,61.799
0.86119,61.408
0.84164,61.017
0.82209,60.626
0.80156,60.039
0.77908,59.648
0.75562,59.257
0.73314,58.67
0.71163,58.279
0.6911,57.692
0.67253,57.301
0.6305,56.715
0.57771,56.128
0.54545,55.737
0.52493,55.346
0.51222,54.759
0.50342,54.368
0.49658,53.781
0.49071,53.39
0.4868,52.803
0.48192,52.412
0.47801,52.021
0.4741,51.63
0.47116,51.434
0.46725,51.239
0.46432,51.043
0.45943,51.239
0.45455,52.021
0.44966,53.39
0.44575,56.128
0.43988,60.039
0.43402,65.319
0.42815,71.578
0.42229,78.031
0.41642,84.485
0.41056,90.352
0.40371,95.437
0.39785,99.935
0.39198,103.46
0.38612,106
0.38123,107.56
0.37634,108.15
0.37146,108.15
0.36657,107.37
0.3607,106
0.35484,104.24
0.348,102.28
0.34115,99.739
0.33431,97.197
0.32845,94.459
0.32258,91.33
0.31672,88.005
0.31085,84.485
0.30596,81.16
0.30205,77.64
0.29619,74.511
0.2913,71.773
0.28739,69.231
0.2825,67.275
0.27957,65.515
0.28055,64.146
0.28543,62.973
0.29717,62.386
0.31476,61.799
0.34018,61.604
0.36657,61.408
0.39492,61.408
0.43011,61.604
0.46725,61.799
0.50635,61.995
0.54252,62.19
0.57674,62.386
0.60704,62.777
0.63245,62.777
0.65494,62.973
0.67253,62.973
0.68524,62.973
0.69404,62.973
0.69795,62.777
0.69795,62.582
0.69599,62.19
0.6911,61.995
0.68524,61.604
0.67644,61.213
0.66569,60.821
0.652,60.43
0.63734,60.039
0.62072,59.648
0.60313,59.061
0.58553,58.67
0.56989,58.083
0.55523,57.692
0.54057,57.106
0.5259,56.715
0.51222,56.128
0.49951,55.737
0.48778,55.15
0.47801,54.759
0.46921,54.172
0.46237,53.781
0.4565,53.39
0.45064,52.803
0.44379,52.412
0.43988,52.021
0.43597,51.434
0.43304,51.239
0.43011,50.847
0.4262,50.652
0.42229,50.652
0.41935,50.847
0.41447,51.434
0.41056,52.803
0.40567,55.346
0.40176,59.452
0.39785,64.537
0.39394,70.6
0.39003,76.858
0.38514,83.116
0.38025,88.788
0.37439,93.872
0.36852,98.175
0.36266,101.69
0.35679,104.24
0.35093,105.8
0.34506,106.78
0.3392,106.78
0.33333,106
0.32747,104.82
0.32258,103.26
0.31867,101.11
0.31378,98.957
0.30792,96.415
0.30205,93.481
0.29717,90.352
0.2913,87.027
0.28543,83.507
0.28055,80.183
0.27468,76.858
0.26882,73.729
0.26295,70.795
0.25806,68.449
0.25513,66.297
0.25318,64.537
0.2522,63.364
0.25611,62.386
0.26588,61.604
0.28152,61.213
0.30499,61.017
0.33627,60.821
0.37243,61.017
0.41153,61.213
0.45161,61.408
0.49169,61.408
0.52493,61.799
0.55327,61.995
0.58162,62.19
0.60802,62.386
0.6305,62.582
0.65005,62.582
0.66471,62.582
0.67644,62.386
0.68426,62.19
0.68719,61.995
0.68817,61.799
0.68524,61.408
0.67937,61.213
0.67058,60.821
0.65885,60.43
0.64516,60.039
0.62952,59.648
0.6129,59.257
0.59433,58.67
0.57674,58.279
0.55914,57.692
0.54252,57.301
0.52688,56.91
0.51124,56.323
0.49756,55.737
0.4868,55.346
0.47605,54.954
0.46628,54.368
0.45748,53.977
0.44966,53.39
0.44282,52.999
0.43793,52.608
0.43402,52.216
0.43109,51.63
0.42815,51.239
0.42522,50.847
0.42229,50.652
0.41935,50.456
0.41642,50.456
0.41251,50.652
0.4086,51.63
0.40371,53.194
0.40078,56.128
0.39687,60.235
0.39198,65.711
0.38807,71.773
0.38319,78.227
0.37732,84.485
0.37243,90.157
0.36755,95.046
0.36364,99.348
0.35973,102.67
0.35484,105.02
0.34995,106.58
0.34409,107.17
0.33724,106.98
0.33138,106.19
0.32551,105.02
0.31867,103.26
0.31281,101.3
0.30694,99.153
0.30108,96.61
0.29717,93.872
0.29228,90.743
0.28739,87.614
0.28152,84.289
0.27468,80.769
0.26784,77.445
0.26197,74.316
0.25709,71.578
0.25318,69.035
0.25024,66.884
0.24829,65.124
0.24927,63.95
0.25415,62.777
0.26295,62.19
0.27957,61.604
0.30303,61.408
0.33431,61.213
0.37146,61.213
0.41153,61.408
0.45357,61.604
0.49462,61.799
0.5347,61.995
0.57087,62.386
0.60411,62.582
0.63245,62.582
0.65298,62.777
0.66862,62.777
0.68328,62.777
0.69404,62.777
0.70186,62.582
0.70674,62.19
0.7087,61.995
0.70772,61.604
0.70381,61.408
0.69697,61.017
0.68719,60.626
0.67546,60.235
0.66178,59.844
0.64809,59.452
0.63148,58.866
0.6129,58.475
0.59433,58.083
0.57674,57.497
0.55914,56.91
0.5435,56.519
0.52884,55.932
0.51515,55.541
0.50342,55.15
0.49267,54.563
0.48289,54.172
0.47605,53.781
0.47019,53.194
0.47019,52.803
0.4741,52.412
0.47507,52.021
0.47312,51.434
0.47116,51.239
0.46823,50.847
0.4653,50.652
0.46139,50.652
0.4565,51.043
0.45259,52.021
0.44868,53.977
0.44575,57.106
0.44184,61.799
0.43695,67.471
0.43206,73.729
0.42717,80.183
0.42229,86.245
0.41838,91.917
0.41251,96.806
0.40762,100.72
0.40274,103.85
0.39687,106
0.39198,107.37
0.3871,107.76
0.38221,107.56
0.37732,106.78
0.37048,105.41
0.36461,103.85
0.35875,101.89
0.35386,99.544
0.348,97.197
0.34213,94.263
0.33627,91.33
0.3304,88.201
0.32356,84.876
0.31867,81.356
0.31476,78.031
0.3089,74.902
0.30401,72.164
0.29814,69.622
0.29423,67.471
0.29228,65.906
0.29423,64.537
0.30108,63.559
0.31378,62.777
0.33333,62.386
0.35973,61.995
0.39198,61.995
0.42326,62.19
0.45357,62.386
0.48974,62.582
0.52688,62.777
0.56403,62.973
0.59824,63.168
0.62952,63.559
0.65689,63.755
0.68035,63.755
0.69892,63.95
0.71359,63.755
0.72532,63.755
0.73118,63.559
0.73412,63.364
0.73509,62.973
0.73412,62.777
0.73021,62.386
0.72434,62.19
0.71457,61.799
0.70283,61.408
0.68817,61.017
0.67253,60.626
0.65591,60.039
0.63832,59.648
0.62072,59.061
0.60508,58.67
0.5914,58.279
0.57674,57.692
0.56305,57.106
0.54936,56.715
0.53666,56.128
0.5259,55.737
0.51613,55.346
0.50831,54.954
0.50049,54.563
0.49462,53.977
0.49071,53.781
0.4868,53.194
0.48387,52.803
0.47996,52.608
0.47605,52.412
0.47214,52.216
0.46725,52.412
0.46334,53.194
0.45943,54.563
0.45455,57.106
0.45064,61.213
0.44575,66.297
0.43988,72.555
0.43402,79.009
0.42913,85.267
0.42424,91.134
0.41935,96.415
0.41447,100.91
0.4086,104.43
0.40371,106.98
0.39883,108.74
0.39296,109.52
0.3871,109.71
0.38123,109.13
0.37439,107.95
0.36852,106.58
0.36266,104.82
0.35875,102.67
0.35386,100.52
0.34897,97.979
0.34311,95.437
0.33724,92.503
0.3304,89.374
0.32551,86.05
0.31965,82.725
0.31476,79.596
0.3089,76.662
0.30401,73.924
0.29912,71.773
0.29619,69.818
0.29619,68.057
0.29912,66.884
0.30694,65.906
0.3216,65.319
0.34311,64.928
0.37146,64.733
0.40567,64.733
0.44282,64.733
0.48289,64.928
0.52297,65.124
0.56109,65.319
0.59238,65.711
0.61877,65.906
0.64418,65.906
0.66862,66.102
0.68915,66.102
0.70577,66.102
0.71945,65.906
0.72825,65.906
0.73509,65.515
0.739,65.319
0.739,64.928
0.73607,64.537
0.73118,64.342
0.72434,63.95
0.71554,63.364
0.70479,62.973
0.69208,62.386
0.67742,61.799
0.66178,61.408
0.64516,60.821
0.62854,60.235
0.6129,59.648
0.59726,59.061
0.5826,58.475
0.56989,58.083
0.55914,57.497
0.55034,56.91
0.54154,56.519
0.53372,56.128
0.52688,55.737
0.52102,55.346
0.51613,54.954
0.51124,54.368
0.50733,53.977
0.50342,53.585
0.50049,53.39
0.49658,52.999
0.49365,52.999
0.49071,53.194
0.48778,53.781
0.48485,55.346
0.48094,58.279
0.47703,62.777
0.47214,68.449
0.46725,74.902
0.46334,81.356
0.45943,87.81
0.45455,93.677
0.45064,98.957
0.44575,103.06
0.44184,106.39
0.43695,108.74
0.43109,110.3
0.4262,110.89
0.42033,110.69
0.41447,109.91
0.40762,108.74
0.40176,107.17
0.39492,105.41
0.38905,103.26
0.38319,100.91
0.37634,98.37
0.37146,95.632
0.36657,92.503
0.3607,89.374
0.35582,86.05
0.34995,82.725
0.34409,79.596
0.33822,76.467
0.33333,73.729
0.32845,71.382
0.32649,69.426
0.32747,67.862
0.33333,66.493
0.34506,65.711
0.35973,64.928
0.37928,64.537
0.40665,64.342
0.43988,64.342
0.47703,64.342
0.51711,64.342
0.55621,64.537
0.59433,64.733
0.62952,64.928
0.66178,65.124
0.68915,65.124
0.71163,65.319
0.72727,65.319
0.739,65.124
0.74878,65.124
0.7566,64.928
0.76149,64.537
0.76344,64.342
0.76246,63.95
0.75855,63.559
0.75367,63.168
0.74487,62.973
0.73412,62.386
0.72043,61.995
0.70577,61.604
0.69013,61.213
0.67546,60.626
0.65787,60.235
0.64125,59.648
0.62366,59.257
0.60802,58.67
0.59238,58.279
0.57771,57.692
0.565,57.106
0.55327,56.715
0.54252,56.128
0.53275,55.737
0.52493,55.346
0.51808,54.759
0.51222,54.368
0.50733,53.781
0.50244,53.39
0.49756,52.999
0.49462,52.608
0.49071,52.412
0.4868,52.216
0.47703,52.216
0.46334,52.803
0.45357,53.781
0.44575,55.737
0.44086,59.257
0.43597,63.95
0.43206,69.818
0.42717,76.271
0.42229,82.921
0.41642,89.179
0.41056,94.85
0.40567,99.739
0.3998,103.85
0.39394,106.98
0.3871,108.93
0.38025,110.1
0.37537,110.5
0.37048,110.1
0.36559,109.13
0.35973,107.76
0.35386,105.8
0.348,103.85
0.34311,101.3
0.33724,98.761
0.33138,96.024
0.32551,92.894
0.31965,89.57
0.31281,86.245
0.30694,82.725
0.30205,79.4
0.29814,76.271
0.29326,73.533
0.28837,70.991
0.28446,69.035
0.2825,67.275
0.28348,65.906
0.28935,64.928
0.30108,64.342
0.31867,63.755
0.34311,63.559
0.37243,63.559
0.40176,63.559
0.42913,63.755
0.46237,63.95
0.4956,64.146
0.52786,64.342
0.55816,64.537
0.58456,64.537
0.60704,64.733
0.62659,64.733
0.64223,64.733
0.65396,64.733
0.66276,64.537
0.6696,64.537
0.67155,64.146
0.6696,63.95
0.66667,63.559
0.6608,63.168
0.65396,62.777
0.64418,62.386
0.63245,61.799
0.61877,61.408
0.60411,61.017
0.58847,60.43
0.57283,60.039
0.55718,59.452
0.54252,59.061
0.52981,58.475
0.51613,58.083
0.5044,57.497
0.49267,56.91
0.48192,56.519
0.47214,55.932
0.46334,55.541
0.4565,55.15
0.44966,54.563
0.44379,54.172
0.43891,53.781
0.435,53.194
0.43206,52.803
0.42913,52.608
0.4262,52.412
0.42229,52.216
0.41838,52.412
0.41447,52.999
0.41056,53.977
0.40665,56.128
0.40176,59.648
0.39687,64.342
0.39198,70.013
0.3871,76.271
0.38319,82.529
0.37928,88.396
0.37537,93.677
0.37048,98.37
0.36461,102.09
0.35875,104.82
0.35288,106.78
0.34702,107.95
0.34213,108.15
0.33627,107.76
0.33138,106.98
0.32551,105.61
0.31965,103.65
0.31476,101.5
0.31085,98.957
0.30596,96.219
0.30108,93.286
0.29521,90.157
0.28935,86.636
0.28446,83.116
0.27859,79.596
0.2737,76.467
0.26882,73.533
0.26393,70.795
0.25904,68.644
0.25611,66.884
0.25513,65.515
0.25709,64.342
0.26197,63.559
0.27273,62.973
0.28935,62.777
0.31183,62.777
0.3392,62.777
0.37048,62.973
0.40469,62.973
0.43988,63.364
0.4741,63.559
0.50147,63.95
0.52493,64.146
0.54936,64.342
0.57087,64.537
0.58944,64.537
0.60508,64.537
0.61681,64.537
0.62561,64.342
0.63148,63.95
0.63343,63.755
0.63245,63.364
0.62757,63.168
0.62072,62.777
0.6129,62.386
0.60313,61.995
0.5914,61.408
0.57869,61.213
0.56403,60.626
0.54936,60.235
0.53372,59.844
0.51906,59.257
0.5044,58.866
0.48974,58.279
0.47605,57.888
0.46432,57.301
0.45455,56.715
0.44575,56.323
0.43793,55.737
0.43109,55.346
0.42522,54.954
0.42033,54.368
0.41642,53.977
0.41251,53.585
0.4086,53.194
0.40567,52.803
0.40274,52.608
0.40078,52.412
0.39883,52.412
0.39687,52.803
0.39492,53.781
0.39296,55.541
0.39003,58.475
0.38514,62.973
0.38123,68.449
0.37634,74.707
0.37146,81.16
0.36657,87.223
0.36168,92.699
0.35679,97.784
0.35191,101.89
0.348,105.02
0.34409,107.37
0.34018,108.74
0.33529,109.32
0.3304,109.13
0.32454,108.34
0.31965,107.17
0.31378,105.61
0.30792,103.46
0.30205,101.11
0.29619,98.37
0.29032,95.437
0.28543,92.308
0.28152,88.983
0.27957,85.463
0.27566,81.943
0.27175,78.422
0.26686,75.293
0.26197,72.555
0.25806,70.209
0.25415,68.253
0.25122,66.688
0.2522,65.515
0.25709,64.537
0.26686,63.95
0.27957,63.559
0.29619,63.364
0.32063,63.364
0.34995,63.559
0.38319,63.755
0.41838,63.95
0.45357,64.342
0.48778,64.537
0.51906,64.733
0.54643,64.928
0.57087,65.124
0.5914,65.319
0.60802,65.319
0.61877,65.124
0.62561,65.124
0.63148,64.928
0.63539,64.537
0.63636,64.342
0.63343,63.95
0.62952,63.755
0.6217,63.364
0.6129,62.973
0.60117,62.386
0.58749,61.995
0.57283,61.408
0.55914,61.017
0.54545,60.43
0.52981,60.039
0.51515,59.452
0.50049,58.866
0.4868,58.475
0.4741,57.888
0.46237,57.497
0.45161,56.91
0.44282,56.519
0.435,55.932
0.42815,55.541
0.42229,55.15
0.41838,54.563
0.41447,54.172
0.41153,53.781
0.4086,53.39
0.40567,53.194
0.40371,52.999
0.40078,52.999
0.39785,53.194
0.39492,53.977
0.39198,55.541
0.38807,58.475
0.38416,62.777
0.38025,68.057
0.37634,74.316
0.37243,80.965
0.37439,87.223
0.3783,93.09
0.37732,98.37
0.37341,102.67
0.3695,106.19
0.36461,108.74
0.35875,110.3
0.35386,111.08
0.348,111.28
0.34311,110.69
0.33822,109.52
0.33529,107.95
0.3304,106
0.32454,103.85
0.31867,101.3
0.31281,98.566
0.30596,95.437
0.3001,92.112
0.29423,88.788
0.28837,85.072
0.2825,81.552
0.27664,78.227
0.27175,75.293
0.26882,72.555
0.26491,70.404
0.26197,68.644
0.26197,67.08
0.26491,65.906
0.27273,65.319
0.28641,64.733
0.30694,64.537
0.33529,64.342
0.36755,64.537
0.40371,64.537
0.44086,64.733
0.4741,65.124
0.50342,65.319
0.53275,65.711
0.56109,65.906
0.58651,66.102
0.60802,66.102
0.62561,66.297
0.6393,66.102
0.64907,66.102
0.65494,65.906
0.65787,65.711
0.65885,65.515
0.65591,65.124
0.65103,64.733
0.64321,64.537
0.63245,63.95
0.62072,63.559
0.60606,63.168
0.59042,62.777
0.57283,62.19
0.55523,61.799
0.53763,61.213
0.52004,60.821
0.5044,60.235
0.48876,59.648
0.47605,59.061
0.4653,58.67
0.45552,58.083
0.44575,57.692
0.43793,57.106
0.43109,56.715
0.42522,56.323
0.42033,55.737
0.41544,55.346
0.41153,54.954
0.40762,54.563
0.40469,54.172
0.40274,53.977
0.40078,53.977
0.39883,54.368
0.39589,54.954
0.39296,56.519
0.38905,59.257
0.38514,63.364
0.38123,68.84
0.37732,75.098
0.37341,81.747
0.36852,88.396
0.36364,94.655
0.35875,99.935
0.35484,104.63
0.35191,108.54
0.34702,111.28
0.34213,113.23
0.33724,114.21
0.33236,114.41
0.32845,113.82
0.32356,112.84
0.31769,111.28
0.31183,109.52
0.30596,107.37
0.3001,104.82
0.29619,102.28
0.29228,99.348
0.28837,96.024
0.28348,92.699
0.27761,89.179
0.27273,85.658
0.26784,82.138
0.26295,79.009
0.25904,76.271
0.25513,73.729
0.2522,71.773
0.2522,70.209
0.25611,68.84
0.26295,67.862
0.27566,67.275
0.29521,66.884
0.3216,66.884
0.35386,66.884
0.38905,66.884
0.42717,67.08
0.4653,67.471
0.50244,67.666
0.53568,68.057
0.565,68.449
0.58944,68.84
0.60802,69.035
0.62072,69.231
0.63148,69.231
0.64027,69.231
0.64614,69.231
0.64907,69.035
0.65005,68.644
0.64809,68.253
0.64321,67.862
0.63636,67.275
0.62561,66.688
0.61388,66.102
0.60117,65.515
0.58847,64.928
0.57283,64.342
0.55621,63.755
0.53959,63.168
0.52297,62.582
0.50733,61.995
0.49267,61.604
0.47898,61.017
0.46628,60.626
0.45552,60.039
0.44673,59.648
0.43988,59.257
0.435,58.866
0.43011,58.475
0.42717,58.083
0.42326,57.692
0.42033,57.106
0.41838,56.91
0.4174,56.519
0.41544,56.323
0.41349,56.323
0.41153,56.519
0.4086,57.106
0.40665,58.475
0.40469,61.017
0.40274,64.733
0.40078,70.209
0.39883,76.467
0.39492,83.312
0.39101,90.352
0.3871,96.61
0.38221,102.48
0.37634,107.56
0.37146,111.67
0.36755,114.8
0.36266,116.75
0.35875,117.73
0.35484,117.93
0.35191,117.54
0.348,116.36
0.34311,114.8
0.33822,112.84
0.33333,110.69
0.32942,108.15
0.32454,105.41
0.32063,102.48
0.31574,99.348
0.31085,95.828
0.30596,92.308
0.30205,88.788
0.29912,85.267
0.29521,81.943
0.2913,79.009
0.28739,76.271
0.28446,74.12
0.28446,72.36
0.28837,70.991
0.29717,70.209
0.31183,69.426
0.33333,69.035
0.3607,68.84
0.39394,68.84
0.42522,68.84
0.4565,69.035
0.49071,69.231
0.5259,69.426
0.55816,69.622
0.58749,69.818
0.6129,70.013
0.63343,70.013
0.64907,70.013
0.6608,70.013
0.66862,69.818
0.67253,69.622
0.67449,69.231
0.67351,69.035
0.67155,68.644
0.66764,68.253
0.6608,67.666
0.65298,67.275
0.64223,66.884
0.62952,66.297
0.61486,65.906
0.59922,65.515
0.5826,64.928
0.56696,64.342
0.55034,63.755
0.53666,63.364
0.52395,62.777
0.51124,62.19
0.49951,61.604
0.48876,61.213
0.47996,60.626
0.47214,60.039
0.4653,59.648
0.45943,59.061
0.45552,58.67
0.45161,58.083
0.44868,57.692
0.44673,57.301
0.44477,56.91
0.44282,56.715
0.43988,56.519
0.43793,56.323
0.435,56.715
0.43206,57.301
0.42815,59.061
0.42522,61.995
0.42229,66.493
0.41838,72.164
0.41544,78.814
0.41056,85.854
0.40665,92.894
0.40371,99.348
0.3998,105.02
0.39589,109.91
0.39198,113.62
0.3871,116.36
0.38221,118.12
0.37732,118.9
0.37243,118.9
0.37243,118.12
0.37439,116.95
0.37146,115.19
0.36852,113.04
0.36559,110.5
0.35973,107.95
0.35386,104.82
0.348,101.5
0.34213,98.175
0.33627,94.459
0.32942,90.548
0.32356,86.832
0.31672,83.312
0.31085,79.987
0.30596,77.054
0.30108,74.707
0.29912,72.751
0.30108,71.186
0.30499,70.013
0.31476,69.035
0.3304,68.644
0.35484,68.253
0.38612,68.253
0.42326,68.253
0.4653,68.449
0.50831,68.644
0.55034,69.035
0.58847,69.426
0.61975,69.622
0.64418,70.013
0.66764,70.209
0.68817,70.209
0.70381,70.209
0.71457,70.209
0.72141,70.013
0.72434,69.818
0.72336,69.622
0.71945,69.231
0.71359,68.84
0.70479,68.449
0.69404,68.057
0.68328,67.471
0.67058,67.08
0.65494,66.493
0.63734,65.906
0.61779,65.515
0.59824,64.928
0.57771,64.342
0.55914,63.755
0.54154,63.168
0.52493,62.582
0.50929,61.995
0.4956,61.604
0.48485,61.017
0.47605,60.43
0.46823,59.844
0.46139,59.452
0.45552,58.866
0.45161,58.475
0.44673,58.083
0.44282,57.497
0.43988,57.106
0.43695,56.91
0.43402,56.519
0.43109,56.519
0.42815,56.715
0.4262,57.106
0.42424,58.279
0.42229,60.43
0.41935,64.146
0.41642,69.035
0.41153,75.098
0.40665,81.747
0.40176,88.592
0.39589,95.241
0.39101,101.3
0.38612,106.78
0.38123,111.28
0.37732,114.6
0.37341,116.95
0.36852,118.32
0.36266,118.71
0.35679,118.32
0.35093,117.14
0.34506,115.58
0.33822,113.62
0.33236,111.08
0.32551,108.34
0.31965,105.41
0.31378,102.09
0.30987,98.566
0.30596,94.85
0.30108,90.939
0.29619,87.027
0.29032,83.312
0.28446,79.791
0.27859,76.858
0.2737,74.316
0.26979,72.164
0.26784,70.6
0.27077,69.231
0.27859,68.449
0.29326,67.666
0.31085,67.471
0.33333,67.471
0.36461,67.471
0.40078,67.666
0.44184,67.862
0.48192,68.253
0.52102,68.644
0.55718,69.035
0.58847,69.231
0.61486,69.622
0.63636,69.818
0.65298,69.818
0.66276,70.013
0.66764,69.818
0.6696,69.622
0.6696,69.426
0.66667,69.231
0.66178,69.035
0.65298,68.644
0.64223,68.253
0.62854,67.666
0.6129,67.275
0.59629,66.688
0.57771,66.102
0.55816,65.711
0.54057,65.124
0.52493,64.537
0.50929,63.755
0.49267,63.168
0.47703,62.777
0.46334,61.995
0.44966,61.408
0.43793,61.017
0.42815,60.43
0.41935,59.844
0.41153,59.452
0.40567,59.061
0.40274,58.475
0.3998,58.083
0.39687,57.497
0.39492,57.106
0.39296,56.91
0.39101,56.715
0.38905,56.715
0.38807,56.91
0.38612,57.301
0.38514,58.67
0.38319,61.213
0.38123,64.928
0.37732,70.209
0.37537,76.271
0.37341,82.921
0.3695,89.765
0.36559,96.415
0.3607,102.48
0.35582,107.76
0.35093,111.86
0.34604,115.19
0.34018,117.54
0.33529,118.71
0.3304,118.9
0.32551,118.32
0.32063,117.34
0.31769,115.58
0.31281,113.23
0.30694,110.89
0.30205,107.95
0.29717,104.82
0.2913,101.3
0.28543,97.784
0.28055,93.872
0.27566,89.961
0.27077,86.05
0.26588,82.529
0.261,79.205
0.25709,76.271
0.25513,73.729
0.25318,71.773
0.25122,70.013
0.25318,68.84
0.261,68.057
0.2737,67.471
0.29521,67.275
0.32258,67.08
0.35679,67.275
0.39394,67.471
0.43304,67.862
0.46823,68.253
0.49951,68.644
0.53079,69.035
0.56109,69.426
0.58651,69.622
0.60802,69.818
0.62463,70.013
0.63636,70.013
0.64321,69.818
0.64614,69.818
0.64614,69.426
0.64125,69.231
0.63441,68.84
0.62659,68.449
0.61779,68.057
0.60508,67.666
0.59042,67.08
0.57478,66.688
0.55621,66.102
0.53763,65.515
0.51808,64.733
0.49951,64.146
0.48094,63.559
0.46432,62.973
0.44868,62.386
0.43695,61.799
0.42717,61.408
0.4174,60.821
0.40958,60.235
0.40176,59.844
0.39589,59.257
0.39101,58.67
0.38807,58.279
0.38612,57.888
0.38416,57.497
0.38416,57.106
0.38416,56.91
0.38416,56.715
0.38416,56.715
0.38514,57.106
0.38416,57.888
0.38319,59.844
0.38123,62.973
0.3783,67.471
0.37537,73.142
0.37146,79.791
0.36755,86.832
0.36364,93.677
0.35875,100.13
0.35484,106
0.35191,110.89
0.34995,114.8
0.34702,117.34
0.34311,119.1
0.3392,119.69
0.33431,119.49
0.32845,118.71
0.32258,117.34
0.31574,115.38
0.30987,113.04
0.30401,110.5
0.29814,107.56
0.29326,104.24
0.28935,100.72
0.28739,97.001
0.28446,93.286
0.28055,89.179
0.27566,85.463
0.27175,81.747
0.26686,78.618
0.26295,75.685
0.26002,73.338
0.25806,71.186
0.25904,69.622
0.26588,68.644
0.27566,67.666
0.2913,67.275
0.31476,67.08
0.34409,67.08
0.38025,67.275
0.41935,67.471
0.45943,67.666
0.50049,68.057
0.53959,68.449
0.5738,69.035
0.60313,69.231
0.62757,69.622
0.64614,69.818
0.65885,69.818
0.66667,69.818
0.67155,69.622
0.67351,69.426
0.67351,69.231
0.6696,69.035
0.66276,68.644
0.65298,68.253
0.64027,67.666
0.62561,67.275
0.60997,66.688
0.5914,66.102
0.57478,65.515
0.55816,64.928
0.53959,64.342
0.52004,63.755
0.50147,63.168
0.48485,62.582
0.46921,61.995
0.45552,61.408
0.44477,61.017
0.435,60.43
0.4262,59.844
0.41935,59.452
0.41349,58.866
0.40958,58.279
0.40762,57.888
0.40469,57.301
0.40274,56.91
0.40176,56.715
0.40078,56.323
0.3998,56.323
0.39785,56.519
0.39589,56.91
0.39492,58.083
0.39394,60.43
0.39198,64.146
0.39198,69.231
0.39101,75.685
0.38807,82.725
0.38416,89.765
0.37928,96.61
0.37341,102.67
0.36755,108.15
0.36266,112.65
0.35679,115.97
0.35288,118.32
0.348,119.69
0.34311,120.08
0.3392,119.69
0.33627,118.51
0.33138,116.95
0.32649,114.8
0.3216,112.45
0.31672,109.71
0.31281,106.58
0.30792,103.26
0.30303,99.739
0.29814,96.024
0.29228,92.112
0.28739,88.201
0.28152,84.485
0.27761,80.965
0.27566,77.64
0.27273,74.902
0.26979,72.555
0.26784,70.6
0.26979,69.231
0.27566,68.057
0.28837,67.471
0.3089,67.08
0.33724,66.884
0.37243,67.08
0.41349,67.275
0.45064,67.471
0.48583,67.862
0.52395,68.253
0.56109,68.84
0.59335,69.035
0.62268,69.426
0.64614,69.818
0.66373,70.013
0.67644,70.013
0.68524,70.013
0.68915,69.818
0.69013,69.622
0.68817,69.231
0.68328,69.035
0.67742,68.644
0.66764,68.057
0.65494,67.666
0.64027,67.275
0.62366,66.688
0.60508,66.102
0.58651,65.515
0.56696,64.928
0.54741,64.537
0.52786,63.755
0.50831,63.168
0.49267,62.777
0.47898,62.19
0.46628,61.604
0.45455,61.213
0.44379,60.626
0.435,60.235
0.42815,59.648
0.42229,59.257
0.41838,58.67
0.41544,58.279
0.41447,57.692
0.41349,57.301
0.41349,56.91
0.41349,56.91
0.41349,56.715
0.41251,56.91
0.41153,57.692
0.40958,59.257
0.40762,62.19
0.40371,66.493
0.40078,72.36
0.39687,79.009
0.39394,86.245
0.39101,93.286
0.3871,99.935
0.38514,105.8
0.38221,110.89
0.37928,114.99
0.37537,117.93
0.37243,119.69
0.36755,120.47
0.36168,120.47
0.35679,119.69
0.35093,118.32
0.34604,116.56
0.34115,114.41
0.33724,111.86
0.33236,109.13
0.32845,106.19
0.32551,103.06
0.32063,99.544
0.31672,96.024
0.31183,92.308
0.30792,88.592
0.30401,84.876
0.29912,81.356
0.29521,78.227
0.29032,75.489
0.28739,73.338
0.28739,71.578
0.29032,70.209
0.29814,69.231
0.31281,68.644
0.33431,68.253
0.36364,68.253
0.40078,68.253
0.44184,68.449
0.48387,68.84
0.52786,69.231
0.56891,69.622
0.60704,70.013
0.64027,70.209
0.66764,70.6
0.68719,70.795
0.70088,70.795
0.71163,70.991
0.71848,70.795
0.72336,70.6
0.72434,70.404
0.72336,70.013
0.71848,69.622
0.71163,69.231
0.70186,68.84
0.69013,68.253
0.67742,67.862
0.66373,67.275
0.64907,66.688
0.63343,65.906
0.61486,65.319
0.59629,64.733
0.57771,63.95
0.56012,63.364
0.5435,62.777
0.52884,61.995
0.51515,61.408
0.5044,61.017
0.49365,60.43
0.48583,59.844
0.48094,59.452
0.47703,58.866
0.4741,58.475
0.47214,58.083
0.47019,57.497
0.46921,57.106
0.46921,56.715
0.46823,56.519
0.46823,56.323
0.46823,56.519
0.46725,57.106
0.4653,58.475
0.46432,61.213
0.46432,65.515
0.46237,71.186
0.46041,78.031
0.4565,85.463
0.45259,92.699
0.4477,99.544
0.44184,105.61
0.43695,110.89
0.43304,115.19
0.42913,118.12
0.42522,120.08
0.42229,121.06
0.42033,120.86
0.4174,120.08
0.41349,118.71
0.4086,116.75
0.40371,114.6
0.39785,112.26
0.39296,109.52
0.38905,106.58
0.38416,103.46
0.37928,100.13
0.37439,96.61
0.37048,92.894
0.36657,89.179
0.36266,85.463
0.35777,81.943
0.35288,78.618
0.34897,75.88
0.34604,73.533
0.34506,71.578
0.34702,70.013
0.35484,69.035
0.3695,68.253
0.39492,67.862
0.42913,67.666
0.47019,67.471
0.50831,67.666
0.54643,68.057
0.58944,68.253
0.63343,68.644
0.67351,69.035
0.70968,69.231
0.73998,69.426
0.76442,69.622
0.78299,69.818
0.79668,69.622
0.8045,69.622
0.80841,69.231
0.80743,69.035
0.8045,68.84
0.79961,68.449
0.79374,67.862
0.78592,67.471
0.77615,66.884
0.76344,66.297
0.7478,65.906
0.73021,65.319
0.71163,64.733
0.6911,64.146
0.67058,63.559
0.65298,62.973
0.63636,62.386
0.61975,61.799
0.60313,61.213
0.58749,60.626
0.5738,60.039
0.56109,59.648
0.55132,59.257
0.54252,58.67
0.5347,58.279
0.52981,57.888
0.5259,57.301
0.52199,56.91
0.51906,56.519
0.51711,55.932
0.51515,55.541
0.5132,55.346
0.51124,55.15
0.50831,55.15
0.50538,55.541
0.50147,56.715
0.49658,58.866
0.49169,62.582
0.4868,67.666
0.48192,74.12
0.47801,81.356
0.47312,88.788
0.46823,95.828
0.46237,102.28
0.4565,107.76
0.45064,112.45
0.44575,115.78
0.43988,118.12
0.43402,119.49
0.42815,119.69
0.42229,119.1
0.41447,117.93
0.40762,116.17
0.40371,113.82
0.3998,111.47
0.39492,108.74
0.38905,105.61
0.38319,102.48
0.37732,99.153
0.37048,95.437
0.36364,91.721
0.35777,87.81
0.35093,84.094
0.34506,80.574
0.3392,77.249
0.33431,74.511
0.33138,72.164
0.32747,70.209
0.32649,68.644
0.3304,67.471
0.34018,66.884
0.35875,66.297
0.3871,66.102
0.42229,66.102
0.46432,66.297
0.50929,66.493
0.55523,66.688
0.59922,67.08
0.63539,67.471
0.66471,67.666
0.69404,68.057
0.71945,68.253
0.73998,68.449
0.75562,68.449
0.76735,68.449
0.77419,68.253
0.7781,68.057
0.7781,67.666
0.77419,67.275
0.76833,66.884
0.75953,66.493
0.74878,65.906
0.73607,65.515
0.72043,64.928
0.70283,64.537
0.68426,63.95
0.66471,63.364
0.64516,62.777
0.62463,62.19
0.60411,61.604
0.58456,61.017
0.56598,60.43
0.54839,60.039
0.5347,59.452
0.52395,58.866
0.5132,58.475
0.50342,57.888
0.4956,57.497
0.48876,56.91
0.48485,56.519
0.48192,55.932
0.47898,55.541
0.47801,55.15
0.47605,54.759
0.4741,54.563
0.47214,54.563
0.46921,54.563
0.46628,55.15
0.46237,56.323
0.45846,58.475
0.45455,62.386
0.45064,67.471
0.44575,73.924
0.44086,80.965
0.43597,87.81
0.43109,94.459
0.42522,100.52
0.41935,105.61
0.41544,109.91
0.41056,113.23
0.40567,115.38
0.40078,116.36
0.39589,116.56
0.38905,115.97
0.38319,114.6
0.37634,112.84
0.3695,110.69
0.36266,108.15
0.35679,105.22
0.34995,102.28
0.34506,98.957
0.34115,95.437
0.33627,91.721
0.33138,88.005
0.32551,84.094
0.31867,80.574
0.31183,77.054
0.30596,74.12
0.3001,71.578
0.29521,69.622
0.29326,67.862
0.29521,66.688
0.30205,65.711
0.31378,65.124
0.3304,64.928
0.35484,64.733
0.38807,64.928
0.42717,65.124
0.46921,65.515
0.31476,79.009
0.3089,76.076
0.30401,73.338
0.29912,71.186
0.29326,69.231
0.28935,67.862
0.28641,66.688
0.28837,65.906
0.29423,65.319
0.30596,64.928
0.32551,64.733
0.34995,64.733
0.38123,64.733
0.41153,65.124
0.44184,65.319
0.47703,65.319
0.51515,65.515
0.55327,65.711
0.59042,65.711
0.62463,65.711
0.65591,65.711
0.68426,65.711
0.70772,65.515
0.72825,65.124
0.74585,64.928
0.75953,64.537
0.76735,63.95
0.77126,63.559
0.77419,63.168
0.77419,62.777
0.77126,62.386
0.76637,61.799
0.75758,61.408
0.74585,61.017
0.73216,60.43
0.71652,59.844
0.6999,59.452
0.68328,59.061
0.66667,58.475
0.652,58.083
0.63539,57.497
0.61975,57.106
0.60411,56.519
0.59042,56.128
0.57674,55.737
0.56403,55.346
0.5523,54.954
0.54154,54.563
0.53177,53.977
0.52297,53.585
0.51515,53.194
0.50831,52.803
0.50147,52.412
0.49462,52.216
0.48778,52.021
0.48094,52.021
0.4741,52.412
0.46725,53.194
0.46041,54.954
0.45259,58.083
0.44477,62.582
0.43793,68.449
0.43109,75.098
0.42424,81.943
0.41838,88.396
0.41153,94.263
0.40371,99.348
0.39687,103.26
0.39003,106.39
0.38221,108.54
0.37439,109.52
0.36657,109.91
0.35875,109.52
0.35093,108.54
0.34409,107.17
0.33724,105.41
0.33138,103.26
0.32649,100.91
0.31965,98.175
0.31281,95.437
0.30596,92.308
0.29814,88.983
0.2913,85.658
0.28446,82.138
0.27761,78.814
0.27077,75.685
0.26393,72.947
0.25709,70.6
0.2522,68.644
0.24829,67.08
0.24438,65.906
0.24242,64.928
0.2434,64.342
0.25024,63.95
0.26197,63.755
0.27957,63.755
0.30401,63.755
0.33431,63.95
0.3695,64.342
0.40665,64.537
0.44575,64.537
0.47996,64.733
0.51026,64.928
0.5435,64.928
0.57674,64.928
0.60606,64.928
0.63343,64.928
0.65689,64.733
0.67546,64.342
0.69208,63.95
0.70381,63.559
0.71261,63.168
0.7175,62.777
0.71848,62.386
0.71652,61.995
0.71163,61.604
0.70381,61.213
0.69404,60.626
0.68133,60.235
0.66764,59.844
