0.35777,52.803
0.35386,52.608
0.35093,52.608
0.348,52.803
0.34604,53.585
0.34409,55.15
0.34213,58.279
0.3392,62.973
0.33724,69.035
0.33431,75.685
0.33138,82.138
0.32845,88.201
0.32551,93.872
0.3216,98.761
0.31867,102.67
0.31672,105.8
0.31476,107.76
0.31281,108.74
0.31085,108.93
0.30792,108.34
0.30499,107.17
0.30205,105.61
0.29912,103.65
0.29619,101.3
0.29228,98.566
0.28935,95.632
0.28543,92.308
0.2825,88.983
0.27859,85.267
0.27664,81.747
0.27468,78.422
0.27175,75.685
0.26882,73.142
0.26588,71.186
0.26295,69.622
0.26295,68.449
0.26588,67.471
0.27468,66.493
0.29032,65.906
0.31378,65.515
0.34604,65.319
0.37928,65.124
0.41447,64.928
0.45748,64.733
0.50244,64.733
0.54643,64.733
0.58847,64.733
0.62952,64.733
0.66276,64.537
0.68231,64.537
0.69892,64.342
0.70968,64.146
0.71554,63.755
0.7175,63.364
0.71457,63.168
0.7087,62.777
0.69892,62.386
0.68622,61.995
0.6696,61.604
0.65103,61.213
0.62952,61.017
0.60606,60.626
0.58162,60.235
0.55718,59.844
0.53372,59.452
0.51026,59.061
0.49169,58.67
0.4741,58.279
0.45748,57.888
0.44184,57.497
0.42815,56.91
0.41349,56.715
0.40176,56.128
0.39296,55.737
0.38514,55.346
0.37928,55.15
0.37341,54.759
0.3695,54.172
0.36657,53.781
0.36266,53.585
0.3607,53.39
0.35875,53.39
0.35582,53.585
0.35288,54.368
0.34995,56.128
0.348,59.257
0.34506,64.146
0.34115,70.404
0.33822,77.249
0.33529,84.094
0.33236,90.352
0.3304,96.219
0.32845,101.11
0.32649,105.41
0.32356,108.54
0.31965,110.69
0.31672,111.86
0.31378,111.86
0.31183,111.28
0.30792,110.3
0.30401,108.74
0.30205,106.78
0.29912,104.63
0.29619,102.09
0.29423,99.348
0.2913,96.415
0.28837,92.894
0.28543,89.374
0.2825,85.854
0.27957,82.529
0.27761,79.596
0.2737,76.858
0.27077,74.707
0.26979,72.947
0.26979,71.382
0.27664,70.404
0.28641,69.426
0.29717,68.84
0.31769,68.449
0.35875,68.057
0.40274,67.862
0.43695,67.666
0.47996,67.666
0.53568,67.666
0.58553,67.471
0.61877,67.471
0.65103,67.471
0.68328,67.275
0.70772,67.275
0.72043,67.08
0.72825,66.884
0.73314,66.493
0.73412,66.297
0.73216,65.906
0.72923,65.515
0.7175,65.124
0.69892,64.733
0.67937,64.342
0.66373,64.146
0.64418,63.755
0.61877,63.364
0.59629,62.973
0.5738,62.582
0.55034,62.19
0.52884,61.799
0.50831,61.408
0.48974,61.017
0.47312,60.626
0.46139,60.039
0.44966,59.648
0.43695,59.061
0.42717,58.67
0.41935,58.279
0.41349,57.888
0.4086,57.497
0.40371,56.91
0.39883,56.519
0.39394,56.128
0.39003,55.932
0.3871,55.737
0.38416,55.541
0.38123,55.932
0.3783,56.715
0.37537,58.475
0.37243,61.995
0.37048,67.275
0.36852,73.729
0.36559,80.965
0.36266,87.81
0.35973,94.459
0.35777,100.13
0.35484,105.22
0.35191,109.32
0.34995,112.26
0.34702,114.21
0.34311,114.99
0.34018,114.8
0.33627,113.82
0.33431,112.45
0.33236,110.69
0.32942,108.74
0.32551,106.39
0.32258,103.85
0.31867,101.11
0.31574,97.979
0.31183,94.655
0.3089,91.134
0.30499,87.614
0.30205,84.289
0.29814,81.16
0.29619,78.422
0.29423,76.271
0.29423,74.316
0.29717,72.751
0.30596,71.578
0.3216,70.6
0.34604,70.013
0.37928,69.426
0.41935,69.035
0.4653,68.84
0.5132,68.644
0.56109,68.449
0.60606,68.253
0.64125,68.253
0.6696,68.253
0.69599,68.057
0.7175,67.862
0.73509,67.471
0.74585,67.275
0.75269,66.884
0.75464,66.493
0.75171,66.102
0.74487,65.711
0.73509,65.319
0.72141,64.928
0.70577,64.537
0.68915,63.95
0.6696,63.559
0.64712,63.168
0.62268,62.777
0.59824,62.386
0.57283,61.995
0.54839,61.604
0.52493,61.213
0.50342,60.821
0.48387,60.235
0.46628,59.844
0.45161,59.452
0.43988,58.866
0.42815,58.475
0.4174,57.888
0.4086,57.497
0.40078,56.91
0.39296,56.519
0.3871,56.128
0.38221,55.737
0.37634,55.346
0.37243,54.954
0.36755,54.563
0.36364,54.368
0.35973,54.368
0.35679,54.954
0.35386,56.128
0.34995,58.475
0.34604,62.777
0.34115,68.644
0.33724,75.489
0.33333,82.529
0.32942,89.374
0.32551,95.632
0.3216,101.11
0.31769,105.8
0.31476,109.52
0.31183,111.86
0.3089,113.23
0.30596,113.82
0.30205,113.43
0.29814,112.26
0.29423,110.69
0.29032,108.93
0.28641,106.58
0.2825,104.24
0.27761,101.3
0.2737,98.37
0.26979,95.046
0.26686,91.525
0.26491,87.81
0.26197,84.289
0.25806,80.769
0.25415,78.031
0.25122,75.489
0.24927,73.338
0.24927,71.773
0.25513,70.404
0.26686,69.426
0.28739,68.644
0.31672,68.057
0.348,67.471
0.38319,67.275
0.4262,67.08
0.4741,66.884
0.52199,66.688
0.56696,66.688
0.60802,66.493
0.64321,66.493
0.67058,66.297
0.69208,66.102
0.70674,66.102
0.71554,65.906
0.71945,65.515
0.71945,65.319
0.71457,64.733
0.70674,64.537
0.69599,64.146
0.68133,63.559
0.66373,63.168
0.64321,62.777
0.62072,62.386
0.59726,61.995
0.57185,61.604
0.54643,61.213
0.52199,60.821
0.50049,60.43
0.48094,60.039
0.46237,59.844
0.44379,59.257
0.42717,58.866
0.41251,58.279
0.3998,57.888
0.38807,57.301
0.37928,56.91
0.37048,56.323
0.36364,55.932
0.35777,55.541
0.35288,55.15
0.34897,54.563
0.34702,54.172
0.34409,53.977
0.34115,53.781
0.33822,53.585
0.33529,53.585
0.33138,53.977
0.32845,55.15
0.32551,57.301
0.3216,60.821
0.31867,66.102
0.31476,72.36
0.31183,79.009
0.30987,85.463
0.30792,91.33
0.30499,96.61
0.30205,100.91
0.29912,104.24
0.29619,106.78
0.29326,108.15
0.29032,108.74
0.28641,108.54
0.28348,107.37
0.27957,106
0.27664,104.04
0.2737,101.89
0.27175,99.153
0.26882,96.219
0.26588,93.09
0.26197,89.57
0.25806,85.854
0.25513,82.529
0.25122,79.205
0.24731,76.271
0.24438,73.924
0.24047,71.773
0.23949,70.013
0.24047,68.644
0.24438,67.666
0.25318,66.884
0.26979,66.102
0.29423,65.711
0.32649,65.319
0.36559,65.124
0.41056,64.928
0.45748,64.733
0.5044,64.733
0.54839,64.537
0.58749,64.537
0.6217,64.342
0.64516,64.342
0.66276,64.146
0.67644,63.95
0.68622,63.755
0.6911,63.559
0.69208,63.364
0.68817,62.973
0.68035,62.582
0.66764,62.386
0.652,61.995
0.63343,61.604
0.6129,61.213
0.59238,60.821
0.57185,60.43
0.54936,60.235
0.5259,59.844
0.50244,59.452
0.47996,59.061
0.45943,58.67
0.44086,58.279
0.42326,57.888
0.4086,57.497
0.39589,57.106
0.38416,56.519
0.37439,56.128
0.36755,55.737
0.36168,55.346
0.35582,54.759
0.35093,54.368
0.34702,53.977
0.34311,53.585
0.3392,53.194
0.33627,52.999
0.33431,52.803
0.33138,52.608
0.32845,52.803
0.32551,53.39
0.32356,54.759
0.3216,57.106
0.31965,61.213
0.31672,66.688
0.31378,73.142
0.31085,79.596
0.30792,85.658
0.30499,91.134
0.30303,96.219
0.3001,100.33
0.3001,103.65
0.30108,105.8
0.3001,107.17
0.3001,107.56
0.29912,107.17
0.29717,106
0.29423,104.43
0.2913,102.48
0.28837,100.13
0.28543,97.393
0.28152,94.459
0.27859,91.134
0.27468,87.614
0.27175,83.898
0.26882,80.574
0.26588,77.249
0.26393,74.511
0.26197,72.164
0.25904,70.404
0.25806,68.84
0.25904,67.471
0.26393,66.493
0.27566,65.906
0.29423,65.319
0.32063,64.928
0.35484,64.537
0.39492,64.342
0.43304,64.146
0.47019,63.95
0.51124,63.95
0.55132,63.95
0.58944,63.755
0.6217,63.755
0.64907,63.755
0.6696,63.559
0.68426,63.364
0.69306,63.168
0.69697,62.777
0.69599,62.582
0.6911,62.19
0.68328,61.799
0.67155,61.408
0.65689,61.213
0.6393,60.821
0.61975,60.43
0.59726,60.235
0.5738,59.844
0.54936,59.452
0.5259,59.061
0.50342,58.67
0.48192,58.279
0.46237,58.083
0.44575,57.497
0.43304,57.106
0.42033,56.715
0.40762,56.323
0.39687,55.932
0.38807,55.346
0.38025,54.954
0.37341,54.563
0.36755,54.172
0.36266,53.781
0.35875,53.39
0.35484,52.999
0.35191,52.608
0.34897,52.216
0.34702,52.216
0.34506,52.216
0.34213,52.608
0.3392,53.585
0.33724,55.541
0.33431,58.866
0.33138,63.95
0.32845,70.013
0.32551,76.467
0.32258,82.725
0.31965,88.788
0.31769,93.872
0.31672,98.566
0.31476,102.09
0.31183,104.82
0.30987,106.58
0.30694,107.37
0.30401,107.37
0.30108,106.58
0.29717,105.22
0.29423,103.46
0.2913,101.3
0.28739,98.761
0.28446,96.024
0.28152,92.894
0.28055,89.57
0.27761,86.05
0.27468,82.529
0.27175,79.205
0.26784,76.271
0.26491,73.729
0.26197,71.578
0.26002,69.818
0.26002,68.449
0.26295,67.275
0.27273,66.297
0.28543,65.711
0.30401,65.124
0.33236,64.733
0.36755,64.537
0.40958,64.146
0.45455,64.146
0.50049,63.95
0.54545,63.95
0.58553,63.755
0.62072,63.755
0.65005,63.755
0.67253,63.559
0.68915,63.559
0.69892,63.364
0.70381,62.973
0.70479,62.777
0.70283,62.386
0.69599,61.995
0.68622,61.604
0.67351,61.408
0.65689,61.017
0.63734,60.626
0.61584,60.43
0.59335,60.039
0.56989,59.648
0.54839,59.452
0.52884,59.061
0.50831,58.67
0.48778,58.279
0.46823,57.888
0.45064,57.497
0.435,56.91
0.42131,56.715
0.40958,56.128
0.39883,55.737
0.39003,55.346
0.38221,54.954
0.37634,54.368
0.37146,53.977
0.36755,53.585
0.36364,53.194
0.35973,52.803
0.35679,52.412
0.35386,52.216
0.35093,52.216
0.348,52.412
0.34506,53.194
0.34311,54.954
0.34018,58.083
0.33724,62.973
0.33529,69.035
0.33333,75.685
0.3304,82.334
0.32747,88.396
0.32551,94.068
0.32258,98.957
0.31965,103.06
0.31672,106.19
0.31378,108.15
0.31085,109.32
0.30792,109.52
0.30499,108.93
0.30205,107.76
0.3001,106
0.29814,104.04
0.29521,101.69
0.29228,98.957
0.28935,96.024
0.28641,92.699
0.2825,89.179
0.27957,85.658
0.27664,82.138
0.27273,79.009
0.26882,76.076
0.26588,73.533
0.26393,71.578
0.26295,69.818
0.26491,68.449
0.27175,67.471
0.28348,66.688
0.30401,66.102
0.33333,65.711
0.3695,65.319
0.41251,65.124
0.45943,64.928
0.50733,64.733
0.55327,64.733
0.59629,64.733
0.62854,64.733
0.65396,64.537
0.67742,64.537
0.69697,64.537
0.71163,64.342
0.72043,64.146
0.72434,63.755
0.72434,63.559
0.71945,63.168
0.71065,62.973
0.69795,62.582
0.68231,62.19
0.66471,61.799
0.64712,61.604
0.62561,61.213
0.60313,61.017
0.57869,60.626
0.55425,60.235
0.53079,60.039
0.50831,59.648
0.4868,59.257
0.46725,58.866
0.45064,58.475
0.435,58.083
0.42229,57.692
0.41251,57.301
0.40371,56.91
0.39589,56.519
0.38905,56.128
0.38221,55.737
0.37732,55.346
0.37243,54.954
0.36852,54.563
0.36559,54.172
0.36168,53.977
0.35875,53.977
0.35679,53.977
0.35484,54.759
0.35288,56.323
0.34995,59.257
0.348,63.95
0.34506,69.818
0.34213,76.662
0.3392,83.312
0.33627,89.765
0.33333,95.437
0.33138,100.52
0.32845,104.82
0.32551,107.95
0.32356,110.3
0.3216,111.47
0.31965,111.67
0.31769,111.28
0.31476,110.1
0.31281,108.54
0.30987,106.58
0.30694,104.43
0.30401,101.89
0.30108,99.153
0.29814,96.024
0.29521,92.699
0.29228,89.374
0.2913,85.854
0.28935,82.529
0.28739,79.596
0.28446,76.858
0.28152,74.707
0.27859,72.947
0.27957,71.578
0.28543,70.6
0.29912,69.622
0.32063,69.035
0.35093,68.449
0.38905,68.057
0.42717,67.862
0.46628,67.666
0.51222,67.666
0.55914,67.666
0.60411,67.666
0.64516,67.471
0.68133,67.471
0.70968,67.471
0.73216,67.275
0.74878,67.08
0.75855,66.884
0.76442,66.493
0.76442,66.102
0.76051,65.906
0.75269,65.515
0.74194,65.124
0.72825,64.733
0.71065,64.342
0.6911,63.95
0.66862,63.559
0.64516,63.168
0.62072,62.973
0.59531,62.582
0.57185,62.19
0.54839,61.799
0.52884,61.408
0.51222,61.017
0.4956,60.626
0.47996,60.039
0.46628,59.648
0.45357,59.257
0.44379,58.67
0.435,58.279
0.42717,57.888
0.42131,57.301
0.41642,56.91
0.41153,56.519
0.40762,55.932
0.40469,55.541
0.40274,55.346
0.3998,55.15
0.39687,55.15
0.39394,55.737
0.39003,57.301
0.3871,60.626
0.38416,65.515
0.38025,71.969
0.37732,79.205
0.37341,86.05
0.37048,92.699
0.36755,98.761
0.36461,104.04
0.36168,108.15
0.35875,111.28
0.35582,113.23
0.35288,114.21
0.34995,114.21
0.34702,113.43
0.34311,112.06
0.3392,110.3
0.33627,108.34
0.33236,106
0.32845,103.46
0.32551,100.52
0.32356,97.393
0.32063,93.872
0.31672,90.352
0.31378,86.636
0.30987,83.116
0.30596,79.987
0.30108,77.249
0.29814,75.098
0.29619,73.142
0.29717,71.773
0.30401,70.6
0.31476,69.622
0.33236,69.035
0.35875,68.449
0.39394,68.057
0.43695,67.862
0.48387,67.666
0.53275,67.471
0.58065,67.471
0.62366,67.275
0.66178,67.275
0.69404,67.08
0.71848,66.884
0.73705,66.688
0.7478,66.493
0.75269,66.297
0.75464,65.906
0.75269,65.515
0.74682,65.124
0.73705,64.733
0.72434,64.342
0.7087,63.95
0.68915,63.364
0.66764,62.973
0.64418,62.777
0.61975,62.386
0.59629,61.995
0.57478,61.408
0.55034,61.213
0.52688,60.821
0.5044,60.235
0.48387,59.844
0.46432,59.452
0.4477,58.866
0.43304,58.475
0.42033,57.888
0.40958,57.301
0.40078,56.91
0.39296,56.519
0.3871,55.932
0.38221,55.541
0.37732,55.15
0.37341,54.759
0.3695,54.368
0.36559,54.172
0.36168,53.977
0.35777,53.977
0.35386,54.368
0.34995,55.346
0.34604,57.497
0.34213,61.408
0.3392,66.688
0.33724,73.142
0.33333,79.987
0.3304,86.636
0.32649,92.699
0.32258,98.175
0.31867,102.67
0.31574,106.39
0.31183,108.93
0.30792,110.5
0.30401,111.08
0.30108,110.89
0.29717,109.91
0.29423,108.34
0.29228,106.58
0.28935,104.24
0.28543,101.69
0.2825,98.761
0.27859,95.437
0.27468,91.917
0.27077,88.396
0.26686,84.876
0.26295,81.356
0.26002,78.422
0.25611,75.685
0.25415,73.533
0.25318,71.773
0.2522,70.209
0.25513,69.035
0.26393,68.057
0.27859,67.275
0.30303,66.884
0.33529,66.493
0.37537,66.102
0.42033,65.906
0.46921,65.906
0.51808,65.711
0.56403,65.711
0.60117,65.515
0.6305,65.515
0.65787,65.515
0.68133,65.319
0.69892,65.124
0.71163,64.928
0.7175,64.537
0.71945,64.342
0.71652,63.95
0.70968,63.559
0.69795,63.168
0.68231,62.777
0.66667,62.582
0.64907,62.19
0.62757,61.799
0.60411,61.408
0.57967,61.017
0.55425,60.626
0.52981,60.235
0.50635,59.844
0.48387,59.452
0.46334,59.061
0.44477,58.67
0.42815,58.083
0.41447,57.692
0.40371,57.106
0.39492,56.715
0.38612,56.323
0.3783,55.737
0.37146,55.346
0.36657,54.954
0.36168,54.563
0.35679,53.977
0.35386,53.781
0.34995,53.39
0.34702,53.194
0.34409,53.194
0.34115,53.39
0.3392,53.977
0.33724,55.346
0.33431,57.888
0.33138,61.995
0.32747,67.471
0.32454,73.533
0.3216,79.987
0.31769,86.05
0.31476,91.525
0.31183,96.415
0.3089,100.52
0.30694,103.65
0.30499,105.8
0.30205,106.98
0.29912,107.17
0.29619,106.78
0.29326,105.61
0.28935,103.85
0.28543,101.69
0.2825,99.348
0.27859,96.61
0.27468,93.286
0.27077,89.961
0.26784,86.245
0.26491,82.725
0.26295,79.596
0.26002,76.662
0.25709,74.12
0.25415,71.969
0.25122,70.209
0.24927,68.84
0.25024,67.471
0.25513,66.688
0.26588,65.906
0.28446,65.515
0.31183,65.124
0.34018,64.733
0.37341,64.537
0.41349,64.537
0.45943,64.342
0.50538,64.342
0.55034,64.342
0.5914,64.146
0.62561,64.146
0.65494,63.95
0.67644,63.755
0.69306,63.559
0.69795,63.364
0.69501,63.168
0.6911,62.973
0.68426,62.582
0.67546,62.19
0.66373,61.799
0.64809,61.408
0.62952,61.213
0.60899,60.821
0.58651,60.43
0.56305,60.235
0.53959,59.844
0.51711,59.452
0.49462,59.061
0.47605,58.67
0.45943,58.279
0.44282,58.083
0.42815,57.497
0.41447,57.106
0.40176,56.715
0.39198,56.128
0.38221,55.737
0.37537,55.346
0.36852,54.954
0.36266,54.563
0.35777,53.977
0.35386,53.781
0.35191,53.39
0.34897,52.999
0.34702,52.803
0.34409,52.803
0.34213,52.999
0.3392,53.585
0.33627,54.759
0.33431,57.106
0.33138,61.213
0.32845,66.493
0.32551,72.555
0.32258,78.814
0.32063,84.876
0.31867,90.352
0.31672,95.241
0.31476,99.544
0.31183,102.67
0.30987,104.82
0.30694,106
0.30401,106.39
0.30108,106
0.29814,105.02
0.29521,103.46
0.29228,101.3
0.28935,98.957
0.28641,96.024
0.28446,92.894
0.2825,89.57
0.27957,86.05
0.27566,82.725
0.27273,79.4
0.26979,76.662
0.26588,74.12
0.26295,71.969
0.26002,70.209
0.25904,68.84
0.26002,67.471
0.26295,66.688
0.27175,65.906
0.28543,65.319
0.30792,64.928
0.33822,64.733
0.37537,64.537
0.4174,64.342
0.46237,64.146
0.50831,64.146
0.55132,64.146
0.58944,63.95
0.62366,63.95
0.65103,63.95
0.6696,63.755
0.68133,63.559
0.6911,63.364
0.69599,63.168
0.69697,62.777
0.69306,62.582
0.68524,62.19
0.67351,61.799
0.65787,61.604
0.64027,61.213
0.61975,60.821
0.59726,60.626
0.57674,60.235
0.55621,59.844
0.5347,59.648
0.5132,59.257
0.49169,58.866
0.47214,58.475
0.45357,58.083
0.43695,57.497
0.42326,57.106
0.41056,56.715
0.3998,56.323
0.39101,55.737
0.38319,55.346
0.37732,54.954
0.37243,54.368
0.36852,53.977
0.36461,53.585
0.3607,53.39
0.35777,52.999
0.35484,52.999
0.35191,52.999
0.34897,53.194
0.34604,53.977
0.34311,55.541
0.34018,58.475
0.33822,62.973
0.33627,68.84
0.33431,75.098
0.33138,81.552
0.32845,87.614
0.32649,93.286
0.32356,97.979
0.32063,102.09
0.31769,105.22
0.31476,107.17
0.31183,108.15
0.3089,108.34
0.30596,107.76
0.30401,106.58
0.30205,104.82
0.3001,102.67
0.29717,100.33
0.29326,97.393
0.29032,94.263
0.28641,90.939
0.28348,87.419
0.27957,83.703
0.27566,80.378
0.27273,77.445
0.26882,74.707
0.26686,72.555
0.26491,70.6
0.26393,69.231
0.26491,68.057
0.26979,67.08
0.28055,66.297
0.29814,65.906
0.32454,65.515
0.35875,65.319
0.39883,65.124
0.44379,64.928
0.49071,64.928
0.53666,64.733
0.57478,64.733
0.60606,64.733
0.63636,64.537
0.66276,64.537
0.68426,64.537
0.6999,64.342
0.70968,64.146
0.71457,63.755
0.71457,63.559
0.70968,63.168
0.70088,62.973
0.68817,62.582
0.67351,62.19
0.65689,61.799
0.63734,61.604
0.61486,61.213
0.5914,61.017
0.56696,60.626
0.54252,60.235
0.51906,59.844
0.49658,59.452
0.47605,59.061
0.45748,58.475
0.44086,58.279
0.4262,57.692
0.41544,57.301
0.40567,56.91
0.39687,56.323
0.38905,55.932
0.38221,55.541
0.37537,55.15
0.37048,54.563
0.36657,54.172
0.36266,53.781
0.35875,53.585
0.35582,53.585
0.35386,53.585
0.35191,54.172
0.34995,55.346
0.34702,57.497
0.34506,61.408
0.34213,66.688
0.3392,72.947
0.33627,79.596
0.33333,85.854
0.3304,91.721
0.32747,97.001
0.32454,101.5
0.3216,105.22
0.31965,107.76
0.31867,109.32
0.31574,109.91
0.31378,109.91
0.31085,108.93
0.30694,107.56
0.30401,105.8
0.30108,103.65
0.29717,101.11
0.29423,98.37
0.29032,95.046
0.28641,91.721
0.28348,88.005
0.28055,84.485
0.27859,81.16
0.27566,78.227
0.27273,75.685
0.26882,73.533
0.26686,71.773
0.26588,70.404
0.26784,69.231
0.27566,68.253
0.2913,67.666
0.31378,67.275
0.34506,66.884
0.37732,66.688
0.41153,66.493
0.45357,66.493
0.49951,66.493
0.54448,66.493
0.58651,66.493
0.62463,66.493
0.65591,66.493
0.68231,66.493
0.70088,66.493
0.71457,66.297
0.72239,65.906
0.72434,65.711
0.72239,65.515
0.71652,65.124
0.70674,64.928
0.69404,64.537
0.6784,64.342
0.65982,63.95
0.63832,63.559
0.61486,63.168
0.5914,62.973
0.56598,62.582
0.54252,62.19
0.51906,61.799
0.49951,61.408
0.48289,61.017
0.4653,60.43
0.44966,60.039
0.435,59.648
0.42326,59.061
0.41349,58.67
0.40371,58.279
0.39589,57.888
0.38905,57.497
0.38416,56.91
0.37928,56.715
0.37537,56.323
0.37243,55.932
0.37048,55.932
0.36852,55.932
0.36657,56.128
0.36364,57.106
0.36168,59.061
0.35875,62.582
0.35679,67.666
0.35386,74.12
0.35191,80.965
0.34897,87.614
0.34604,93.872
0.34409,99.739
0.34213,104.63
0.34018,108.74
0.33822,111.86
0.33529,113.62
0.33236,114.6
0.3304,114.6
0.32747,113.82
0.32454,112.65
0.3216,110.89
0.31769,108.74
0.31476,106.58
0.31183,103.85
0.3089,100.91
0.30694,97.784
0.30499,94.068
0.30205,90.548
0.29912,87.027
0.29619,83.703
0.29326,80.769
0.29032,78.227
0.28739,76.076
0.28739,74.511
0.29032,73.142
0.29814,72.164
0.30987,71.382
0.32747,70.795
0.35484,70.404
0.39101,70.209
0.435,70.209
0.48289,70.209
0.53275,70.209
0.5826,70.209
0.62854,70.209
0.66862,70.209
0.70381,70.013
0.73118,70.013
0.75171,69.818
0.7654,69.426
0.77224,69.231
0.77517,69.035
0.77517,68.644
0.77126,68.253
0.76344,67.862
0.75269,67.471
0.73705,66.884
0.71945,66.493
0.69795,66.102
0.67449,65.711
0.65005,65.124
0.62659,64.733
0.60508,64.146
0.58162,63.559
0.55816,63.168
0.53666,62.582
0.51613,61.995
0.49853,61.408
0.48192,61.017
0.46823,60.43
0.4565,59.844
0.44673,59.452
0.43891,59.061
0.43206,58.475
0.42717,58.083
0.42326,57.692
0.41935,57.301
0.41544,56.91
0.41153,56.715
0.4086,56.519
0.40567,56.715
0.40176,57.301
0.39883,59.061
0.39589,62.386
0.39198,67.471
0.38807,73.729
0.38514,80.965
0.38319,87.81
0.37928,94.459
0.37537,100.52
0.37146,105.8
0.36852,110.1
0.36461,113.23
0.35973,115.19
0.35582,116.17
0.35191,116.36
0.34702,115.58
0.34213,114.41
0.33822,112.65
0.33431,110.5
0.3304,108.34
0.32649,105.61
0.3216,102.67
0.31672,99.348
0.31183,95.828
0.30694,92.112
0.30205,88.396
0.29717,84.876
0.29228,81.747
0.28739,79.009
0.2825,76.662
0.28055,74.902
0.28055,73.338
0.28348,72.164
0.29326,71.382
0.31085,70.6
0.33724,70.209
0.37146,69.818
0.41349,69.622
0.46139,69.426
0.51026,69.426
0.55816,69.426
0.60215,69.231
0.64223,69.231
0.67155,69.035
0.69306,69.035
0.71163,68.84
0.7263,68.644
0.73607,68.253
0.73998,67.862
0.73998,67.471
0.73607,67.08
0.72825,66.688
0.71554,66.297
0.6999,65.906
0.68133,65.319
0.66276,64.928
0.64321,64.537
0.61975,64.146
0.59531,63.755
0.56891,63.364
0.5435,62.973
0.51906,62.582
0.4956,61.995
0.4741,61.604
0.45455,61.213
0.43793,60.626
0.42326,60.039
0.41056,59.648
0.40078,59.061
0.39296,58.475
0.38612,58.083
0.38025,57.497
0.37439,57.106
0.3695,56.715
0.36461,56.323
0.3607,56.128
0.35777,55.932
0.35386,55.737
0.35093,56.128
0.348,56.91
0.34506,58.475
0.34311,61.604
0.34018,66.297
0.33627,72.36
0.33333,79.205
0.32942,86.05
0.32551,92.503
0.32258,98.37
0.31867,103.46
0.31574,107.56
0.31183,110.69
0.3089,112.65
0.30596,113.62
0.30401,113.82
0.30205,113.04
0.29814,111.67
0.29521,109.91
0.2913,107.56
0.28739,105.22
0.28348,102.28
0.27859,99.153
0.27468,95.632
0.27077,91.917
0.26686,88.201
0.26295,84.681
0.26002,81.552
0.25806,78.814
0.25513,76.467
0.2522,74.316
0.25024,72.751
0.25024,71.382
0.25513,70.404
0.26686,69.622
0.28543,69.035
0.31281,68.644
0.34897,68.253
0.39198,68.057
0.43304,67.862
0.47214,67.862
0.51711,67.862
0.56207,67.862
0.60313,67.666
0.6393,67.666
0.66862,67.471
0.6911,67.275
0.70674,67.08
0.7175,66.884
0.72141,66.688
0.72141,66.297
0.71554,65.906
0.70674,65.515
0.69599,65.124
0.68035,64.733
0.66276,64.342
0.64125,63.95
0.61877,63.559
0.59335,63.168
0.56794,62.777
0.54252,62.386
0.51808,61.995
0.49462,61.408
0.47312,61.213
0.45455,60.626
0.43988,60.235
0.42522,59.648
0.41153,59.061
0.3998,58.67
0.39003,58.083
0.38123,57.692
0.37341,57.301
0.36657,56.91
0.36168,56.323
0.35679,55.932
0.35288,55.541
0.34897,55.346
0.34702,55.346
0.34506,55.346
0.34213,55.737
0.34018,56.519
0.33724,58.083
0.33431,61.017
0.3304,65.319
0.32747,70.795
0.32454,77.054
0.3216,83.312
0.31867,89.179
0.31476,94.655
0.31183,99.348
0.30987,103.06
0.30694,106
0.30499,107.95
0.30205,108.74
0.29912,108.74
0.29619,108.15
0.29228,106.78
0.28935,104.82
0.28543,102.48
0.28152,99.739
0.27859,96.806
0.27468,93.481
0.27175,89.961
0.26979,86.441
0.26686,82.921
0.26393,79.791
0.26002,76.858
0.25709,74.511
0.25415,72.555
0.2522,70.991
0.25024,69.818
0.2522,68.84
0.25709,68.057
0.26882,67.471
0.28348,66.884
0.30303,66.688
0.33138,66.493
0.36657,66.297
0.40665,66.102
0.45064,66.102
0.49365,66.102
0.53568,65.906
0.57283,65.906
0.60411,65.906
0.6305,65.711
0.65005,65.515
0.66373,65.319
0.67155,65.124
0.67351,64.733
0.67253,64.537
0.66764,64.146
0.65885,63.95
0.64614,63.559
0.63148,63.168
0.6129,62.973
0.59238,62.582
0.56989,62.19
0.54643,61.799
0.52297,61.604
0.50244,61.213
0.48387,60.821
0.4653,60.43
0.44673,60.039
0.43011,59.452
0.41544,59.061
0.40176,58.475
0.39101,58.083
0.38123,57.692
0.37341,57.106
0.36657,56.715
0.3607,56.323
0.35582,55.737
0.35191,55.346
0.34995,55.15
0.34702,54.759
0.34409,54.563
0.34213,54.563
0.3392,54.954
0.33724,55.541
0.33431,56.91
0.33138,59.648
0.32942,63.755
0.32649,69.231
0.32454,75.489
0.32258,81.943
0.32063,88.005
0.31867,93.677
0.31574,98.566
0.31378,102.87
0.31085,106
0.3089,108.15
0.30596,109.32
0.30303,109.71
0.30108,109.32
0.29814,108.15
0.29521,106.39
0.29228,104.24
0.29032,101.5
0.28837,98.761
0.28543,95.437
0.2825,91.917
0.27957,88.396
0.27566,84.876
0.27175,81.552
0.26882,78.618
0.26491,76.076
0.26197,73.924
0.25904,72.164
0.25709,70.6
0.25806,69.426
0.261,68.644
0.26882,67.862
0.2825,67.471
0.30401,67.08
0.33333,66.688
0.3695,66.493
0.41056,66.297
0.45552,66.297
0.49951,66.297
0.54252,66.297
0.58162,66.297
0.61584,66.102
0.64027,66.102
0.65787,65.906
0.67351,65.711
0.68426,65.515
0.69013,65.124
0.69208,64.928
0.68915,64.537
0.68133,64.342
0.6696,63.95
0.65494,63.559
0.63636,63.168
0.61584,62.973
0.59629,62.582
0.57674,62.19
0.55425,61.799
0.53177,61.408
0.50929,61.017
0.4868,60.626
0.46725,60.235
0.44868,59.844
0.43206,59.257
0.4174,58.866
0.40567,58.279
0.39394,57.888
0.38612,57.497
0.37928,56.91
0.37341,56.519
0.36755,56.128
0.36266,55.737
0.35875,55.346
0.35582,55.15
0.35191,54.954
0.34995,54.954
0.34702,55.15
0.34409,55.541
0.34115,56.91
0.33822,59.257
0.33627,63.168
0.33431,68.644
0.33236,75.098
0.32942,81.552
0.32649,87.81
0.32454,93.481
0.3216,98.761
0.31867,103.26
0.31574,106.58
0.31378,109.13
0.31085,110.5
0.30792,111.08
0.30596,110.69
0.30401,109.71
0.30108,108.15
0.29814,106.19
0.29521,103.85
0.2913,101.11
0.28837,97.979
0.28446,94.655
0.28055,90.939
0.27761,87.419
0.2737,83.898
0.26979,80.574
0.26588,77.836
0.26393,75.293
0.26197,73.338
0.26002,71.773
0.26002,70.404
0.26197,69.426
0.26882,68.644
0.2825,68.057
0.30401,67.471
0.33236,67.275
0.36852,67.08
0.41056,66.884
0.45552,66.884
0.4956,66.688
0.53079,66.688
0.56891,66.688
0.60411,66.688
0.63441,66.493
0.65982,66.493
0.67937,66.297
0.69306,66.102
0.70088,65.906
0.70283,65.515
0.70088,65.124
0.69404,64.733
0.68328,64.537
0.67058,64.146
0.65591,63.755
0.63734,63.559
0.61584,63.168
0.59335,62.777
0.56891,62.386
0.54545,61.995
0.52102,61.604
0.49853,61.213
0.47703,60.821
0.45748,60.235
0.44086,59.844
0.4262,59.452
0.41544,58.866
0.40469,58.279
0.39394,57.888
0.38612,57.497
0.3783,56.91
0.37243,56.519
0.36657,56.128
0.36168,55.737
0.35777,55.346
0.35484,55.15
0.35191,55.15
0.34897,55.346
0.34702,55.932
0.34506,57.106
0.34311,59.844
0.34018,63.95
0.33822,69.818
0.33529,76.467
0.33236,83.116
0.32942,89.57
0.32649,95.632
0.32454,101.11
0.3216,105.8
0.31867,109.52
0.31672,112.06
0.31476,113.43
0.31281,114.21
0.30987,113.82
0.30694,113.04
0.30401,111.47
0.30108,109.71
0.29814,107.37
0.29423,104.82
0.2913,101.89
0.28739,98.761
0.28348,95.241
0.28055,91.525
0.27761,87.81
0.27566,84.485
0.27273,81.356
0.26979,78.618
0.26686,76.467
0.26491,74.511
0.26491,73.142
0.26784,71.969
0.27664,70.991
0.29326,70.404
0.31867,69.818
0.35288,69.622
0.38807,69.426
0.4262,69.231
0.47214,69.035
0.52297,69.035
0.57283,69.035
0.61877,69.035
0.6608,69.035
0.69599,69.035
0.72434,68.84
0.74487,68.84
0.75953,68.644
0.76833,68.253
0.77126,68.057
0.76931,67.666
0.76344,67.471
0.75367,67.08
0.73998,66.688
0.72336,66.297
0.70283,65.906
0.68035,65.515
0.65494,65.124
0.62952,64.733
0.60215,64.537
0.57576,64.146
0.55034,63.559
0.52786,63.168
0.50831,62.777
0.48974,62.386
0.47116,61.799
0.45552,61.408
0.44184,60.821
0.43011,60.43
0.41935,59.844
0.41153,59.452
0.40371,59.061
0.39785,58.67
0.39296,58.279
0.38905,57.888
0.38612,57.692
0.38319,57.497
0.38123,57.692
0.3783,58.279
0.37634,59.844
0.37341,62.582
0.37146,67.275
0.36852,73.338
0.36559,80.378
0.36266,87.419
0.35973,94.068
0.35679,100.33
0.35484,105.8
0.35288,110.3
0.35093,113.82
0.348,116.17
0.34506,117.54
0.34311,117.93
0.34018,117.34
0.33724,116.17
0.33431,114.6
0.3304,112.65
0.32747,110.5
0.32454,108.15
0.32063,105.22
0.31867,102.09
0.31574,98.761
0.31378,95.046
0.30987,91.525
0.30694,87.81
0.30401,84.681
0.3001,81.943
0.29717,79.596
0.29521,77.64
0.29521,76.076
0.3001,74.902
0.31085,73.924
0.32551,73.338
0.34604,72.947
0.37634,72.555
0.41642,72.36
0.46237,72.164
0.51222,72.164
0.56403,71.969
0.6129,71.969
0.65689,71.773
0.69599,71.578
0.72727,71.382
0.75269,71.186
0.77126,70.795
0.78201,70.404
0.7869,69.818
0.78886,69.426
0.7869,69.035
0.78104,68.449
0.77126,68.057
0.75758,67.666
0.74096,67.275
0.72141,66.884
0.69892,66.493
0.67449,66.102
0.64907,65.711
0.62561,65.319
0.60411,64.928
0.58065,64.537
0.55718,63.95
0.5347,63.364
0.51515,62.973
0.49756,62.19
0.48094,61.799
0.46725,61.213
0.45552,60.626
0.44575,60.235
0.43793,59.648
0.43109,59.061
0.4262,58.67
0.42131,58.279
0.4174,57.888
0.41251,57.497
0.4086,57.301
0.40469,57.497
0.3998,57.888
0.39589,59.257
0.39198,61.995
0.3871,66.297
0.38319,72.36
0.3783,79.4
0.37537,86.636
0.37243,93.677
0.36852,100.13
0.36461,106
0.3607,110.89
0.35582,114.6
0.35191,116.95
0.34702,118.32
0.34213,118.71
0.33724,118.32
0.33236,117.14
0.32747,115.58
0.32356,113.62
0.31965,111.47
0.31574,108.74
0.31085,106
0.30499,102.67
0.3001,99.348
0.29521,95.632
0.29032,91.721
0.28543,88.005
0.27957,84.681
0.27468,81.552
0.26979,79.205
0.26588,77.054
0.26491,75.293
0.26686,74.12
0.2737,73.142
0.28641,72.36
0.3089,71.773
0.34018,71.382
0.37928,71.186
0.4262,70.991
0.47605,70.795
0.52786,70.795
0.57674,70.6
0.6217,70.6
0.65689,70.404
0.68328,70.404
0.70674,70.013
0.7263,69.818
0.73998,69.622
0.7478,69.231
0.75073,68.84
0.74878,68.449
0.74291,68.057
0.73314,67.666
0.71945,67.275
0.70186,66.688
0.68231,66.297
0.66178,65.906
0.64125,65.515
0.61681,65.124
0.59042,64.733
0.56403,64.342
0.53861,63.95
0.5132,63.364
0.48974,62.973
0.46921,62.386
0.45064,61.995
0.43402,61.408
0.41935,61.017
0.4086,60.43
0.40078,59.844
0.39296,59.452
0.38514,58.866
0.37928,58.475
0.37439,58.083
0.3695,57.692
0.36461,57.301
0.3607,57.106
0.35777,56.91
0.35386,57.106
0.35093,57.692
0.348,59.061
0.34506,61.604
0.34311,65.906
0.34018,71.578
0.33627,78.031
0.33333,84.876
0.32942,91.525
0.32551,97.588
0.3216,103.06
0.31867,107.56
0.31476,111.08
0.31085,113.43
0.30694,114.8
0.30499,115.19
0.30205,114.6
0.29912,113.43
0.29619,111.67
0.29228,109.52
0.28837,107.17
0.28446,104.24
0.27957,101.11
0.27566,97.588
0.27077,93.872
0.26686,90.157
0.26295,86.245
0.25904,82.921
0.25611,79.987
0.25415,77.445
0.25122,75.293
0.24927,73.533
0.24829,72.36
0.25024,71.382
0.25806,70.6
0.27273,70.013
0.29619,69.426
0.32747,69.231
0.36755,69.035
0.41251,69.035
0.45552,68.84
0.4956,68.84
0.53959,68.84
0.58358,68.84
0.62268,68.644
0.65494,68.644
0.68231,68.449
0.70186,68.253
0.71554,67.862
0.72336,67.666
0.72532,67.275
0.72239,66.884
0.70577,66.493
0.68231,66.102
0.66276,65.906
0.64418,65.319
0.62366,64.928
0.60215,64.537
0.57869,64.146
0.55425,63.755
0.52981,63.364
0.50635,62.973
0.48289,62.582
0.46237,62.19
0.44282,61.604
0.42717,61.213
0.41447,60.626
0.40176,60.039
0.39101,59.648
0.38025,59.257
0.37243,58.67
0.36559,58.279
0.35973,57.888
0.35386,57.301
0.34995,56.91
0.34702,56.715
0.34409,56.519
0.34115,56.323
0.3392,56.323
0.33822,56.715
0.33627,57.497
0.33431,59.061
0.33138,62.19
0.32845,66.884
0.32551,72.555
0.32258,79.009
0.31965,85.658
0.31574,91.721
0.31281,97.393
0.30987,102.28
0.30792,106.39
0.30596,109.32
0.30401,111.28
0.30108,112.26
0.29912,112.45
0.29619,111.67
0.29228,110.3
0.28935,108.54
0.28543,106.19
0.28152,103.65
0.27859,100.72
0.27468,97.393
0.27077,93.677
0.26882,90.157
0.26686,86.245
0.26393,82.921
0.261,79.791
0.25806,77.249
0.25513,75.098
0.2522,73.338
0.25024,71.773
0.25122,70.6
0.25513,69.818
0.26491,69.035
0.28055,68.644
0.3001,68.449
0.32454,68.057
0.35777,68.057
0.39687,67.862
0.43988,67.862
0.48387,67.666
0.5259,67.666
0.565,67.666
0.59824,67.666
0.62659,67.471
0.64809,67.471
0.66373,67.275
0.67351,66.884
0.6784,66.688
0.67742,66.297
0.67449,65.906
0.66667,65.711
0.65591,65.319
0.64223,64.928
0.62463,64.537
0.60508,64.146
0.58358,63.755
0.56012,63.364
0.53666,62.973
0.5132,62.777
0.49365,62.19
0.47507,61.799
0.4565,61.408
0.43891,60.821
0.42326,60.43
0.4086,59.844
0.39687,59.452
0.38612,59.061
0.37732,58.475
0.3695,58.083
0.36364,57.497
0.35777,57.106
0.35386,56.715
0.35093,56.323
0.348,55.932
0.34506,55.737
0.34311,55.737
0.34018,55.932
0.33822,56.715
0.33529,58.083
0.33333,60.821
0.33138,65.124
0.32845,70.795
0.32551,77.445
0.32258,84.094
0.32063,90.352
0.31867,96.219
0.31672,101.3
0.31476,105.8
0.31183,109.13
0.3089,111.67
0.30596,113.04
0.30303,113.23
0.3001,112.84
0.29717,111.67
0.29423,109.91
0.2913,107.95
0.28935,105.41
0.28739,102.67
0.28446,99.544
0.28055,96.024
0.27761,92.112
0.2737,88.396
0.26979,84.681
0.26588,81.356
0.26295,78.422
0.25904,76.076
0.25611,73.924
0.25415,72.36
0.25318,70.991
0.25611,70.013
0.26197,69.231
0.2737,68.84
0.29326,68.449
0.31965,68.057
0.35386,67.862
0.39492,67.666
0.43891,67.666
0.48387,67.666
0.52688,67.471
0.56696,67.471
0.60215,67.471
0.62854,67.471
0.64712,67.275
0.66373,67.275
0.67644,66.884
0.68426,66.688
0.68817,66.297
0.68622,65.906
0.68133,65.515
0.67155,65.124
0.65885,64.733
0.64223,64.537
0.62366,64.146
0.60215,63.755
0.58065,63.364
0.56109,62.973
0.53861,62.582
0.51515,62.19
0.49267,61.604
0.47116,61.213
0.45161,60.821
0.43304,60.235
0.4174,59.844
0.40371,59.452
0.39198,58.866
0.38221,58.475
0.37537,58.083
0.3695,57.692
0.36461,57.106
0.35973,56.715
0.35484,56.323
0.35191,55.932
0.34897,55.737
0.34604,55.541
0.34311,55.737
0.34018,56.323
0.33822,57.497
0.33529,60.039
0.33236,64.146
0.3304,69.818
0.32942,76.467
0.32649,83.507
0.32454,90.157
0.3216,96.415
0.31867,102.09
0.31574,106.98
0.31281,110.69
0.30987,113.43
0.30694,114.99
0.30401,115.78
0.30108,115.58
0.29814,114.6
0.29619,113.23
0.29423,111.28
0.29032,109.13
0.28739,106.58
0.28446,103.65
0.28055,100.33
0.27664,96.806
0.2737,93.09
0.26979,89.179
0.26686,85.658
0.26295,82.529
0.25904,79.791
0.25709,77.445
0.25513,75.489
0.25415,73.924
0.25513,72.751
0.261,71.773
0.27273,70.991
0.2913,70.6
0.31867,70.209
0.35288,70.013
0.39394,69.818
0.43988,69.818
0.48583,69.622
0.5259,69.622
0.56012,69.622
0.59531,69.622
0.62757,69.622
0.65396,69.426
0.67546,69.231
0.6911,69.231
0.70088,69.035
0.70577,68.644
0.70674,68.253
0.70283,68.057
0.69501,67.666
0.68328,67.275
0.6696,66.884
0.65494,66.493
0.63636,66.102
0.61486,65.711
0.59238,65.515
0.56794,65.124
0.54448,64.733
0.52102,64.342
0.49951,63.755
0.47801,63.364
0.45943,62.973
0.44282,62.386
0.43011,61.995
0.41935,61.408
0.4086,61.017
0.3998,60.626
0.39198,60.235
0.38514,59.648
0.38123,59.257
0.38025,58.866
0.3783,58.475
0.37634,58.279
0.37341,58.083
0.37146,58.083
0.3695,58.475
0.36755,59.844
0.36559,62.386
0.36364,66.688
0.36168,72.555
0.35973,79.4
0.35679,86.636
0.35484,93.677
0.35191,100.13
0.34897,106
0.34702,111.08
0.34409,114.99
0.34115,117.73
0.3392,119.49
0.33822,119.88
0.33627,119.69
0.33431,118.71
0.33138,117.14
0.32845,115.38
0.32551,113.23
0.32258,110.69
0.31965,108.15
0.31672,105.02
0.31281,101.69
0.30987,97.979
0.30694,94.263
0.30499,90.548
0.30401,87.027
0.30108,83.898
0.29814,81.356
0.29521,79.205
0.29423,77.445
0.29619,76.076
0.30205,74.902
0.31574,74.12
0.33724,73.533
0.36657,73.142
0.40469,72.947
0.44282,72.751
0.48094,72.555
0.5259,72.36
0.57283,72.164
0.61779,72.164
0.65885,71.969
0.69404,71.773
0.72239,71.382
0.74487,71.186
0.76051,70.795
0.77028,70.404
0.77517,70.013
0.77517,69.622
0.77126,69.231
0.76344,68.84
0.75269,68.253
0.739,67.862
0.72239,67.471
0.70283,67.08
0.68035,66.688
0.65689,66.102
0.63148,65.711
0.60606,65.319
0.58065,64.733
0.55718,64.146
0.53666,63.755
0.51906,63.168
0.50147,62.582
0.48485,61.995
0.47019,61.604
0.45748,61.017
0.44673,60.43
0.43695,59.844
0.42913,59.452
0.42326,59.061
0.4174,58.475
0.41251,58.083
0.4086,57.692
0.40469,57.497
0.40078,57.301
0.39687,57.497
0.39296,58.279
0.38905,60.235
0.38514,63.559
0.38025,69.035
0.37634,75.685
0.37243,83.116
0.36852,90.352
0.36364,97.588
0.35875,104.04
0.35484,109.52
0.35191,114.21
0.348,117.54
0.34311,119.69
0.33822,120.67
0.33333,120.86
0.32845,120.08
0.32356,118.9
0.31867,116.95
0.31378,114.8
0.3089,112.45
0.30401,109.71
0.3001,106.78
0.29619,103.46
0.29228,99.935
0.28739,96.024
0.2825,92.112
0.27859,88.396
0.2737,85.072
0.26882,81.943
0.26393,79.4
0.261,77.249
0.26002,75.685
0.26295,74.316
0.27273,73.338
0.28641,72.555
0.30596,71.969
0.33627,71.578
0.37439,71.186
0.42033,70.991
0.47019,70.991
0.52004,70.795
0.56891,70.795
0.6129,70.6
0.65005,70.6
0.68133,70.404
0.70577,70.404
0.72141,70.013
0.73118,69.818
0.73705,69.426
0.73998,69.035
0.73803,68.644
0.73314,68.057
0.72434,67.666
0.71163,67.275
0.69501,66.688
0.67644,66.297
0.65494,65.906
0.6305,65.515
0.60508,65.124
0.5826,64.537
0.56012,64.146
0.53666,63.755
0.51222,63.168
0.48974,62.777
0.46823,62.386
0.44966,61.799
0.43304,61.213
0.41838,60.821
0.40665,60.235
0.39589,59.648
0.3871,59.257
0.38025,58.67
0.37537,58.279
0.37048,57.888
0.36657,57.497
0.36266,57.106
0.35875,56.91
0.35484,56.91
0.35191,56.91
0.348,57.497
0.34506,58.866
0.34115,61.604
0.33822,66.102
0.33431,72.164
0.33138,79.205
0.32942,86.245
0.32649,93.09
0.32258,99.348
0.31867,104.82
0.31476,109.52
0.31085,113.04
0.30792,115.58
0.30401,116.75
0.3001,117.14
0.29717,116.56
0.29326,115.38
0.29032,113.82
0.28837,111.67
0.28543,109.13
0.28152,106.39
0.27761,103.26
0.2737,99.739
0.26979,96.024
0.26588,92.112
0.26197,88.396
0.25806,84.681
0.25415,81.356
0.25024,78.618
0.24731,76.467
0.24536,74.511
0.24536,72.947
0.24633,71.773
0.2522,70.795
0.26491,70.209
0.28543,69.818
0.31378,69.426
0.35093,69.231
0.39492,69.035
0.44282,69.035
0.49267,68.84
0.54057,68.84
0.57967,68.84
0.61193,68.84
0.64321,68.644
0.6696,68.449
0.6911,68.449
0.70577,68.057
0.71554,67.862
0.72043,67.666
0.71945,67.275
0.71457,66.884
0.70479,66.493
0.69208,65.906
0.67546,65.711
0.65787,65.124
0.6393,64.733
0.61681,64.342
0.59238,63.95
0.56696,63.559
0.54057,63.168
0.51515,62.777
0.49071,62.19
0.46921,61.604
0.44868,61.213
0.43109,60.626
0.41544,60.235
0.40274,59.648
0.39296,59.257
0.38416,58.67
0.37537,58.279
0.36852,57.888
0.36168,57.301
0.35679,56.91
0.35288,56.519
0.34897,56.128
0.34604,55.932
0.34311,55.932
0.34018,55.932
0.33822,56.519
0.33627,57.888
0.33529,60.43
0.33236,64.733
0.3304,70.404
0.32747,76.858
0.32454,83.703
0.32063,90.352
0.31769,96.415
0.31476,101.89
0.31085,106.58
0.30792,110.3
0.30401,112.84
0.30303,114.21
0.30205,114.8
0.3001,114.41
0.29814,113.23
0.29521,111.67
0.2913,109.52
0.28837,107.17
0.28446,104.24
0.28055,101.11
0.27664,97.784
0.2737,93.872
0.26979,90.157
0.26686,86.245
0.26393,82.725
0.26295,79.791
0.26002,77.054
0.25709,74.902
0.25415,73.142
0.2522,71.773
0.25318,70.6
0.25806,69.622
0.26979,69.035
0.28739,68.644
0.31378,68.253
0.348,68.057
0.38221,67.862
0.4174,67.666
0.45943,67.666
0.50244,67.666
0.54545,67.666
0.58358,67.471
0.61681,67.471
0.64418,67.471
0.66471,67.275
0.68035,66.884
0.68915,66.688
0.69404,66.297
0.69306,65.906
0.68817,65.711
0.68035,65.319
0.6696,64.928
0.65494,64.537
0.63734,64.146
0.61779,63.755
0.59531,63.364
0.57185,62.973
0.54839,62.582
0.52395,62.19
0.50147,61.799
0.47898,61.408
0.46139,60.821
0.44575,60.43
0.43011,59.844
0.41642,59.452
0.40371,59.061
0.39198,58.475
0.38221,58.083
0.37439,57.692
0.36755,57.106
0.36168,56.715
0.35777,56.323
0.35386,55.932
0.35093,55.541
0.34897,55.346
0.34702,55.346
0.34409,55.541
0.34213,56.323
0.34018,58.083
0.33724,61.017
0.33431,65.711
0.33138,71.773
0.32845,78.422
0.32551,85.267
0.32258,91.917
0.31965,97.979
0.31769,103.26
0.31574,107.76
0.31378,111.08
0.31085,113.43
0.3089,114.6
0.30596,114.8
0.30303,114.41
0.3001,113.23
0.29717,111.47
0.29326,109.32
0.29032,106.98
0.28641,104.24
0.28446,101.11
0.2825,97.588
0.27957,93.872
0.27664,89.961
0.2737,86.245
0.26979,82.921
0.26686,79.987
0.26295,77.445
0.26002,75.293
0.25709,73.533
0.25611,72.164
0.25904,71.186
0.26588,70.6
0.27761,70.013
0.29423,69.622
0.31965,69.426
0.35288,69.231
0.39296,69.231
0.43793,69.231
0.48387,69.231
0.52981,69.231
0.57185,69.231
0.60899,69.231
0.64125,69.035
0.66667,69.035
0.68328,68.84
0.69404,68.644
0.70186,68.449
0.70577,68.057
0.70577,67.666
0.70088,67.471
0.69306,67.08
0.68133,66.688
0.66569,66.297
0.64809,65.906
0.62757,65.515
0.60508,65.124
0.58162,64.733
0.56012,64.537
0.53959,64.146
0.51906,63.755
0.49756,63.364
0.47801,62.777
0.45943,62.386
0.44379,61.799
0.42913,61.408
0.4174,61.017
0.40762,60.43
0.39883,60.039
0.39198,59.648
0.3871,59.257
0.38319,58.67
0.38025,58.279
0.37634,58.083
0.37341,57.888
0.37146,57.692
0.3695,57.888
0.36755,58.475
0.36559,60.039
0.36364,63.168
0.36168,67.862
0.35973,74.316
0.35679,81.356
0.35582,88.592
0.35386,95.437
0.35288,101.89
0.34995,107.56
0.348,112.45
0.34604,116.17
0.34409,118.51
0.34213,119.88
0.34018,120.08
0.33724,119.49
0.33529,118.32
0.33236,116.75
0.3304,114.8
0.32845,112.45
0.32649,109.91
0.32454,107.17
0.3216,103.85
0.31965,100.33
0.31672,96.61
0.31378,92.894
0.31085,89.179
0.3089,86.05
0.30596,83.116
0.30303,80.574
0.3001,78.618
0.3001,77.054
0.30205,75.685
0.30792,74.707
0.31867,73.924
0.33724,73.338
0.36461,72.751
0.39883,72.555
0.43891,72.164
0.48387,72.164
0.52981,71.969
0.57478,71.773
0.61681,71.578
0.64907,71.578
0.67351,71.382
0.69697,71.186
0.71652,70.795
0.73021,70.6
0.73998,70.209
0.74487,69.818
0.74487,69.231
0.74096,68.84
0.73314,68.449
0.72239,68.057
0.70772,67.471
0.6911,67.08
0.67351,66.688
0.65494,66.102
0.63343,65.711
0.61095,65.319
0.58749,64.733
0.565,64.342
0.54252,63.95
0.52102,63.364
0.50244,62.777
0.48485,62.386
0.47019,61.799
0.4565,61.213
0.44673,60.626
0.43793,60.039
0.43011,59.648
0.42326,59.257
0.41642,58.67
0.41056,58.279
0.40567,57.888
0.40078,57.692
0.39687,57.497
0.39296,57.497
0.38905,57.888
0.38514,58.866
0.38123,61.408
0.3783,65.515
0.37537,71.186
0.37146,78.227
0.36755,85.463
0.36364,92.699
0.35875,99.544
0.35484,105.61
0.34995,110.89
0.34506,114.99
0.34115,117.93
0.33627,119.69
0.33138,120.47
0.32845,120.08
0.32551,119.1
0.3216,117.54
0.31672,115.58
0.31183,113.23
0.30792,110.69
0.30303,107.95
0.29814,104.82
0.29423,101.3
0.29032,97.393
0.28543,93.481
0.28152,89.57
0.27859,85.854
0.27566,82.725
0.27273,79.987
0.26882,77.836
0.26588,75.88
0.26491,74.511
0.26784,73.338
0.27566,72.36
0.2913,71.773
0.31476,71.382
0.34604,70.991
0.38514,70.795
0.42913,70.6
0.46921,70.6
0.50635,70.6
0.54741,70.404
0.58553,70.404
0.61975,70.209
0.64907,70.013
0.67155,69.818
0.68817,69.622
0.69795,69.231
0.70381,68.84
0.70479,68.449
0.70088,68.057
0.69501,67.471
0.68524,67.08
0.67351,66.688
0.65787,66.102
0.64027,65.711
0.61975,65.319
0.59726,64.928
0.5738,64.537
0.54936,64.146
0.5259,63.755
0.50244,63.168
0.47996,62.777
0.45943,62.386
0.44379,61.799
0.43011,61.408
0.41642,60.821
0.40469,60.235
0.39394,59.844
0.38514,59.257
0.37732,58.67
0.37048,58.279
0.36559,57.888
0.3607,57.497
0.35679,57.106
0.35288,56.715
0.35093,56.715
0.34897,56.715
0.34604,56.91
0.34409,58.083
0.34115,60.235
0.33822,63.95
0.33431,69.231
0.33138,75.88
0.32845,83.116
0.32454,90.157
0.32063,96.61
0.31672,102.67
0.31378,107.95
0.31085,112.06
0.3089,114.99
0.30596,116.95
0.30303,117.73
0.3001,117.54
0.29717,116.56
0.29326,114.99
0.29032,113.04
0.28641,110.69
0.28348,108.15
0.27957,105.02
0.27566,101.69
0.2737,97.979
0.27175,94.068
0.26882,90.157
0.26588,86.245
0.26295,82.921
0.25904,79.791
0.25611,77.249
0.25318,75.293
0.25024,73.533
0.25024,72.164
0.25318,71.186
0.26197,70.6
0.27761,70.013
0.29717,69.622
0.3216,69.426
0.35582,69.231
0.39687,69.035
0.44184,69.035
0.48778,69.035
0.53275,69.035
0.57283,68.84
0.60899,68.84
0.63832,68.644
0.66178,68.449
0.6784,68.253
0.68817,68.057
0.69208,67.666
0.69404,67.471
0.69208,67.08
0.68622,66.493
0.67644,66.102
0.66373,65.711
0.64712,65.319
0.62854,64.928
0.60704,64.537
0.58358,64.146
0.55914,63.755
0.5347,63.168
0.5132,62.777
0.49365,62.386
0.47312,61.995
0.45357,61.408
0.43597,61.017
0.42033,60.43
0.40567,60.039
0.39394,59.452
0.38319,59.061
0.37537,58.475
0.36755,58.083
0.36168,57.497
0.35777,57.106
0.35484,56.715
0.35191,56.323
0.34897,56.128
0.34604,55.932
0.34311,56.128
0.34018,56.519
0.33822,57.497
0.33529,59.452
0.33236,62.973
0.32942,68.253
0.32649,74.511
0.32356,81.356
0.3216,88.005
0.31965,94.263
0.31769,99.935
0.31476,105.02
0.31183,108.93
0.3089,111.86
0.30596,113.62
0.30303,114.6
0.3001,114.41
0.29717,113.43
0.29423,112.06
0.29032,110.1
0.28837,107.56
0.28641,104.82
0.28348,101.69
0.28055,98.37
0.27761,94.655
0.2737,90.743
0.27077,87.027
0.26686,83.312
0.26393,80.183
0.26002,77.445
0.25709,75.098
0.25415,73.338
0.2522,71.773
0.2522,70.6
0.25513,69.818
0.26197,69.231
0.27468,68.84
0.29423,68.449
0.32258,68.253
0.35777,68.057
0.39883,67.862
0.44379,67.862
0.48876,67.862
0.53275,67.862
0.57283,67.862
0.60411,67.666
0.62757,67.666
0.64907,67.471
0.66667,67.275
0.67937,67.08
0.68719,66.688
0.69013,66.493
0.68817,65.906
0.68231,65.711
0.67155,65.124
0.65787,64.733
0.64125,64.342
0.6217,63.95
0.60215,63.559
0.5826,63.168
0.56012,62.973
0.53666,62.582
0.5132,61.995
0.49071,61.604
0.46921,61.213
0.44966,60.626
0.43304,60.235
0.4174,59.844
0.40469,59.257
0.39296,58.866
0.38514,58.279
0.3783,57.888
0.37243,57.497
0.36657,56.91
0.36168,56.519
0.35777,56.128
0.35484,55.737
0.35093,55.541
0.34897,55.541
0.34604,55.737
0.34409,56.128
0.34213,57.497
0.3392,60.039
0.33822,64.146
0.33627,69.818
0.33431,76.467
0.33138,83.312
0.32845,89.961
0.32551,96.219
0.32356,101.89
0.32063,106.78
0.31769,110.5
0.31476,113.23
0.31183,114.8
0.3089,115.38
0.30694,114.99
0.30499,114.02
0.30303,112.26
0.3001,110.3
0.29619,107.95
0.29326,105.22
0.29032,102.09
0.28641,98.566
0.28348,94.85
0.27957,90.939
0.27664,87.027
0.27273,83.507
0.26979,80.378
0.26882,77.64
0.26588,75.293
0.26295,73.533
0.261,72.164
0.261,70.991
0.26491,70.209
0.27273,69.426
0.28837,69.035
0.31281,68.84
0.34409,68.644
0.38319,68.449
0.42717,68.253
0.46725,68.253
0.5044,68.253
0.54448,68.253
0.58358,68.253
0.61877,68.057
0.64907,68.057
0.67253,67.862
0.69013,67.471
0.70186,67.275
0.70772,67.08
0.70968,66.688
0.70577,66.297
0.69892,65.906
0.69697,65.515
0.69501,65.124
0.68426,64.733
0.66667,64.342
0.64418,63.95
0.61975,63.559
0.59433,63.168
0.56794,62.777
0.54252,62.386
0.51808,61.799
0.4956,61.408
0.47507,61.017
0.45846,60.43
0.44477,59.844
0.43109,59.452
0.41935,58.866
0.4086,58.475
0.3998,58.083
0.39198,57.497
0.38612,57.106
0.38025,56.715
0.37634,56.323
0.37243,55.932
0.3695,55.737
0.36657,55.737
0.36461,56.128
0.36266,56.91
0.35973,58.866
0.35679,62.19
0.35484,67.08
0.35191,73.533
0.34897,80.378
0.34506,87.419
0.34213,93.872
0.3392,99.935
0.33627,105.41
0.33333,109.71
0.33138,113.04
0.32942,115.19
0.32649,116.17
0.32356,116.36
0.32063,115.78
0.31769,114.41
0.31378,112.65
0.31085,110.5
0.30694,107.95
0.30303,105.22
0.3001,101.89
0.29619,98.37
0.29326,94.85
0.2913,90.939
0.28837,87.223
0.28446,83.703
0.28152,80.574
0.27761,78.031
0.2737,75.685
0.27077,73.924
0.26882,72.555
0.27077,71.382
0.27859,70.6
0.29228,70.013
0.31378,69.426
0.3392,69.035
0.3695,68.84
0.40958,68.644
0.45552,68.449
0.50538,68.449
0.55425,68.449
0.6002,68.449
0.64125,68.253
0.67644,68.253
0.70479,68.057
0.7263,67.862
0.74194,67.666
0.74976,67.471
0.75171,67.08
0.75171,66.688
0.74682,66.297
0.73803,65.906
0.72532,65.515
0.70968,65.124
0.69013,64.733
0.66862,64.342
0.64516,63.95
0.61877,63.559
0.59238,62.973
0.56696,62.582
0.5435,62.19
0.52297,61.799
0.50244,61.408
0.48192,60.821
0.46334,60.43
0.44673,59.844
0.43206,59.452
0.41935,58.866
0.4086,58.475
0.39883,58.083
0.39101,57.497
0.38416,57.106
0.37928,56.715
0.37634,56.519
0.37243,56.128
0.36852,56.128
0.36559,56.323
0.36266,56.715
0.35973,58.083
0.35679,60.626
0.35386,64.928
0.34995,70.795
0.34702,77.836
0.34409,85.072
0.34115,92.112
0.33822,98.566
0.33627,104.63
0.33333,109.52
0.3304,113.43
0.32649,116.36
0.32356,117.93
0.31965,118.71
0.31672,118.32
0.31281,117.54
0.30987,115.97
0.30694,114.02
0.30303,111.86
0.30108,109.32
0.29814,106.39
0.29521,103.06
0.29228,99.544
0.28837,95.828
0.28446,91.917
0.28055,88.201
0.27761,84.681
0.2737,81.552
0.26979,79.009
0.26686,76.858
0.26491,75.098
0.26491,73.729
0.26882,72.751
0.27664,72.164
0.2913,71.578
0.31476,71.186
0.348,70.991
0.38807,70.795
0.435,70.795
0.48485,70.795
0.53666,70.795
0.58553,70.795
0.62952,70.795
0.66862,70.6
0.69697,70.6
0.7175,70.404
0.73509,70.209
0.7478,69.818
0.75562,69.426
0.75953,69.035
0.75758,68.644
0.75269,68.253
0.74291,67.862
0.72923,67.471
0.71261,67.08
0.69306,66.688
0.67058,66.102
0.64907,65.711
0.62757,65.319
0.60313,64.928
0.57771,64.537
0.55327,64.146
0.52981,63.755
0.50733,63.168
0.48778,62.777
0.47019,62.19
0.45455,61.799
0.44184,61.408
0.43109,60.821
0.42229,60.43
0.41642,59.844
0.40958,59.452
0.40469,59.061
0.40078,58.67
0.39687,58.279
0.39296,58.279
0.39003,58.083
0.38807,58.279
0.38514,59.257
0.38319,61.213
0.38025,64.537
0.37732,69.818
0.37537,76.662
0.37341,83.898
0.37146,91.134
0.36852,98.175
0.36559,104.43
0.36168,109.91
0.35875,114.41
0.35582,117.73
0.35288,119.88
0.34995,120.86
0.34702,120.86
0.34409,119.88
0.34213,118.51
0.34018,116.75
0.33724,114.6
0.33431,112.06
0.33138,109.32
0.32747,106.19
0.32454,102.87
0.32063,99.153
0.31769,95.437
0.31378,91.525
0.31085,87.81
0.30792,84.485
0.30499,81.747
0.30303,79.4
0.30108,77.445
0.3001,75.88
0.30108,74.707
0.30596,73.729
0.31867,73.142
0.33822,72.555
0.36657,72.36
0.40371,72.164
0.44673,71.969
0.49462,71.969
0.5435,71.773
0.58553,71.773
0.62072,71.578
0.65689,71.382
0.69013,71.186
0.7175,70.795
0.73803,70.6
0.75367,70.209
0.76344,69.818
0.76735,69.231
0.76637,68.84
0.76246,68.253
0.75367,67.666
0.74194,67.275
0.72825,66.884
0.71163,66.297
0.69208,65.906
0.67058,65.515
0.64712,65.124
0.6217,64.733
0.59629,64.342
0.57087,63.755
0.54741,63.364
0.52493,62.973
0.5044,62.386
0.48583,61.799
0.47019,61.408
0.45846,60.821
0.44673,60.235
0.43597,59.844
0.42717,59.257
0.41838,58.866
0.41153,58.279
0.40078,57.888
0.39003,57.497
0.38221,57.106
0.37634,56.91
0.37048,56.91
0.36657,57.106
0.36364,58.083
0.35973,60.039
0.35484,63.559
0.35093,68.84
0.34604,75.489
0.34213,82.921
0.33724,90.157
0.33236,97.197
0.32747,103.46
0.32356,108.93
0.31965,113.23
0.31574,116.36
0.31183,118.32
0.30987,119.3
0.30694,119.1
0.30303,118.32
0.29912,116.75
0.29619,114.99
0.29228,112.84
0.28837,110.3
0.28446,107.37
0.27957,104.24
0.27566,100.72
0.27175,97.001
0.26882,93.09
0.26686,89.179
0.26393,85.658
0.26002,82.529
0.25709,79.791
0.25318,77.445
0.24927,75.685
0.24731,74.12
0.24829,72.947
0.25415,71.969
0.26588,71.382
0.28641,70.795
0.31574,70.6
0.348,70.404
0.38221,70.209
0.42522,70.013
0.47312,70.013
0.52004,69.818
0.565,69.818
0.60508,69.818
0.6393,69.622
0.66667,69.426
0.68622,69.231
0.70088,68.84
0.70968,68.449
0.71261,68.057
0.71065,67.666
0.70577,67.275
0.69795,66.884
0.68719,66.297
0.67253,65.906
0.65494,65.515
0.63441,64.928
0.61193,64.537
0.58749,64.146
0.56305,63.755
0.53763,63.364
0.5132,62.973
0.49267,62.386
0.4741,61.995
0.45552,61.408
0.43891,61.017
0.42229,60.43
0.4086,59.844
0.39589,59.452
0.38612,58.866
0.37732,58.475
0.3695,58.083
0.36266,57.497
0.35777,57.106
0.35386,56.715
0.35093,56.323
0.348,56.128
0.34506,56.128
0.34213,56.323
0.3392,56.91
0.33627,58.279
0.33236,60.821
0.32942,65.124
0.32649,70.795
0.32258,77.249
0.31965,84.094
0.31574,90.743
0.31281,96.806
0.31085,102.28
0.30792,106.78
0.30499,110.1
0.30205,112.45
0.29912,113.82
0.29619,114.02
0.29228,113.62
0.28935,112.45
0.28543,110.69
0.2825,108.54
0.27859,106
0.27566,103.06
0.2737,99.739
0.27077,96.219
0.26784,92.308
0.26393,88.592
0.261,84.876
0.25709,81.356
0.25415,78.422
0.25024,76.076
0.24731,73.924
0.2434,72.36
0.24145,70.991
0.24242,70.013
0.24536,69.231
0.2522,68.84
0.26588,68.449
0.28739,68.057
0.31672,67.862
0.35386,67.862
0.39589,67.862
0.44184,67.666
0.48876,67.666
0.53372,67.666
0.5738,67.471
0.60899,67.471
0.63539,67.275
0.65396,67.08
0.66862,66.884
0.68035,66.493
0.68622,66.102
0.68817,65.711
0.68524,65.319
0.67742,64.928
0.66667,64.537
0.652,64.146
0.63343,63.755
0.6129,63.364
0.59042,62.973
0.56891,62.582
0.54839,62.386
0.5259,61.995
0.50342,61.408
0.48094,61.017
0.45943,60.626
0.44086,60.039
0.42326,59.648
0.4086,59.061
0.39492,58.67
0.38319,58.083
0.37439,57.692
0.36755,57.301
0.36168,56.715
0.35679,56.323
0.35191,55.932
0.348,55.541
0.34506,55.346
0.34213,55.15
0.3392,55.15
0.33627,55.15
0.33333,55.541
0.3304,56.91
0.32845,59.061
0.32551,62.973
0.32454,68.253
0.3216,74.511
0.31867,81.16
0.31574,87.81
0.31281,93.872
0.30987,99.348
0.30694,104.04
0.30401,107.56
0.30108,110.3
0.29814,111.86
0.29521,112.26
0.29326,111.86
0.2913,110.69
0.28935,109.13
0.28641,106.98
0.28348,104.43
0.28055,101.5
0.27761,98.175
0.2737,94.655
0.27077,90.939
0.26784,87.223
0.26393,83.507
0.261,80.183
0.25709,77.445
0.25513,74.902
0.25318,72.947
0.25122,71.382
0.24829,70.209
0.24731,69.231
0.24927,68.449
0.25611,67.862
0.26979,67.471
0.29032,67.275
0.31965,67.08
0.35679,67.08
0.39883,67.08
0.44575,67.08
0.4868,66.884
0.52297,66.884
0.56207,66.884
0.59824,66.688
0.6305,66.493
0.65591,66.297
0.67546,66.102
0.68915,65.906
0.69599,65.515
0.69892,65.124
0.69599,64.733
0.68915,64.342
0.67937,63.95
0.66667,63.559
0.65005,63.168
0.6305,62.973
0.60802,62.582
0.58456,62.19
0.55914,61.799
0.5347,61.408
0.51026,61.017
0.48778,60.626
0.46628,60.039
0.4477,59.648
0.43011,59.061
0.41642,58.475
0.40567,58.083
0.39589,57.692
0.3871,57.301
0.37928,56.91
0.37243,56.323
0.36657,55.932
0.36168,55.541
0.35679,55.15
0.35288,54.759
0.34995,54.563
0.34702,54.563
0.34506,54.759
0.34311,55.346
0.34115,56.715
0.3392,59.061
0.33627,63.168
0.33333,68.84
0.3304,75.293
0.32747,81.943
0.32454,88.396
0.32063,94.459
0.31769,99.739
0.31476,104.24
0.31183,107.95
0.30987,110.3
0.31085,111.86
0.31378,112.26
0.31281,111.86
0.31183,110.89
0.3089,109.13
0.30596,106.98
0.30303,104.43
0.29912,101.69
0.29619,98.37
0.29228,95.046
0.28837,91.33
0.28543,87.419
0.28348,83.898
0.28055,80.574
0.27761,77.836
0.27468,75.293
0.27077,73.338
0.26784,71.578
0.26491,70.404
0.26491,69.231
0.26784,68.644
0.27664,68.057
0.29228,67.666
0.31574,67.471
0.34311,67.275
0.37537,67.08
0.41642,67.08
0.46237,67.08
0.51222,67.08
0.56012,66.884
0.60508,66.884
0.64418,66.884
0.67742,66.688
0.70381,66.493
0.72336,66.297
0.73607,65.906
0.74291,65.711
0.74291,65.319
0.74096,64.928
0.73412,64.537
0.72336,64.146
0.7087,63.755
0.69013,63.364
0.66862,62.973
0.64516,62.582
0.61975,62.19
0.59433,61.799
0.56794,61.408
0.54252,61.017
0.52102,60.626
0.50147,60.235
0.48289,59.648
0.4653,59.257
0.44868,58.67
0.43402,58.279
0.42229,57.888
0.41153,57.301
0.40176,56.91
0.39394,56.519
0.38807,56.128
0.38221,55.737
0.3783,55.346
0.37537,55.15
0.37243,54.954
0.3695,54.954
0.36657,55.15
0.36364,55.932
0.3607,57.692
0.35777,60.821
0.35484,65.711
0.35191,71.969
0.34897,78.814
0.34604,85.658
0.34213,92.112
0.34018,98.175
0.33822,103.65
0.33529,107.95
0.33236,111.28
0.32942,113.43
0.32649,114.6
0.32356,114.8
0.31965,114.21
0.31672,113.04
0.31378,111.28
0.30987,108.93
0.30694,106.58
0.30401,103.65
0.30205,100.52
0.29912,96.806
0.29619,93.09
0.29228,89.179
0.28837,85.463
0.28543,81.943
0.28152,79.009
0.27761,76.467
0.27468,74.316
0.27077,72.751
0.26979,71.382
0.27077,70.404
0.27468,69.622
0.28348,69.035
0.3001,68.644
0.32454,68.253
0.35875,68.057
0.40078,68.057
0.4477,67.862
0.49951,67.862
0.55034,67.862
0.59922,67.862
0.64321,67.862
0.68133,67.666
0.7087,67.666
0.72825,67.471
0.74487,67.275
0.7566,66.884
0.76344,66.493
0.7654,66.102
0.76246,65.906
0.75464,65.319
0.74291,64.928
0.72727,64.537
0.70772,64.342
0.68622,63.95
0.6608,63.559
0.63832,63.168
0.61486,62.777
0.59042,62.386
0.565,62.19
0.53959,61.604
0.51613,61.213
0.49462,60.821
0.47507,60.43
0.45748,59.844
0.44282,59.452
0.43011,59.061
0.41935,58.67
0.41056,58.279
0.40469,57.692
0.39785,57.301
0.39198,56.91
0.3871,56.715
0.38319,56.323
0.37928,56.323
0.37634,56.323
0.37243,56.91
0.3695,58.083
0.36657,60.235
0.36364,64.146
0.36168,69.622
0.35875,76.271
0.35582,83.312
0.35288,90.352
0.34995,96.806
0.34604,102.67
0.34311,107.56
0.34018,111.47
0.33627,114.21
0.33333,115.97
0.3304,116.75
0.32747,116.56
0.32454,115.58
0.32258,114.21
0.32063,112.26
0.31769,110.1
0.31476,107.56
0.31183,104.63
0.30792,101.5
0.30499,97.979
0.30205,94.263
0.29814,90.548
0.29521,86.832
0.29228,83.507
0.28837,80.769
0.28641,78.227
0.28446,76.271
0.2825,74.511
0.28152,73.338
0.28348,72.555
0.29032,71.773
0.30303,71.382
0.32454,70.991
0.35386,70.795
0.39198,70.6
0.43695,70.6
0.4868,70.6
0.53763,70.6
0.58162,70.6
0.61877,70.6
0.65689,70.6
0.69208,70.404
0.72141,70.209
0.74389,70.013
0.76051,69.622
0.77126,69.426
0.77713,69.035
0.77713,68.644
0.77224,68.253
0.76344,67.666
0.75269,67.471
0.73803,67.08
0.72043,66.688
0.6999,66.102
0.67644,65.711
0.652,65.319
0.62659,64.928
0.60117,64.537
0.57576,64.146
0.55132,63.755
0.52981,63.168
0.50929,62.777
0.49169,62.19
0.47801,61.799
0.46628,61.408
0.45552,60.821
0.44673,60.43
0.43891,59.844
0.43206,59.452
0.4262,59.061
0.42131,58.67
0.4174,58.475
0.41447,58.279
0.41153,58.083
0.4086,58.279
0.40567,59.061
0.40371,60.821
0.40176,63.95
0.39883,69.035
0.39687,75.293
0.39394,82.529
0.39003,89.765
0.3871,96.61
0.38416,103.06
0.38025,108.74
0.37732,113.23
0.37439,116.56
0.37048,118.9
0.36852,119.88
0.36559,120.08
0.36364,119.49
0.35973,118.12
0.35679,116.36
0.35288,114.41
0.34995,111.86
0.34604,109.13
0.34213,106.19
0.33822,102.87
0.33431,99.348
0.33138,95.437
0.32845,91.525
0.32649,87.81
0.32356,84.485
0.31965,81.552
0.31574,79.009
0.31281,77.054
0.30987,75.293
0.30987,74.12
0.30987,73.142
0.31378,72.36
0.32747,71.969
0.35191,71.578
0.38416,71.382
0.41838,71.186
0.45357,71.186
0.49756,71.186
0.5435,70.991
0.58847,70.991
0.62952,70.991
0.66569,70.795
0.69599,70.6
0.71945,70.404
0.73607,70.013
0.74682,69.622
0.75269,69.231
0.75367,68.84
0.74976,68.253
0.74291,67.862
0.73216,67.275
0.71945,66.884
0.70186,66.297
0.68231,65.906
0.65982,65.515
0.63636,65.124
0.61095,64.733
0.58456,64.342
0.55914,63.95
0.53372,63.364
0.51222,62.973
0.49365,62.386
0.47507,61.799
0.45748,61.408
0.44184,60.821
0.42815,60.235
0.41642,59.844
0.40665,59.257
0.39785,58.67
0.39101,58.279
0.38514,57.888
0.37928,57.497
0.37537,57.106
0.37243,56.91
0.3695,56.91
0.36559,56.91
0.36168,57.497
0.35875,59.061
0.35484,61.799
0.35093,66.297
0.34702,72.36
0.34311,79.4
0.3392,86.636
0.33529,93.481
0.33138,99.739
0.32747,105.61
0.32454,110.3
0.3216,113.82
0.31769,116.17
0.31476,117.34
0.31085,117.73
0.30694,116.95
0.30303,115.78
0.29912,113.82
0.29521,111.86
0.2913,109.32
0.28739,106.39
0.28446,103.26
0.2825,99.739
0.27859,96.024
0.27468,92.112
0.27077,88.201
0.26784,84.485
0.26393,81.16
0.26002,78.422
0.25611,76.271
0.25318,74.316
0.25024,72.947
0.25024,71.773
0.25318,70.795
0.26002,70.404
0.27175,70.013
0.2913,69.622
0.31965,69.622
0.35679,69.426
0.3998,69.231
0.44673,69.231
0.4956,69.231
0.54154,69.035
0.58456,69.035
0.62268,69.035
0.65298,68.84
0.67449,68.449
0.68915,68.253
0.70088,67.862
0.70772,67.471
0.71065,67.08
0.7087,66.688
0.70283,66.102
0.69208,65.711
0.6784,65.319
0.6608,64.733
0.64125,64.537
0.61877,63.95
0.59726,63.559
0.57576,63.168
0.55132,62.777
0.52688,62.386
0.50244,61.995
0.47996,61.604
0.45846,61.017
0.43988,60.626
0.42326,60.039
0.4086,59.648
0.39589,59.061
0.38514,58.475
0.37634,58.083
0.3695,57.692
0.36461,57.106
0.35973,56.91
0.35582,56.519
0.35191,56.128
0.348,55.932
0.34506,55.737
0.34213,55.737
0.3392,56.128
0.33627,57.106
0.33333,59.257
0.3304,62.777
0.32845,67.666
0.32551,73.924
0.32356,80.769
0.32063,87.419
0.31672,93.677
0.31378,99.348
0.31085,104.24
0.30792,108.15
0.30401,110.89
0.30108,112.65
0.29814,113.23
0.29521,113.04
0.2913,112.06
0.28935,110.5
0.28641,108.54
0.28348,106
0.28055,103.06
0.27664,99.935
0.2737,96.415
0.26979,92.503
0.26588,88.788
0.26295,85.072
0.25904,81.552
0.25513,78.618
0.2522,76.076
0.25024,73.924
0.24829,72.164
0.24633,70.991
0.24438,69.818
0.24536,69.035
0.24927,68.449
0.25904,68.057
0.27664,67.862
0.30205,67.666
0.33529,67.471
0.37537,67.471
0.42033,67.471
0.46725,67.471
0.50831,67.471
0.5435,67.471
0.58065,67.275
0.61388,67.08
0.64223,66.884
0.66471,66.688
0.68133,66.493
0.6911,66.102
0.69599,65.711
0.69599,65.319
0.69013,64.928
0.68133,64.537
0.66862,64.146
0.65494,63.755
0.63636,63.168
0.61584,62.973
0.59238,62.582
0.56794,62.19
0.5435,61.799
0.51906,61.408
0.49462,61.017
0.47312,60.626
0.45259,60.039
0.43402,59.648
0.4174,59.061
0.40567,58.67
0.39492,58.279
0.38612,57.692
0.37732,57.301
0.3695,56.91
0.36364,56.323
0.35777,55.932
0.35288,55.541
0.34897,55.15
0.34604,54.954
0.34311,54.954
0.34115,54.954
0.3392,55.346
0.33724,56.323
0.33529,58.279
0.33333,61.799
0.3304,66.884
0.32747,73.142
0.32454,79.791
0.3216,86.441
0.31867,92.503
0.31574,98.175
0.31281,102.87
0.30987,106.78
0.30694,109.52
0.30401,111.08
0.30303,111.86
0.3001,111.67
0.29717,110.69
0.29423,109.13
0.2913,107.17
0.28837,104.63
0.28446,101.69
0.28152,98.566
0.27761,95.046
0.27468,91.33
0.27077,87.419
0.26882,83.898
0.26686,80.378
0.26393,77.445
0.261,75.098
0.25806,72.947
0.25415,71.186
0.2522,70.013
0.25024,69.035
0.25122,68.253
0.25611,67.666
0.26686,67.275
0.28446,67.08
0.31085,66.884
0.34018,66.688
0.37243,66.688
0.41251,66.688
0.45846,66.688
0.50538,66.688
0.55034,66.688
0.59042,66.688
0.62561,66.493
0.65494,66.297
0.67742,66.102
0.69306,65.906
0.70283,65.515
0.70674,65.319
0.70577,64.733
0.69892,64.537
0.68719,63.95
0.67449,63.559
0.65787,63.168
0.63832,62.777
0.61779,62.386
0.59433,61.995
0.56989,61.604
0.54545,61.408
0.52199,60.821
0.49853,60.43
0.47898,60.039
0.46237,59.648
0.44575,59.061
0.43011,58.67
0.41544,58.279
0.40371,57.692
0.39296,57.301
0.38416,56.91
0.37732,56.323
0.37146,55.932
0.36559,55.541
0.36168,55.15
0.35875,54.759
0.35582,54.563
0.35386,54.368
0.35093,54.563
0.34897,54.954
0.34604,55.737
0.34409,57.888
0.34115,61.408
0.3392,66.688
0.33627,73.142
0.33333,79.987
0.3304,86.832
0.32747,93.286
0.32454,98.957
0.32258,104.04
0.32063,108.15
0.31769,111.08
0.31476,112.84
0.31183,113.62
0.3089,113.43
0.30596,112.65
0.30303,111.28
0.3001,109.13
0.29717,106.78
0.29326,104.04
0.2913,101.11
0.28935,97.784
0.28641,94.068
0.28348,90.157
0.27957,86.245
0.27664,82.725
0.27273,79.4
0.26979,76.662
0.26588,74.511
0.26295,72.751
0.26002,71.186
0.25806,70.209
0.25904,69.231
0.26295,68.84
0.27175,68.449
0.28641,68.057
0.30987,67.862
0.34115,67.862
0.38025,67.862
0.42424,67.862
0.47214,67.862
0.52004,68.057
0.565,68.057
0.60606,68.057
0.64125,68.057
0.66667,67.862
0.68524,67.666
0.6999,67.471
0.71163,67.275
0.7175,66.884
0.71945,66.493
0.71652,66.102
0.7087,65.906
0.69697,65.515
0.68133,65.124
0.66276,64.733
0.64223,64.342
0.62072,63.95
0.6002,63.559
0.57674,63.168
0.55327,62.777
0.52884,62.386
0.50538,61.995
0.48387,61.604
0.46334,61.213
0.44673,60.626
0.43109,60.235
0.41838,59.844
0.40762,59.452
0.39785,58.866
0.39101,58.475
0.38612,58.083
0.38123,57.692
0.37634,57.301
0.37341,56.91
0.3695,56.715
0.36755,56.519
0.36559,56.715
0.36266,57.106
0.3607,58.279
0.35875,60.821
0.35679,64.928
0.35484,70.6
0.35386,77.445
0.35191,84.681
0.34897,91.721
0.34604,98.175
0.34409,104.04
0.34115,108.74
0.3392,112.45
0.33627,114.99
0.33333,116.56
0.33138,116.95
0.32845,116.56
0.32649,115.38
0.32454,113.82
0.32258,111.86
0.32063,109.52
0.31867,106.98
0.31574,104.04
0.31281,100.72
0.30987,97.197
0.30694,93.481
0.30499,89.765
0.30205,86.245
0.29912,83.116
0.29717,80.378
0.29521,78.031
0.29326,76.076
0.29228,74.707
0.2913,73.533
0.29228,72.555
0.29814,71.969
0.3089,71.382
0.32747,71.186
0.35484,70.991
0.38905,70.991
0.43109,70.991
0.47703,70.991
0.52395,70.991
0.565,70.991
0.6002,70.795
0.63636,70.795
0.66862,70.6
0.69697,70.404
0.71848,70.013
0.73412,69.622
0.74389,69.231
0.74878,68.84
0.74976,68.253
0.74487,67.666
0.73705,67.275
0.7263,66.688
0.71261,66.102
0.69697,65.711
0.67742,65.319
0.65591,64.733
0.63343,64.342
0.60899,63.95
0.58553,63.364
0.56207,62.973
0.53959,62.582
0.52004,61.995
0.50049,61.604
0.48387,61.213
0.47116,60.626
0.45943,60.039
0.44966,59.648
0.43988,59.061
0.43206,58.67
0.42522,58.279
0.41935,57.692
0.41544,57.301
0.41153,56.91
0.40762,56.519
0.40469,56.323
0.40078,56.519
0.39883,56.91
0.39589,58.279
0.39296,61.017
0.39003,65.711
0.3871,71.969
0.38319,79.205
0.37928,86.636
0.37537,93.872
0.37146,100.52
0.36755,106.39
0.36364,111.28
0.35973,114.99
0.35484,117.54
0.35191,118.71
0.34897,119.1
0.34604,118.51
0.34213,117.34
0.33822,115.58
0.33431,113.43
0.3304,111.08
0.32551,108.54
0.3216,105.41
0.31672,102.28
0.31183,98.566
0.30694,94.85
0.30401,90.743
0.30108,87.027
0.29717,83.507
0.29228,80.574
0.28837,78.031
0.28348,75.88
0.27957,74.316
0.27664,72.947
0.27664,71.969
0.28152,71.186
0.29326,70.795
0.31281,70.404
0.34213,70.209
0.37243,70.013
0.40665,70.013
0.44868,70.013
0.4956,69.818
0.54154,69.818
0.58553,69.622
0.62463,69.622
0.65787,69.426
0.68426,69.035
0.70381,68.84
0.7175,68.449
0.72532,68.057
0.72727,67.666
0.72532,67.275
0.72043,66.688
0.71261,66.297
0.70088,65.906
0.68622,65.319
0.66764,64.928
0.64712,64.537
0.62463,64.146
0.60117,63.755
0.57576,63.364
0.55034,62.973
0.5259,62.386
0.5044,61.995
0.48583,61.408
0.46725,61.017
0.44966,60.43
0.43402,59.844
0.41935,59.452
0.40762,58.866
0.39785,58.279
0.3871,57.888
0.3783,57.497
0.37048,57.106
0.36559,56.715
0.36168,56.323
0.35875,55.932
0.35582,55.737
0.35288,55.737
0.34995,55.932
0.34702,56.715
0.34409,58.279
0.34115,61.408
0.33724,66.102
0.33431,72.36
0.3304,79.596
0.32649,86.636
0.32356,93.481
0.32063,99.544
0.31867,105.02
0.31574,109.32
0.31183,112.65
0.3089,114.8
0.30596,115.78
0.30303,115.97
0.29912,115.19
0.29619,113.82
0.29228,111.86
0.28837,109.71
0.28543,107.17
0.2825,104.04
0.28055,100.72
0.27664,97.197
0.2737,93.286
0.26979,89.57
0.26686,85.854
0.26295,82.334
0.25904,79.205
0.25611,76.662
0.2522,74.511
0.24927,72.947
0.24633,71.578
0.24633,70.6
0.24829,69.818
0.25415,69.231
0.26686,68.84
0.28641,68.644
0.31476,68.449
0.35191,68.253
0.39394,68.253
0.44086,68.057
0.48876,68.057
0.53568,68.057
0.57771,68.057
0.61486,67.862
0.64223,67.862
0.66276,67.471
0.68035,67.275
0.69306,67.08
0.70088,66.688
0.70381,66.297
0.70186,65.906
0.69599,65.515
0.68622,64.928
0.67253,64.537
0.65591,64.146
0.63539,63.755
0.61584,63.364
0.59629,62.973
0.57283,62.582
0.54839,62.19
0.52395,61.604
0.50049,61.213
0.47801,60.821
0.45748,60.43
0.43793,59.844
0.42131,59.452
0.40762,58.866
0.39492,58.279
0.38416,57.888
0.37634,57.497
0.37048,57.106
0.36461,56.715
0.35973,56.128
0.35484,55.737
0.35093,55.346
0.34702,55.15
0.34409,55.15
0.34213,55.15
0.3392,55.541
0.33627,56.715
0.33431,58.67
0.33236,62.386
0.3304,67.471
0.32747,73.729
0.32551,80.378
0.32258,87.027
0.31965,93.286
0.31574,98.957
0.31281,103.85
0.30987,107.76
0.30694,110.5
0.30303,112.06
0.3001,112.84
0.29717,112.65
0.29423,111.67
0.29228,110.1
0.29032,107.95
0.28739,105.61
0.28348,102.67
0.28055,99.544
0.27664,96.024
0.2737,92.308
0.26979,88.592
0.26588,84.876
0.26295,81.356
0.25904,78.227
0.25709,75.685
0.25513,73.533
0.2522,71.969
0.25024,70.6
0.24829,69.426
0.24829,68.84
0.2522,68.057
0.26002,67.666
0.27566,67.471
0.29912,67.275
0.33138,67.275
0.3695,67.08
0.41349,67.08
0.45357,67.08
0.49169,67.08
0.53275,66.884
0.57185,66.884
0.60704,66.688
0.63734,66.493
0.66178,66.297
0.6784,66.102
0.69013,65.906
0.69599,65.515
0.69697,65.124
0.69306,64.537
0.68524,64.342
0.67449,63.95
0.6608,63.364
0.64321,62.973
0.62268,62.777
0.6002,62.386
0.57576,61.995
0.55132,61.604
0.52688,61.213
0.50244,60.821
0.47996,60.43
0.45943,59.844
0.44086,59.452
0.4262,59.061
0.41447,58.475
0.40274,58.083
0.39198,57.692
0.38319,57.106
0.37537,56.715
0.36852,56.323
0.36266,55.932
0.35777,55.541
0.35386,55.15
0.35093,54.954
0.348,54.759
0.34604,54.759
0.34409,55.15
0.34213,55.932
0.3392,57.692
0.33724,60.821
0.33431,65.711
0.33138,71.969
0.32845,78.814
0.32551,85.658
0.32258,92.112
0.31965,97.979
0.31769,103.06
0.31476,107.17
0.31281,110.3
0.31085,112.06
0.3089,113.23
0.30596,113.23
0.30303,112.45
0.3001,111.08
0.29717,109.32
0.29326,106.98
0.29032,104.24
0.28739,101.3
0.28348,97.979
0.28055,94.263
0.27761,90.352
0.27566,86.636
0.2737,82.921
0.27077,79.791
0.26686,76.858
0.26393,74.707
0.261,72.751
0.25806,71.186
0.25513,70.013
0.25415,69.035
0.25709,68.253
0.26491,67.862
0.28055,67.471
0.29912,67.275
0.32258,67.275
0.35679,67.08
0.39785,67.08
0.44379,67.08
0.49071,67.08
0.53763,67.08
0.58065,67.08
0.61877,66.884
0.65005,66.688
0.67546,66.493
0.69404,66.297
0.70479,66.102
0.71065,65.906
0.71261,65.515
0.71065,65.124
0.70479,64.537
0.69501,64.146
0.68231,63.755
0.66471,63.364
0.64516,62.973
0.62268,62.582
0.59824,62.19
0.57283,61.799
0.54839,61.408
0.5259,61.017
0.50635,60.626
0.48583,60.235
0.4653,59.648
0.4477,59.257
0.43109,58.67
0.41642,58.279
0.40371,57.888
0.39296,57.497
0.38416,57.106
0.37732,56.715
0.37048,56.323
0.36657,55.737
0.36266,55.541
0.35973,55.346
0.35582,55.15
0.35288,55.15
0.34995,55.541
0.348,56.519
0.34506,58.279
0.34213,61.799
0.34018,66.884
0.33724,73.338
0.33431,80.378
0.33138,87.419
0.32845,93.872
0.32649,99.935
0.32649,105.22
0.32747,109.52
0.32649,112.65
0.32356,114.8
0.3216,115.78
0.31769,115.78
0.31476,114.99
0.31183,113.62
0.30792,111.86
0.30401,109.71
0.30205,107.17
0.3001,104.24
0.29717,101.11
0.29423,97.588
0.29032,93.872
0.28739,90.157
0.28348,86.245
0.27957,82.921
0.27664,79.987
0.27273,77.445
0.26979,75.293
0.26686,73.729
0.26491,72.555
0.26491,71.578
0.26784,70.795
0.27468,70.404
0.28837,70.209
0.31085,70.013
0.34213,70.013
0.38123,70.013
0.42717,70.013
0.47801,70.013
0.52981,70.013
0.57967,70.013
0.62561,70.013
0.6608,70.013
0.68817,70.013
0.71359,69.818
0.73509,69.426
0.74976,69.035
0.75953,68.84
0.76344,68.449
0.76246,67.862
0.7566,67.471
0.74682,67.08
0.73314,66.688
0.71652,66.297
0.69795,65.906
0.6784,65.515
0.65591,65.124
0.6305,64.928
0.60411,64.537
0.57771,63.95
0.55327,63.559
0.52884,63.168
0.50733,62.777
0.48778,62.19
0.47019,61.799
0.45552,61.408
0.44379,60.821
0.43402,60.43
0.4262,59.844
0.42033,59.452
0.41447,59.061
0.40958,58.67
0.40567,58.279
0.40176,58.083
0.3998,57.888
0.39687,58.083
0.39492,58.67
0.39296,60.039
0.39003,62.973
0.38905,67.666
0.3871,73.924
0.38514,81.16
0.38221,88.788
0.37928,95.828
0.37732,102.48
0.37439,108.34
0.37146,113.23
0.36852,116.95
0.36559,119.49
0.36266,120.67
0.35973,121.06
0.35679,120.47
0.35484,119.3
0.35288,117.73
0.35093,115.58
0.348,113.23
0.34506,110.69
0.34115,107.76
0.33822,104.63
0.33529,101.11
0.33138,97.393
0.32845,93.481
0.32551,89.57
0.32258,86.05
0.32063,82.921
0.31769,80.378
0.31476,78.227
0.31183,76.662
0.30987,75.098
0.31085,74.12
0.31574,73.338
0.32747,72.751
0.34702,72.36
0.37537,72.164
0.41251,71.969
0.4565,71.969
0.50538,71.773
0.54839,71.773
0.58847,71.578
0.63148,71.578
0.67155,71.382
0.70772,71.186
0.73705,70.795
0.75953,70.6
0.77615,70.209
0.7869,69.622
0.79179,69.231
0.79179,68.84
0.78788,68.449
0.78006,67.862
0.76931,67.471
0.75562,67.08
0.73803,66.493
0.71848,66.102
0.69501,65.711
0.67058,65.319
0.64418,64.928
0.61779,64.537
0.5914,63.95
0.56598,63.559
0.54252,62.973
0.52004,62.582
0.50244,61.995
0.4868,61.408
0.47214,61.017
0.45846,60.43
0.44673,59.844
0.43695,59.452
0.42815,58.866
0.42033,58.475
0.41251,58.083
0.40665,57.692
0.40078,57.301
0.39589,57.106
0.39198,57.106
0.38807,57.497
0.38416,58.67
0.38025,61.213
0.37634,65.515
0.37146,71.578
0.36657,78.814
0.36168,86.441
0.35679,94.068
0.35191,101.11
0.348,107.37
0.34311,112.65
0.3392,116.75
0.33529,119.49
0.33236,121.06
0.32845,121.64
0.32454,121.25
0.32063,120.08
0.31672,118.51
0.31183,116.56
0.30792,114.41
0.30401,111.86
0.29912,108.93
0.29521,105.61
0.2913,102.28
0.28739,98.37
0.28543,94.459
0.2825,90.548
0.27859,86.832
0.27468,83.507
0.27077,80.574
0.26588,78.227
0.26197,76.271
0.25904,74.902
0.25904,73.729
0.26295,72.947
0.27273,72.164
0.2913,71.773
0.31378,71.382
0.34213,71.186
0.38123,71.186
0.42815,70.991
0.47898,70.991
0.53079,70.991
0.58065,70.795
0.62561,70.795
0.66373,70.6
0.69599,70.404
0.72141,70.209
0.739,69.818
0.74976,69.426
0.75367,69.035
0.75562,68.644
0.75269,68.253
0.74682,67.666
0.73607,67.275
0.72239,66.884
0.70577,66.297
0.68524,65.906
0.66276,65.515
0.63832,65.124
0.61193,64.733
0.58553,64.342
0.56109,63.755
0.53959,63.364
0.51613,62.973
0.49365,62.386
0.47312,61.799
0.45455,61.408
0.43793,60.821
0.42424,60.235
0.41153,59.844
0.40078,59.257
0.39198,58.866
0.38514,58.279
0.37928,57.888
0.37537,57.497
0.37048,57.106
0.36657,56.91
0.36364,56.91
0.35973,57.106
0.35679,57.888
0.35288,59.452
0.34995,62.386
0.34702,67.08
0.34311,73.338
0.3392,80.378
0.33529,87.419
0.33236,94.263
0.3304,100.52
0.32747,106
0.32356,110.5
0.32063,113.82
0.31672,116.17
0.31378,117.34
0.30987,117.54
0.30694,116.75
0.30303,115.38
0.29912,113.62
0.29521,111.47
0.29326,108.93
0.29032,106
0.28739,102.67
0.28348,99.153
0.28055,95.437
0.27664,91.525
0.27273,87.614
0.26882,84.289
0.26491,81.16
0.26002,78.422
0.25415,76.271
0.24927,74.511
0.24731,72.947
0.24633,71.969
0.24731,70.991
0.25122,70.404
0.261,70.013
0.27859,69.818
0.30401,69.426
0.33724,69.426
0.37634,69.231
0.42033,69.231
0.46725,69.231
0.51222,69.035
0.55425,69.035
0.58749,69.035
0.61388,68.84
0.63832,68.644
0.65787,68.449
0.67253,68.057
0.68231,67.666
0.68719,67.275
0.68622,66.884
0.68231,66.493
0.67351,66.102
0.66178,65.711
0.64712,65.319
0.6305,64.733
0.61388,64.537
0.59335,64.146
0.56989,63.755
0.54643,63.364
0.52297,62.973
0.49951,62.386
0.47703,61.799
0.45552,61.408
0.43695,61.017
0.42033,60.43
0.40567,59.844
0.39296,59.452
0.38319,59.061
0.37537,58.475
0.36852,58.083
0.36168,57.692
0.35582,57.106
0.35093,56.91
0.34702,56.519
0.34409,56.323
0.34115,56.323
0.33822,56.519
0.33529,57.106
0.33333,58.475
0.33138,61.408
0.32942,65.906
0.32747,71.773
0.32454,78.618
0.32258,85.658
0.31965,92.308
0.31672,98.566
0.31378,104.04
0.31085,108.74
0.30792,112.06
0.30499,114.6
0.30205,115.78
0.29912,116.17
0.29717,115.58
0.29521,114.41
0.29326,112.65
0.29032,110.5
0.28739,107.95
0.28446,105.02
0.28055,101.89
0.27761,98.175
0.2737,94.459
0.27077,90.548
0.26686,86.636
0.26393,83.116
0.26197,79.987
0.26002,77.445
0.25806,75.098
0.25513,73.338
0.2522,71.969
0.25024,70.991
0.25122,70.209
0.25513,69.622
0.26588,69.231
0.2825,69.035
0.30792,68.84
0.34115,68.644
0.38123,68.449
0.41935,68.449
0.4565,68.449
0.49853,68.449
0.54057,68.253
0.57967,68.253
0.61388,68.057
0.64223,67.862
0.66471,67.666
0.68133,67.275
0.69208,67.08
0.69697,66.688
0.69697,66.297
0.69306,65.906
0.68524,65.515
0.67449,65.124
0.65982,64.733
0.64321,64.342
0.62268,63.95
0.6002,63.559
0.57674,62.973
0.5523,62.777
0.52786,62.19
0.49951,61.799
0.4741,61.408
0.45748,60.821
0.44184,60.43
0.42913,59.844
0.41544,59.452
0.40274,58.866
0.39198,58.475
0.38221,58.083
0.37439,57.497
0.36755,57.106
0.36168,56.715
0.35679,56.128
0.35288,55.932
0.34897,55.737
0.34604,55.541
0.34409,55.932
0.34213,56.519
0.3392,58.279
0.33724,61.213
0.33431,65.906
0.33138,71.969
0.32845,78.814
0.32551,85.854
0.32258,92.503
0.31965,98.761
0.31672,104.24
0.31378,108.74
0.31183,112.06
0.30987,114.21
0.30792,115.38
0.30596,115.58
0.30303,114.99
0.3001,113.82
0.29717,112.06
0.29326,109.91
0.29032,107.37
0.28641,104.63
0.28348,101.3
0.27957,97.979
0.27664,94.068
0.27468,90.352
0.27273,86.441
0.26979,82.921
0.26588,79.791
0.26295,77.249
0.25904,75.098
0.25611,73.533
0.2522,72.164
0.25122,71.186
0.2522,70.404
0.25709,70.013
0.26882,69.622
0.28446,69.426
0.30499,69.231
0.33529,69.231
0.37341,69.231
0.41642,69.231
0.46334,69.231
0.50929,69.231
0.55327,69.231
0.59335,69.231
0.62659,69.035
0.65494,69.035
0.67546,68.644
0.68915,68.449
0.69599,68.057
0.70088,67.666
0.70088,67.275
0.69795,66.884
0.69013,66.493
0.67937,66.102
0.66471,65.711
0.64712,65.319
0.62659,64.928
0.60411,64.537
0.57967,64.146
0.55523,63.755
0.53372,63.364
0.5132,62.973
0.49267,62.386
0.47214,61.995
0.45357,61.604
0.43695,61.213
0.42131,60.626
0.4086,60.235
0.39785,59.844
0.38905,59.452
0.38123,58.866
0.37537,58.475
0.37048,58.083
0.36755,57.888
0.36364,57.497
0.3607,57.497
0.35875,57.497
0.35582,58.083
0.35386,59.452
0.35191,62.19
0.34995,66.688
0.34702,72.751
0.34506,79.791
0.34213,87.223
0.34018,94.263
0.33822,100.91
0.33627,106.78
0.33431,111.67
0.33236,115.38
0.32942,117.93
0.32747,119.3
0.32454,119.49
0.32258,119.1
0.31965,117.93
0.31769,116.36
0.31476,114.41
0.31281,112.06
0.31085,109.52
0.3089,106.78
0.30694,103.46
0.30499,100.13
0.30205,96.415
0.3001,92.503
0.29717,88.788
0.29521,85.463
0.29228,82.334
0.28935,79.791
0.28739,77.64
0.28446,76.076
0.28348,74.902
0.28739,73.924
0.2913,73.142
0.29814,72.751
0.31183,72.36
0.33431,72.164
0.36461,72.164
0.40274,72.164
0.44673,72.164
0.49365,72.164
0.53959,72.164
0.58456,72.164
0.62366,71.773
0.65396,71.578
0.67742,71.186
0.69795,70.795
0.72043,70.404
0.74096,69.818
0.75269,69.231
0.7566,68.644
0.7566,68.253
0.75073,67.666
0.74096,67.08
0.72825,66.688
0.71163,66.102
0.69404,65.711
0.67546,65.319
0.65396,64.928
0.6305,64.537
0.60606,64.146
0.58162,63.755
0.55816,63.168
0.53568,62.777
0.51417,62.19
0.4956,61.604
0.47898,61.213
0.46432,60.626
0.45259,60.039
0.44282,59.452
0.435,59.061
0.42815,58.475
0.42229,58.083
0.4174,57.692
0.41251,57.301
0.4086,56.91
0.40469,56.91
0.40078,56.91
0.39687,57.497
0.39394,59.061
0.39003,62.19
0.3871,67.275
0.38416,73.729
0.38025,81.16
0.37634,88.788
0.37243,96.024
0.36755,102.48
0.36266,108.34
0.35875,113.04
0.35386,116.56
0.34995,118.9
0.34506,119.88
0.34115,120.08
0.33724,119.3
0.33431,117.93
0.33138,116.17
0.32747,114.02
0.32258,111.67
0.31867,109.13
0.31378,106
0.3089,102.87
0.30401,99.153
0.29912,95.437
0.29423,91.525
0.28935,87.81
0.28446,84.289
0.28152,81.16
0.27859,78.618
0.27468,76.662
0.27077,74.902
0.26686,73.533
0.26588,72.36
0.26882,71.773
0.27761,71.186
0.29521,70.795
0.32063,70.6
0.35484,70.404
0.39687,70.404
0.44379,70.404
0.48583,70.404
0.52493,70.209
0.56696,70.013
0.60606,70.013
0.64125,69.622
0.67058,69.426
0.69306,69.231
0.70968,68.84
0.72043,68.449
0.72532,68.057
0.72532,67.471
0.72141,67.08
0.71457,66.493
0.70381,66.102
0.6911,65.711
0.67449,65.124
0.65494,64.733
0.63343,64.342
0.60997,63.755
0.58553,63.364
0.56012,62.973
0.5347,62.582
0.51124,61.995
0.48778,61.604
0.46725,61.017
0.44966,60.626
0.43597,60.039
0.42229,59.452
0.40958,59.061
0.39883,58.475
0.38905,58.083
0.38123,57.692
0.37439,57.106
0.36852,56.91
0.36461,56.519
0.35973,56.128
0.35679,56.128
0.35386,56.128
0.35191,56.519
0.34897,57.497
0.34604,59.844
0.34213,63.755
0.3392,69.231
0.33627,76.076
0.33333,83.312
0.32942,90.352
0.32551,96.806
0.3216,102.67
0.31867,107.76
0.31476,111.67
0.31183,114.41
0.30987,115.97
0.30694,116.56
0.30401,116.17
0.3001,115.19
0.29717,113.43
0.29326,111.47
0.29032,109.13
0.28641,106.39
0.2825,103.26
0.27859,99.935
0.27468,96.219
0.27175,92.308
0.26979,88.396
0.26686,84.681
0.26393,81.356
0.26002,78.618
0.25709,76.076
0.25318,74.12
0.24927,72.555
0.24731,71.382
0.24633,70.404
0.24927,69.622
0.25709,69.231
0.27175,68.84
0.29032,68.644
0.31476,68.449
0.34897,68.449
0.39101,68.253
0.43695,68.253
0.48485,68.253
0.53275,68.057
0.57576,68.057
0.61388,67.862
0.64614,67.666
0.67155,67.471
0.69013,67.275
0.70088,66.884
0.70674,66.493
0.7087,65.906
0.70674,65.515
0.70088,65.124
0.69208,64.733
0.6784,64.342
0.66276,63.95
0.64321,63.559
0.6217,62.973
0.59726,62.777
0.57283,62.386
0.54741,61.995
0.52493,61.408
0.5044,61.213
0.48387,60.626
0.46334,60.235
0.44379,59.648
0.42717,59.061
0.41251,58.67
0.39883,58.279
0.38807,57.692
0.37928,57.301
0.37146,56.91
0.36461,56.323
0.3607,55.932
0.35679,55.541
0.35386,55.346
0.34995,55.15
0.34702,54.954
0.34506,55.15
0.34213,55.737
0.3392,56.91
0.33627,59.257
0.33431,63.364
0.33138,69.035
0.32845,75.489
0.32551,82.334
0.32356,88.788
0.32063,94.85
0.31769,100.13
0.31476,104.63
0.31183,108.15
0.3089,110.69
0.30596,111.86
0.30303,112.26
0.3001,111.86
0.29717,110.69
0.29423,108.93
0.29032,106.78
0.28837,104.24
0.28543,101.3
0.2825,98.175
0.27957,94.655
0.27566,90.939
0.27273,87.027
0.26882,83.507
0.26588,80.183
0.26197,77.249
0.25904,74.902
0.25513,72.947
0.2522,71.186
0.25024,70.013
0.24927,69.035
0.24829,68.449
0.25122,67.862
0.25806,67.471
0.27077,67.275
0.29228,67.08
0.3216,66.884
0.35875,66.884
0.40176,66.884
0.4477,66.688
0.4956,66.688
0.54057,66.688
0.57674,66.493
0.60606,66.297
0.63441,66.102
0.65885,65.906
0.67742,65.711
0.69013,65.319
0.69697,64.928
0.69697,64.537
0.69306,64.146
0.68817,63.755
0.6784,63.364
0.65982,62.973
0.64223,62.582
0.62757,62.19
0.60899,61.799
0.58651,61.408
0.56207,61.017
0.53763,60.626
0.51417,60.235
0.49071,59.844
0.47019,59.452
0.45064,58.866
0.43304,58.475
0.41838,58.083
0.40567,57.497
0.39589,57.106
0.38905,56.715
0.38221,56.128
0.37537,55.737
0.37048,55.346
0.36559,54.954
0.36168,54.759
0.35777,54.368
0.35484,54.368
0.35191,54.368
0.34897,54.759
0.34604,55.932
0.34409,58.083
0.34213,61.799
0.34018,67.08
0.33822,73.533
0.33529,80.183
0.33236,86.832
0.3304,92.894
0.32747,98.37
0.32454,103.06
0.3216,106.78
0.31965,109.52
0.31672,111.28
0.31378,111.86
0.31183,111.86
0.30987,110.89
0.30792,109.32
0.30499,107.17
0.30205,104.82
0.29814,102.09
0.29521,98.957
0.29228,95.632
0.28837,91.917
0.28543,88.201
0.2825,84.485
0.27859,81.16
0.27664,78.227
0.27468,75.489
0.27273,73.533
0.26979,71.773
0.26588,70.404
0.26393,69.231
0.26197,68.449
0.26393,67.862
0.26979,67.275
0.2825,67.08
0.30205,66.688
0.32942,66.688
0.36461,66.493
0.3998,66.493
0.43597,66.493
0.47801,66.493
0.52102,66.297
0.56305,66.297
0.60117,66.102
0.63343,65.906
0.65982,65.711
0.68035,65.515
0.69404,65.124
0.70186,64.733
0.70577,64.537
0.70381,63.95
0.69795,63.559
0.68915,63.168
0.67742,62.777
0.66178,62.386
0.64321,62.19
0.62268,61.799
0.6002,61.408
0.57674,61.017
0.55327,60.626
0.52981,60.235
0.50733,59.844
0.48583,59.452
0.46823,58.866
0.45357,58.475
0.43891,58.083
0.42522,57.497
0.41251,57.106
0.40274,56.715
0.39296,56.323
0.38612,55.737
0.37928,55.346
0.37341,54.954
0.3695,54.563
0.36559,54.368
0.36266,54.172
0.3607,54.368
0.35777,54.759
0.35484,55.932
0.35288,58.279
0.34995,62.386
0.34702,68.057
0.34409,74.707
0.34115,81.552
0.33822,88.201
0.33529,94.459
0.33236,99.739
0.32845,104.43
0.32649,108.15
0.32454,110.69
0.3216,112.06
0.31965,112.65
0.31672,112.45
0.31378,111.47
0.31085,109.91
0.30792,107.95
0.30499,105.61
0.30205,102.87
0.29814,99.935
0.29423,96.61
0.29326,93.09
0.2913,89.179
0.28739,85.658
0.28446,82.138
0.28152,79.009
0.27859,76.467
0.27566,74.12
0.27175,72.36
0.26882,70.991
0.26588,69.818
0.26686,68.84
0.26979,68.253
0.27566,67.666
0.28641,67.471
0.30205,67.08
0.32649,66.884
0.35973,66.884
0.40078,66.688
0.44477,66.688
0.49169,66.688
0.53666,66.688
0.57967,66.493
0.61681,66.493
0.64809,66.297
0.67351,66.102
0.6911,65.906
0.70186,65.515
0.70968,65.124
0.71261,64.733
0.71163,64.342
0.70674,63.95
0.69795,63.364
0.68622,62.973
0.67058,62.777
0.652,62.386
0.6305,61.995
0.60802,61.604
0.58456,61.213
0.56305,60.821
0.54252,60.235
0.52102,59.844
0.49951,59.452
0.47898,59.061
0.46139,58.475
0.44477,58.083
0.43011,57.692
0.4174,57.106
0.40665,56.715
0.39785,56.323
0.39003,55.932
0.38416,55.346
0.37928,54.954
0.37537,54.759
0.37146,54.368
0.36755,54.368
0.36364,54.368
0.3607,55.15
0.35777,56.519
0.35484,59.452
0.35093,63.95
0.348,70.209
0.34604,77.249
0.34409,84.289
0.34213,90.939
0.34018,97.197
0.33724,102.87
0.33431,107.37
0.3304,111.08
0.32747,113.43
0.32454,114.8
0.3216,115.19
0.31867,114.8
0.31574,113.62
0.31281,112.26
0.30987,110.3
0.30792,108.15
0.30596,105.61
0.30303,102.67
0.3001,99.544
0.29717,96.024
0.29326,92.308
0.29032,88.592
0.28641,84.876
0.28348,81.552
0.27957,78.814
0.27664,76.467
0.27273,74.511
0.27077,72.947
0.26882,71.773
0.27077,70.795
0.27761,70.209
0.28446,69.622
0.29423,69.426
0.31378,69.231
0.34213,69.035
0.37928,69.035
0.42326,69.035
0.48192,69.035
0.53568,69.035
0.57283,69.035
0.60508,69.035
0.6393,68.84
0.6696,68.644
0.68915,68.449
0.70577,68.253
0.71848,67.862
0.7263,67.471
0.72923,67.08
0.7263,66.493
0.71652,66.102
0.70381,65.711
0.69013,65.319
0.67449,64.928
0.6608,64.537
0.64223,64.146
0.61486,63.755
0.58847,63.364
0.56305,62.973
0.53959,62.582
0.51711,61.995
0.50049,61.604
0.48387,61.213
0.46432,60.821
0.4477,60.235
0.43695,59.844
0.42815,59.257
0.41935,58.866
0.41153,58.475
0.40469,58.083
0.39883,57.692
0.39492,57.301
0.39101,56.91
0.38807,56.715
0.38514,56.519
0.38221,56.715
0.38025,57.301
0.3783,58.67
0.37634,61.799
0.37439,66.493
0.37243,72.947
0.36852,80.183
0.36364,87.419
0.35973,94.459
0.35679,100.72
0.35288,106.19
0.34995,110.89
0.34702,114.41
0.34409,116.56
0.34115,117.93
0.3392,118.12
0.33724,117.54
0.33529,116.36
0.33236,114.8
0.32942,112.84
0.32649,110.69
0.32356,108.15
0.32063,105.22
0.31672,102.09
0.31378,98.566
0.31085,95.046
0.30792,91.134
0.30499,87.419
0.30303,83.898
0.30108,80.965
0.29814,78.422
0.29521,76.271
0.29228,74.707
0.2913,73.338
0.29423,72.164
0.30303,71.578
0.31867,70.991
0.34213,70.795
0.37537,70.6
0.41544,70.404
0.45455,70.404
0.49267,70.404
0.53666,70.404
0.58162,70.404
0.62463,70.209
0.66178,70.013
0.69306,69.818
0.71848,69.426
0.73705,69.231
0.74976,68.84
0.75758,68.253
0.75953,67.862
0.75758,67.275
0.75171,66.884
0.74291,66.297
0.73021,65.711
0.71554,65.319
0.69697,64.733
0.67644,64.342
0.65396,63.95
0.62952,63.559
0.60411,62.973
0.57967,62.582
0.55523,61.995
0.53177,61.604
0.51222,61.213
0.4956,60.626
0.47898,60.235
0.46334,59.648
0.44966,59.257
0.43793,58.67
0.42815,58.279
0.41935,57.692
0.41251,57.301
0.40567,56.91
0.40078,56.519
0.39589,56.128
0.39296,55.737
0.38905,55.541
0.38612,55.346
0.38221,55.737
0.37732,56.519
0.37341,58.475
0.36852,62.19
0.36461,67.471
0.35973,74.316
0.35484,81.747
0.34995,88.983
0.34409,95.828
0.3392,101.89
0.33529,107.17
0.33236,111.28
0.32845,114.21
0.32356,116.17
0.31965,116.95
0.31476,116.75
0.31085,115.78
0.30596,114.41
0.30205,112.45
0.29717,110.3
0.29326,107.76
0.28935,104.82
0.28543,101.69
0.28348,98.175
0.28055,94.459
0.27664,90.743
0.27273,87.027
0.26882,83.507
0.26491,80.378
0.261,77.64
0.25709,75.489
0.25415,73.729
0.25122,72.164
0.25122,71.186
0.25611,70.404
0.26491,69.818
0.27859,69.231
0.30205,69.035
0.33431,68.84
0.37439,68.84
0.42131,68.644
0.47019,68.644
0.51906,68.449
0.56598,68.449
0.60704,68.253
0.64223,68.253
0.67058,68.057
0.69013,67.666
0.70283,67.471
0.71163,67.08
0.7175,66.688
0.71848,66.297
0.71457,65.711
0.70772,65.319
0.69697,64.928
0.68328,64.537
0.66569,63.95
0.64516,63.559
0.62268,63.168
0.60215,62.777
0.58065,62.386
0.55718,61.799
0.53372,61.408
0.51026,61.017
0.4868,60.626
0.46628,60.039
0.4477,59.648
0.43109,59.061
0.41642,58.67
0.40371,58.083
0.39296,57.692
0.38416,57.106
0.37732,56.715
0.37146,56.323
0.36657,55.737
0.36266,55.346
0.35875,55.15
0.35484,54.759
0.35191,54.759
0.34897,54.759
0.34506,55.15
0.34213,56.128
0.3392,58.083
0.33529,61.604
0.33236,66.688
0.3304,72.947
0.32747,79.791
0.32356,86.441
0.31965,92.503
0.31672,97.979
0.31281,102.67
0.3089,106.39
0.30499,109.13
0.30205,110.69
0.29814,111.47
0.29521,111.08
0.2913,110.3
0.28935,108.74
0.28739,106.58
0.28446,104.24
0.28152,101.5
0.27761,98.37
0.2737,95.046
0.27077,91.33
0.26686,87.614
0.26295,83.898
0.25904,80.574
0.25611,77.64
0.2522,75.098
0.25024,72.947
0.24829,71.382
0.24633,70.013
0.24438,68.84
0.24536,68.057
0.24927,67.471
0.25806,67.08
0.27468,66.688
0.3001,66.493
0.33333,66.297
0.37243,66.102
0.4174,66.102
0.4653,66.102
0.50635,66.102
0.54154,65.906
0.57869,65.906
0.61193,65.711
0.64027,65.515
0.66276,65.319
0.6784,64.928
0.68915,64.733
0.69404,64.342
0.69404,63.95
0.68915,63.559
0.68035,63.168
0.66862,62.777
0.65494,62.386
0.63734,61.995
0.61681,61.604
0.59433,61.213
0.57087,60.821
0.54643,60.43
0.52199,60.039
0.49853,59.648
0.47703,59.257
0.4565,58.866
0.43793,58.279
0.42131,57.888
0.4086,57.497
0.39883,56.91
0.38905,56.519
0.38025,56.128
0.37243,55.541
0.36559,55.15
0.3607,54.759
0.35582,54.368
0.35191,53.977
0.348,53.781
0.34506,53.585
0.34213,53.585
0.3392,53.781
0.33822,54.563
0.33529,55.932
0.33333,58.67
0.3304,62.973
0.32747,68.644
0.32454,75.098
0.3216,81.552
0.31769,87.81
0.31476,93.481
0.31183,98.37
0.3089,102.48
0.30596,105.61
0.30401,107.76
0.30205,108.74
0.29912,108.93
0.29619,108.54
0.29326,107.17
0.29032,105.41
0.28739,103.06
0.28446,100.52
0.28152,97.393
0.27761,94.068
0.27566,90.548
0.27468,86.832
0.2737,83.116
0.27175,79.791
0.26979,76.662
0.26686,74.316
0.26393,72.164
0.261,70.404
0.25806,69.035
0.25513,67.862
0.25513,67.08
0.25709,66.493
0.26491,66.102
0.27859,65.711
0.3001,65.515
0.32454,65.515
0.35191,65.319
0.38905,65.124
0.43109,65.124
0.47507,65.124
0.51906,65.124
0.56012,65.124
0.59629,64.928
0.62659,64.733
0.65103,64.537
0.6696,64.342
0.68133,64.146
0.68719,63.755
0.68915,63.364
0.68622,62.973
0.68035,62.582
0.67058,62.19
0.65689,61.799
0.64027,61.408
0.62072,61.213
0.59922,60.821
0.57576,60.43
0.5523,60.039
0.52884,59.648
0.50635,59.257
0.4868,58.866
0.46921,58.279
0.45259,57.888
0.43695,57.497
0.42229,57.106
0.40958,56.715
0.39883,56.128
0.39003,55.737
0.38221,55.346
0.37537,54.759
0.3695,54.368
0.36559,53.977
0.36168,53.781
0.35875,53.39
0.35679,53.194
0.35386,53.194
0.35093,53.39
0.34897,53.977
0.34604,55.541
0.34409,58.279
0.34115,62.582
0.33822,68.253
0.33529,74.707
0.33236,81.16
0.32942,87.419
0.32747,93.09
0.32551,98.175
0.32356,102.28
0.3216,105.61
0.31867,107.76
0.31574,108.93
0.31281,109.13
0.30987,108.74
0.30694,107.56
0.30401,105.8
0.30108,103.65
0.29814,101.11
0.29521,98.175
0.29326,95.046
0.29032,91.721
0.28739,88.005
0.28446,84.289
0.28055,80.769
0.27761,77.64
0.2737,75.098
0.27077,72.751
0.26686,70.991
0.26393,69.622
0.261,68.449
0.261,67.471
0.26295,66.688
0.26784,66.297
0.27859,65.906
0.29717,65.711
0.32356,65.515
0.35679,65.515
0.39687,65.319
0.44086,65.319
0.4868,65.319
0.53079,65.319
0.57283,65.124
0.60899,65.124
0.63636,64.928
0.65591,64.733
0.67449,64.537
0.68719,64.342
0.69599,63.95
0.6999,63.559
0.6999,63.168
0.69404,62.973
0.68524,62.582
0.67155,62.19
0.65494,61.799
0.63539,61.408
0.61681,61.213
0.59726,60.821
0.57576,60.43
0.5523,60.039
0.52884,59.648
0.50635,59.257
0.48485,58.866
0.4653,58.279
0.4477,57.888
0.43304,57.497
0.41935,56.91
0.40762,56.519
0.39785,55.932
0.39101,55.541
0.38514,55.15
0.38025,54.759
0.37537,54.368
0.37048,53.977
0.36657,53.781
0.36364,53.585
0.3607,53.585
0.35777,53.977
0.35484,54.759
0.35288,56.715
0.34995,59.844
0.348,64.928
0.34604,71.186
0.34311,78.031
0.34115,84.681
0.33822,91.134
0.33529,96.61
0.33236,101.69
0.32942,105.61
0.32649,108.54
0.32356,110.3
0.32063,111.28
0.31769,111.47
0.31476,110.69
0.31183,109.52
0.30987,107.76
0.30792,105.61
0.30499,102.87
0.30205,100.13
0.29814,96.806
0.29521,93.481
0.2913,89.765
0.28837,86.05
0.28446,82.529
0.28152,79.205
0.27859,76.467
0.27566,74.12
0.2737,72.164
0.27077,70.6
0.26882,69.426
0.26784,68.449
0.27077,67.862
0.27761,67.275
0.29228,66.884
0.31378,66.688
0.34409,66.493
0.38221,66.297
0.4262,66.297
0.47214,66.297
0.5132,66.297
0.54936,66.297
0.58749,66.102
0.62268,66.102
0.65396,65.906
0.6784,65.906
0.69697,65.711
0.71065,65.319
0.7175,64.928
0.72043,64.537
0.7175,64.146
0.71163,63.755
0.70186,63.364
0.69013,63.168
0.67449,62.777
0.65591,62.386
0.63441,61.995
0.61193,61.604
0.58749,61.213
0.56305,60.821
0.53861,60.43
0.51613,60.039
0.49365,59.648
0.4741,59.257
0.45552,58.866
0.44184,58.475
0.43011,58.083
0.41838,57.497
0.4086,57.106
0.3998,56.715
0.39198,56.323
0.38612,55.932
0.38025,55.541
0.37634,55.15
0.37243,54.954
0.36852,54.759
0.36559,54.954
0.36266,55.346
0.3607,56.519
0.35875,58.866
0.35582,62.777
0.35386,68.253
0.35093,74.902
0.348,81.943
0.34506,88.592
0.34213,94.85
0.33822,100.52
0.33529,105.22
0.33236,108.93
0.32942,111.67
0.32649,113.23
0.32551,114.02
0.32258,113.82
0.32063,112.84
0.31769,111.47
0.31476,109.71
0.31183,107.37
0.3089,105.02
0.30596,102.09
0.30205,99.153
0.29912,95.632
0.29619,91.917
0.29423,88.201
0.29228,84.681
0.28935,81.552
0.28641,78.814
0.28348,76.467
0.28055,74.707
0.27761,73.142
0.27566,71.969
0.27664,70.991
0.28152,70.404
0.29228,69.818
0.30987,69.622
0.33627,69.426
0.36461,69.231
0.39589,69.231
0.43597,69.035
0.48094,69.035
0.53177,69.035
0.5826,69.035
0.62757,69.035
0.66667,68.84
0.69795,68.644
0.72239,68.449
0.73998,68.057
0.75171,67.862
0.7566,67.471
0.75758,67.08
0.75464,66.688
0.74878,66.102
0.739,65.906
0.72532,65.515
0.7087,65.124
0.68915,64.733
0.66667,64.342
0.64321,63.95
0.61779,63.559
0.59335,63.168
0.56794,62.777
0.54741,62.386
0.52786,61.995
0.50929,61.408
0.49169,61.017
0.47605,60.626
0.46237,60.039
0.44966,59.648
0.43988,59.061
0.43109,58.67
0.42424,58.279
0.41838,57.888
0.41349,57.497
0.40958,57.301
0.40665,56.91
0.40371,56.91
0.40078,56.91
0.39883,57.497
0.39589,58.67
0.39296,61.408
0.39003,65.906
0.38807,71.969
0.38514,79.205
0.38123,86.441
0.3783,93.481
0.37537,99.935
0.37243,105.41
0.37048,109.91
0.36755,113.43
0.36461,115.78
0.36168,117.14
0.35875,117.34
0.35582,116.75
0.35288,115.58
0.34897,114.02
0.34604,112.06
0.34213,109.91
0.3392,107.17
0.33627,104.43
0.33333,101.3
0.3304,97.979
0.32747,94.263
0.32454,90.548
0.3216,86.832
0.31769,83.507
0.31476,80.574
0.31085,78.227
0.30792,76.076
0.30499,74.511
0.30303,73.142
0.30499,72.164
0.30987,71.382
0.31867,70.795
0.33627,70.404
0.36266,70.209
0.39687,70.013
0.43891,70.013
0.48583,69.818
0.5347,69.818
0.5826,69.622
0.62659,69.622
0.66667,69.426
0.6999,69.231
0.72336,69.035
0.739,68.644
0.75269,68.253
0.76149,67.862
0.76637,67.471
0.76637,66.884
0.76246,66.493
0.75464,65.906
0.74291,65.515
0.72825,65.124
0.70968,64.537
0.68915,64.146
0.66862,63.755
0.64809,63.364
0.62366,62.973
0.59922,62.582
0.5738,62.19
0.54839,61.604
0.52493,61.213
0.50342,60.626
0.48387,60.235
0.46725,59.648
0.45161,59.257
0.43891,58.67
0.42717,58.279
0.41935,57.692
0.41251,57.301
0.40567,56.91
0.3998,56.519
0.39394,56.128
0.38905,55.737
0.38416,55.541
0.38025,55.541
0.37634,55.737
0.37243,56.519
0.36852,58.475
0.36461,61.799
0.3607,67.08
0.35777,73.533
0.35386,80.574
0.34995,87.614
0.34604,94.068
0.34115,100.13
0.33724,105.22
0.33333,109.52
0.32845,112.45
0.32454,114.21
0.32063,114.99
0.31672,114.8
0.31281,114.02
0.30987,112.45
0.30694,110.5
0.30401,108.34
0.3001,105.8
0.29619,102.87
0.29228,99.739
0.28837,96.219
0.28446,92.503
0.28055,88.788
0.27664,85.267
0.27273,81.747
0.26882,78.814
0.26588,76.271
0.26393,74.316
0.261,72.555
0.25806,71.382
0.25611,70.404
0.25806,69.622
0.26491,69.035
0.27957,68.644
0.30205,68.449
0.33333,68.253
0.37243,68.057
0.4174,68.057
0.46628,68.057
0.50929,67.862
0.54741,67.862
0.58749,67.862
0.62463,67.666
0.65689,67.471
0.68231,67.275
0.70186,66.884
0.71554,66.688
0.72239,66.297
0.72434,65.906
0.72239,65.319
0.71554,64.928
0.70674,64.537
0.69404,64.146
0.6784,63.755
0.65982,63.168
0.63832,62.973
0.61486,62.386
0.59042,61.995
0.565,61.604
0.53959,61.408
0.51515,61.017
0.49169,60.43
0.47019,60.039
0.45161,59.452
0.43597,58.866
0.42424,58.475
0.41153,57.888
0.40078,57.497
0.39198,57.106
0.38416,56.519
0.37732,56.128
0.37146,55.737
0.36755,55.346
0.36266,54.954
0.35973,54.759
0.35679,54.759
0.35386,54.954
0.35191,55.346
0.34995,56.519
0.34702,58.866
0.34409,62.777
0.34115,68.057
0.33822,74.511
0.33431,81.16
0.33138,87.614
0.32747,93.481
0.32454,98.761
0.3216,103.06
0.31769,106.58
0.31574,108.93
0.31378,110.3
0.31085,110.89
0.30792,110.3
0.30499,109.32
0.30108,107.56
0.29717,105.61
0.29423,103.06
0.29032,100.33
0.28641,97.197
0.2825,93.677
0.27859,89.961
0.27566,86.245
0.2737,82.725
0.27077,79.4
0.26784,76.662
0.26393,74.12
0.261,72.164
0.25709,70.6
0.25415,69.426
0.2522,68.449
0.2522,67.862
0.25611,67.275
0.26686,66.884
0.28446,66.688
0.30596,66.493
0.33236,66.297
0.36852,66.297
0.41153,66.102
0.45748,66.102
0.5044,66.102
0.55034,66.102
0.5914,65.906
0.62659,65.906
0.65591,65.711
0.6784,65.319
0.69501,65.124
0.70381,64.733
0.70674,64.342
0.70674,64.146
0.70283,63.559
0.69501,63.168
0.68328,62.973
0.66862,62.582
0.64907,62.19
0.62757,61.799
0.60411,61.408
0.57967,61.213
0.5523,60.821
0.52297,60.235
0.50049,59.844
0.48094,59.452
0.46237,59.061
0.44379,58.475
0.42815,58.083
0.41349,57.692
0.40176,57.106
0.39101,56.715
0.38221,56.323
0.37439,55.737
0.36852,55.346
0.36364,54.954
0.35973,54.563
0.35679,54.368
0.35386,54.172
0.35093,53.977
0.34897,53.977
0.34604,54.368
0.34409,55.541
0.34115,57.692
0.33822,61.213
0.33627,66.297
0.33333,72.36
0.3304,78.814
0.32747,85.267
0.32454,90.939
0.32356,96.219
0.32063,100.72
0.31769,104.24
0.31574,106.78
0.31281,108.34
0.30987,108.93
0.30694,108.74
0.30499,107.76
0.30205,106.19
0.29814,104.24
0.29521,101.69
0.29228,98.957
0.29032,95.828
0.28739,92.503
0.28446,88.983
0.28055,85.267
0.27761,81.943
0.2737,78.814
0.27077,76.076
0.26784,73.924
0.26393,71.969
0.261,70.6
0.25806,69.231
0.25709,68.253
0.25709,67.471
0.26002,66.884
0.26686,66.493
0.28055,66.297
0.30108,66.102
0.32942,65.906
0.36461,65.906
0.40665,65.711
0.45161,65.711
0.49658,65.515
0.53959,65.515
0.57967,65.515
0.60997,65.319
0.63245,65.124
0.65396,64.733
0.67058,64.537
0.68231,64.342
0.68915,63.95
0.6911,63.559
0.68817,63.168
0.68133,62.973
0.67058,62.582
0.65591,61.995
0.63832,61.799
0.61975,61.408
0.60117,61.213
0.58065,60.821
0.55718,60.43
0.5347,60.039
0.51222,59.648
0.49071,59.257
0.47116,58.67
0.45259,58.279
0.43695,57.888
0.42229,57.301
0.40958,56.91
0.39883,56.519
0.39101,56.128
0.38416,55.541
0.3783,55.15
0.37243,54.759
0.36755,54.368
0.36364,53.977
0.35973,53.781
0.35679,53.781
0.35386,53.977
0.35093,54.368
0.348,55.541
0.34604,58.083
0.34409,62.19
0.34213,67.666
0.34018,74.12
0.33724,80.965
0.33431,87.223
0.33138,93.09
0.32845,98.37
0.32551,102.87
0.32258,106.39
0.31965,108.74
0.31672,110.3
0.31378,110.89
0.31085,110.5
0.3089,109.52
0.30792,107.95
0.30499,106
0.30303,103.65
0.29912,100.91
0.29619,97.979
0.29228,94.655
0.28935,90.939
0.28543,87.419
0.28152,83.703
0.27761,80.378
0.27468,77.445
0.27175,75.098
0.26979,72.947
0.26784,71.382
0.26491,70.013
0.26197,69.035
0.26197,68.057
0.26588,67.471
0.27468,67.08
0.29032,66.688
0.31378,66.493
0.34604,66.297
0.38514,66.102
0.42913,66.102
0.46921,66.102
0.50733,65.906
0.54741,65.906
0.58651,65.906
0.62268,65.711
0.652,65.515
0.67644,65.319
0.69404,65.124
0.70577,64.733
0.71261,64.537
0.71359,64.146
0.71065,63.755
0.70381,63.364
0.69306,62.973
0.68035,62.582
0.66276,62.19
0.64418,61.799
0.62268,61.604
0.59922,61.213
0.57478,60.821
0.55034,60.43
0.52688,60.039
0.5044,59.648
0.48289,59.061
0.46432,58.67
0.44868,58.279
0.435,57.692
0.42326,57.301
0.41153,56.91
0.40078,56.323
0.39198,55.932
0.38514,55.346
0.3783,55.15
0.37341,54.759
0.36852,54.368
0.36461,54.172
0.36168,53.977
0.35875,54.172
0.35679,54.759
0.35386,56.128
0.35191,59.061
0.34897,63.559
0.34604,69.426
0.34311,76.076
0.34018,82.921
0.33627,89.374
0.33333,95.241
0.3304,100.52
0.32747,105.02
0.32551,108.34
0.32356,110.69
0.3216,112.06
0.31965,112.45
0.31672,112.06
0.31378,111.08
0.31085,109.52
0.30694,107.56
0.30401,105.41
0.3001,102.67
0.29619,99.739
0.29228,96.415
0.28935,92.894
0.28641,89.179
0.28446,85.658
0.28152,82.138
0.27859,79.009
0.27468,76.467
0.27077,74.12
0.26686,72.164
0.26393,70.795
0.26197,69.622
0.26197,68.84
0.26686,68.057
0.27761,67.471
0.29619,67.275
0.31867,67.08
0.34506,66.884
0.38221,66.688
0.42522,66.688
0.47214,66.688
0.51906,66.688
0.56403,66.493
0.60508,66.493
0.64027,66.297
0.6696,66.297
0.69208,66.102
0.7087,65.906
0.71848,65.711
0.72239,65.319
0.72336,64.928
0.72141,64.537
0.71457,64.342
0.70479,63.95
0.6911,63.559
0.67449,63.364
0.65494,62.973
0.63245,62.582
0.60899,62.19
0.58456,61.799
0.55914,61.408
0.53763,61.213
0.51808,60.821
0.49658,60.235
0.47703,59.844
0.45846,59.452
0.44184,59.061
0.42717,58.67
0.41447,58.279
0.40371,57.888
0.39492,57.497
0.3871,56.91
0.38025,56.519
0.37537,56.128
0.37146,55.932
0.36852,55.737
0.36461,55.737
0.36168,55.932
0.35875,56.715
0.35679,58.475
0.35386,61.799
0.35191,66.884
0.34897,73.338
0.34604,80.574
0.34409,87.419
0.34115,94.068
0.33822,99.935
0.33627,105.02
0.33431,109.32
0.33138,112.45
0.32845,114.6
0.32649,115.58
0.32356,115.78
0.32063,115.19
0.31867,114.02
0.31574,112.26
0.31281,110.3
0.30987,107.95
0.30792,105.41
0.30694,102.67
0.30401,99.348
0.30108,96.024
0.29814,92.308
0.29521,88.592
0.29228,85.267
0.28935,82.138
0.28641,79.4
0.2825,77.054
0.27957,75.293
0.27761,73.729
0.27664,72.751
0.27859,71.969
0.28446,71.382
0.29521,70.795
0.31476,70.6
0.34409,70.404
0.38123,70.404
0.42522,70.209
0.4741,70.209
0.52493,70.209
0.57478,70.209
0.62072,70.013
0.66178,70.013
0.69306,69.818
0.71554,69.426
0.73607,69.231
0.75269,68.84
0.76442,68.449
0.77028,68.057
0.77126,67.666
0.76931,67.275
0.76246,66.884
0.75171,66.493
0.73705,66.102
0.71945,65.711
0.70186,65.319
0.68231,64.928
0.65982,64.537
0.63636,64.146
0.61095,63.755
0.58651,63.364
0.56305,62.973
0.54057,62.582
0.51906,61.995
0.50049,61.408
0.48485,61.017
0.47019,60.43
0.45846,60.039
0.44868,59.648
0.44184,59.061
0.435,58.475
0.42815,57.888
0.42326,57.497
0.41838,56.91
0.41447,56.715
0.41056,56.519
0.40762,56.715
0.40371,57.497
0.40078,59.452
0.39687,62.973
0.39394,68.644
0.39198,75.489
0.38807,82.921
0.38514,90.352
0.38123,97.001
0.3783,103.06
0.37439,108.34
0.37048,112.45
0.36755,115.38
0.36364,117.14
0.3607,117.93
0.35679,117.93
0.35386,116.95
0.35093,115.58
0.348,113.82
0.34506,111.86
0.34213,109.52
0.33822,106.98
0.33431,104.04
0.3304,100.91
0.32649,97.393
0.32258,93.677
0.31867,89.961
0.31378,86.441
0.30987,83.116
0.30694,80.378
0.30303,78.031
0.29912,76.076
0.29521,74.316
0.29228,73.142
0.29228,72.164
0.29717,71.382
0.3089,70.991
0.32942,70.6
0.35973,70.404
0.39687,70.209
0.44184,70.013
0.49071,69.818
0.53372,69.818
0.57185,69.622
0.61193,69.426
0.65005,69.231
0.68328,69.035
0.70968,68.644
0.73021,68.449
0.74389,67.862
0.75269,67.471
0.7566,67.08
0.75562,66.688
0.74976,66.102
0.74194,65.711
0.73118,65.319
0.71652,64.928
0.6999,64.537
0.68035,64.146
0.65787,63.559
0.63343,63.364
0.60802,62.973
0.5826,62.582
0.55718,61.995
0.53177,61.604
0.50831,61.017
0.4868,60.626
0.46921,60.039
0.45455,59.648
0.44086,59.061
0.42815,58.475
0.41642,58.083
0.40665,57.692
0.39883,57.106
0.39198,56.715
0.38514,56.323
0.37928,55.932
0.37439,55.737
0.37048,55.541
0.36657,55.541
0.36364,56.128
0.3607,57.301
0.35679,59.844
0.35288,64.342
0.34897,70.209
0.34506,77.249
0.34018,84.485
0.33627,91.525
0.33236,97.784
0.32747,103.46
0.32356,108.15
0.31965,111.86
0.31672,114.41
0.31378,115.78
0.31085,116.36
0.30792,115.97
0.30401,114.8
0.30108,113.43
0.29717,111.47
0.29326,109.13
0.28935,106.78
0.28543,103.85
0.28152,100.72
0.27761,97.197
0.27468,93.481
0.27273,89.57
0.26979,85.854
0.26686,82.529
0.26295,79.596
0.25904,77.054
0.25513,75.098
0.25122,73.338
0.24829,71.969
0.24829,70.991
0.25122,70.209
0.261,69.622
0.27761,69.231
0.29912,68.84
0.32649,68.644
0.36364,68.449
0.40762,68.449
0.45748,68.253
0.50733,68.253
0.55621,68.253
0.6002,68.057
0.6393,67.862
0.67155,67.666
0.69697,67.471
0.71554,67.08
0.7263,66.688
0.73118,66.297
0.73314,65.906
0.73118,65.515
0.72532,65.124
0.71652,64.733
0.70381,64.342
0.68719,63.755
0.66862,63.364
0.64614,62.973
0.62268,62.777
0.59726,62.386
0.57087,61.995
0.54839,61.408
0.52688,61.017
0.5044,60.626
0.48289,60.039
0.46237,59.648
0.44477,59.061
0.42815,58.67
0.41349,58.083
0.40176,57.692
0.39198,57.106
0.38319,56.715
0.37634,56.323
0.37048,55.932
0.36657,55.541
0.36266,55.15
0.35875,54.954
0.35484,54.954
0.35191,55.15
0.348,55.541
0.34506,56.91
0.34213,59.452
0.33822,63.559
0.33529,69.231
0.33138,75.685
0.32845,82.529
0.32551,88.788
0.32258,94.655
0.31965,99.739
0.31574,104.24
0.31281,107.56
0.3089,109.91
0.30596,111.28
0.30205,111.67
0.29912,111.28
0.29521,110.1
0.29228,108.54
0.28935,106.39
0.28739,104.04
0.28543,101.3
0.28348,98.175
0.27957,94.85
0.27664,91.33
0.27273,87.614
0.26979,83.898
0.26588,80.769
0.26295,77.836
0.25904,75.489
0.25611,73.533
0.25318,71.773
0.25024,70.6
0.24927,69.426
0.24927,68.644
0.2522,68.057
0.26002,67.471
0.2737,67.275
0.29521,67.08
0.32454,66.884
0.36168,66.688
0.40371,66.688
0.44868,66.493
0.49462,66.493
0.53763,66.493
0.57185,66.297
0.6002,66.102
0.62659,65.906
0.64907,65.906
0.66667,65.515
0.67937,65.124
0.68622,64.733
0.68817,64.537
0.68524,63.95
0.67937,63.559
0.66862,63.168
0.65494,62.973
0.6393,62.582
0.62268,62.19
0.60313,61.799
0.58162,61.408
0.55914,61.017
0.53568,60.626
0.51222,60.235
0.48974,59.844
0.46921,59.257
0.44966,58.866
0.43304,58.475
0.41838,58.083
0.40567,57.497
0.39492,57.106
0.3871,56.715
0.37928,56.128
0.37243,55.737
0.36657,55.346
0.3607,54.954
0.35679,54.563
0.35288,54.368
0.34897,54.172
0.34604,54.172
0.34409,54.563
0.34115,55.541
0.3392,57.497
0.33724,61.017
0.33529,66.102
0.33333,72.555
0.3304,79.4
0.32747,85.854
0.32454,92.112
0.3216,97.588
0.31769,102.48
0.31476,106.39
0.31183,109.13
0.3089,110.89
0.30596,111.86
0.30401,111.86
0.30303,110.89
0.3001,109.52
0.29717,107.76
0.29423,105.61
0.2913,103.06
0.28837,100.33
0.28446,97.001
0.28152,93.677
0.27761,89.961
0.27468,86.245
0.27077,82.725
0.26882,79.791
0.26686,77.054
0.26491,74.707
0.26197,72.947
0.25904,71.382
0.25611,70.209
0.25513,69.231
0.25611,68.449
0.26197,67.862
0.2737,67.471
0.29326,67.275
0.3216,67.08
0.35679,66.884
0.39296,66.688
0.42913,66.688
0.47116,66.688
0.51613,66.493
0.55816,66.493
0.59726,66.297
0.6305,66.297
0.65689,65.906
0.6784,65.711
0.69306,65.515
0.70186,65.124
0.70577,64.733
0.70577,64.537
0.70088,64.146
0.69306,63.755
0.68133,63.364
0.66764,62.973
0.65005,62.582
0.62952,62.19
0.60802,61.995
0.58456,61.408
0.56012,61.213
0.53666,60.821
0.5132,60.235
0.49169,59.844
0.47312,59.452
0.45748,59.061
0.44184,58.67
0.42717,58.083
0.41447,57.692
0.40274,57.106
0.39296,56.715
0.38514,56.323
0.37732,55.932
0.37146,55.346
0.36657,55.15
0.36168,54.759
0.35875,54.563
0.35679,54.563
0.35386,54.759
0.35093,55.541
0.34897,57.301
0.34604,60.43
0.34311,65.319
0.34018,71.382
0.33724,78.227
0.33431,85.072
0.33138,91.33
0.32845,97.197
0.32454,102.28
0.32258,106.39
0.32063,109.71
0.31769,111.86
0.31574,113.04
0.31281,113.23
0.30987,112.65
0.30694,111.47
0.30401,109.91
0.3001,107.76
0.29717,105.61
0.29423,102.67
0.29032,99.739
0.28837,96.415
0.28641,92.699
0.28348,88.983
0.28055,85.267
0.27761,81.943
0.2737,78.814
0.27077,76.271
0.26686,74.12
0.26295,72.36
0.26002,70.991
0.25806,70.013
0.25904,69.035
0.26393,68.449
0.27273,67.862
0.28641,67.666
0.3089,67.471
0.34018,67.275
0.3783,67.275
0.42229,67.08
0.46921,67.08
0.51613,66.884
0.56012,66.884
0.6002,66.688
0.63539,66.493
0.66373,66.297
0.68328,66.102
0.69599,65.906
0.70577,65.515
0.71261,65.124
0.71457,64.928
0.71163,64.537
0.70577,64.146
0.69599,63.755
0.68231,63.364
0.66569,62.973
0.64614,62.582
0.62366,62.19
0.6002,61.995
0.57869,61.408
0.55718,61.213
0.5347,60.821
0.51222,60.235
0.49071,59.844
0.47019,59.452
0.45161,58.866
0.435,58.475
0.42131,57.888
0.4086,57.497
0.39785,57.106
0.38905,56.715
0.38221,56.128
0.37732,55.737
0.37243,55.346
0.36755,54.954
0.36364,54.759
0.35973,54.759
0.35679,54.954
0.35288,55.737
0.34995,57.301
0.34702,60.626
0.34506,65.515
0.34213,71.773
0.3392,78.814
0.33724,85.854
0.33529,92.503
0.33236,98.566
0.32942,103.85
0.32649,108.34
0.32356,111.67
0.32063,113.82
0.31769,114.99
0.31378,115.38
0.31085,114.8
0.30792,113.82
0.30499,112.26
0.30205,110.5
0.3001,108.34
0.29814,105.61
0.29521,102.67
0.2913,99.544
0.28837,96.024
0.28446,92.308
0.28152,88.592
0.27761,85.072
0.27468,81.747
0.27077,79.009
0.26686,76.662
0.26491,74.707
0.26295,72.947
0.261,71.773
0.261,70.795
0.26393,70.209
0.27273,69.622
0.28935,69.231
0.31672,69.035
0.35288,68.84
0.39589,68.644
0.44477,68.644
0.4956,68.644
0.54643,68.644
0.58944,68.644
0.62463,68.644
0.65982,68.449
0.6911,68.253
0.71652,68.057
0.73607,67.862
0.74976,67.471
0.75855,67.275
0.76149,66.884
0.75953,66.493
0.75367,66.102
0.74389,65.711
0.73118,65.319
0.71652,64.928
0.69795,64.537
0.67742,64.342
0.65298,63.95
0.62757,63.559
0.60117,62.973
0.57478,62.777
0.54936,62.19
0.52493,61.799
0.50244,61.408
0.48192,60.821
0.46334,60.43
0.44868,60.039
0.43695,59.452
0.4262,59.061
0.41544,58.67
0.40665,58.279
0.39883,57.692
0.39296,57.301
0.3871,57.106
0.38319,56.91
0.37928,56.715
0.37634,56.91
0.37341,57.888
0.37146,59.648
0.3695,63.168
0.36755,68.449
0.36461,75.098
0.36168,82.334
0.35875,89.374
0.35582,96.024
0.35288,102.09
0.34995,107.37
0.34702,111.86
0.34506,114.99
0.34213,117.14
0.3392,118.12
0.33724,118.12
0.33529,117.54
0.33333,116.36
0.3304,114.8
0.32747,112.84
0.32454,110.5
0.3216,108.15
0.31867,105.41
0.31574,102.28
0.31281,98.761
0.30987,95.241
0.30596,91.525
0.30401,87.81
0.30205,84.485
0.3001,81.552
0.29717,79.205
0.29423,77.249
0.2913,75.685
0.28935,74.316
0.29032,73.533
0.29521,72.751
0.30694,72.164
0.32649,71.969
0.35484,71.773
0.39198,71.578
0.42913,71.578
0.46725,71.578
0.5132,71.382
0.56109,71.382
0.60802,71.186
0.65103,71.186
0.68915,70.795
0.71945,70.6
0.74389,70.404
0.76149,70.013
0.77322,69.426
0.78006,69.035
0.78104,68.449
0.7781,67.862
0.77224,67.471
0.76246,66.884
0.75073,66.297
0.73509,65.906
0.71652,65.319
0.69501,64.928
0.67253,64.537
0.64712,63.95
0.6217,63.559
0.59629,63.168
0.57185,62.582
0.55034,62.19
0.53177,61.799
0.5132,61.408
0.49658,60.821
0.48094,60.235
0.46725,59.844
0.4565,59.257
0.44673,58.866
0.43793,58.279
0.43109,57.888
0.42522,57.301
0.42033,56.91
0.41642,56.715
0.41349,56.519
0.40958,56.715
0.40567,57.497
0.40274,59.257
0.39883,62.777
0.39492,68.253
0.39101,74.902
0.3871,82.334
0.38319,89.765
0.37928,96.61
0.37537,102.87
0.37048,108.34
0.36657,112.84
0.36364,116.17
0.35973,118.32
0.35582,119.3
0.35093,119.3
0.34702,118.51
0.34213,117.34
0.33822,115.58
0.33431,113.43
0.3304,111.28
0.32551,108.74
0.3216,105.8
0.31769,102.67
0.31476,99.153
0.31085,95.437
0.30694,91.525
0.30205,87.81
0.29717,84.289
0.29228,81.356
0.28739,78.814
0.2825,76.858
0.27761,75.098
0.2737,73.729
0.27273,72.555
0.27761,71.773
0.28543,71.186
0.3001,70.795
0.32356,70.6
0.35679,70.209
0.39785,70.209
0.44477,70.013
0.4956,69.818
0.54545,69.622
0.59238,69.622
0.63539,69.426
0.67155,69.231
0.70088,69.035
0.72043,68.644
0.73314,68.253
0.74291,67.862
0.74878,67.471
0.74976,67.08
0.7478,66.493
0.74096,66.102
0.73118,65.711
0.71848,65.124
0.70186,64.733
0.68231,64.342
0.6608,63.95
0.63734,63.559
0.61486,62.973
0.59238,62.777
0.56794,62.19
0.5435,61.799
0.52004,61.408
0.49658,60.821
0.47605,60.235
0.45748,59.844
0.44086,59.257
0.4262,58.67
0.41349,58.279
0.40274,57.888
0.39492,57.301
0.38905,56.91
0.38319,56.519
0.37732,56.128
0.37243,55.932
0.36852,55.737
0.36461,55.737
0.3607,55.932
0.35679,56.91
0.35288,58.866
0.34995,62.386
0.34604,67.666
0.34311,74.12
0.34018,81.16
0.33724,88.201
0.33333,94.655
0.32942,100.33
0.32551,105.41
0.3216,109.52
0.31769,112.45
0.31378,114.21
0.30987,115.19
0.30596,114.99
0.30303,114.21
0.29912,112.65
0.29717,110.89
0.29423,108.54
0.2913,106
0.28837,103.06
0.28446,99.935
0.28055,96.415
0.27664,92.699
0.27273,88.983
0.26882,85.267
0.26491,81.943
0.26197,79.009
0.25806,76.467
0.25513,74.316
0.25318,72.751
0.25024,71.382
0.24829,70.404
0.24829,69.426
0.2522,68.84
0.26295,68.449
0.28055,68.057
0.30792,67.862
0.34409,67.666
0.3871,67.666
0.43402,67.471
0.48387,67.471
0.52688,67.275
0.565,67.275
0.60313,67.08
0.63832,66.884
0.66764,66.688
0.6911,66.297
0.70772,66.102
0.71945,65.711
0.72434,65.319
0.72532,64.928
0.72141,64.537
0.71261,64.146
0.69404,63.755
0.67058,63.364
0.64907,62.973
0.62757,62.582
0.60508,62.19
0.58162,61.604
0.55718,61.408
0.53372,61.017
0.51026,60.43
0.48778,60.039
0.46628,59.648
0.4477,59.061
0.43011,58.67
0.41642,58.279
0.40567,57.888
0.39492,57.301
0.38514,56.91
0.37634,56.519
0.3695,55.932
0.36266,55.541
0.35777,55.15
0.35288,54.759
0.34897,54.563
0.34506,54.368
0.34213,54.563
0.34018,54.954
0.33822,56.128
0.33627,58.279
0.33431,61.995
0.33138,67.08
0.32845,73.533
0.32551,79.987
0.32258,86.441
0.31965,92.308
0.31672,97.784
0.31281,102.28
0.30987,106
0.30694,108.74
0.30499,110.3
0.30303,110.89
0.30108,110.69
0.29814,109.91
0.29521,108.34
0.29228,106.39
0.28935,104.04
0.28641,101.3
0.28348,98.175
0.27957,94.85
0.27664,91.134
0.2737,87.419
0.27077,83.703
0.26882,80.378
0.26686,77.445
0.26393,74.902
0.26002,72.751
0.25709,71.186
0.25318,69.818
0.25122,68.644
0.24927,67.862
0.25024,67.275
0.25611,66.884
0.26784,66.493
0.28739,66.297
0.3089,66.102
0.33627,66.102
0.37146,65.906
0.41251,65.906
0.45748,65.906
0.50147,65.711
0.5435,65.711
0.58162,65.515
0.61388,65.319
0.64027,65.124
0.6608,64.733
0.67449,64.537
0.68231,64.146
0.68524,63.755
0.68426,63.364
0.68035,62.973
0.67253,62.777
0.6608,62.386
0.64614,61.799
0.62757,61.604
0.60802,61.213
0.58553,60.821
0.56207,60.43
0.53861,60.039
0.51515,59.648
0.49462,59.257
0.47703,58.866
0.45846,58.279
0.44184,57.888
0.4262,57.497
0.41153,56.91
0.3998,56.519
0.38905,56.128
0.38025,55.541
0.37243,55.15
0.36559,54.759
0.3607,54.368
0.35679,53.977
0.35386,53.781
0.35093,53.781
0.34897,53.781
0.34604,53.977
0.34311,54.759
0.34115,56.519
0.33822,59.844
0.33627,64.537
0.33333,70.6
0.3304,77.249
0.32747,83.703
0.32454,89.765
0.32258,95.241
0.32063,100.13
0.31867,104.04
0.31574,106.98
0.31281,108.74
0.30987,109.71
0.30694,109.91
0.30401,109.13
0.30108,107.76
0.29814,106
0.29521,103.85
0.29228,101.3
0.29032,98.37
0.28837,95.241
0.28543,91.721
0.2825,88.005
0.27957,84.289
0.27566,80.965
0.27273,78.031
0.26979,75.293
0.26588,73.142
0.26295,71.186
0.26002,69.818
0.25709,68.644
0.25513,67.862
0.25513,67.08
0.25904,66.493
0.26686,66.102
0.28055,65.906
0.30205,65.711
0.33236,65.515
0.3695,65.515
0.41153,65.319
0.4565,65.319
0.50244,65.124
0.54545,65.124
0.58456,64.928
0.61388,64.733
0.63734,64.537
0.65787,64.342
0.67351,64.146
0.68524,63.755
0.69208,63.364
0.69404,62.973
0.69208,62.582
0.68524,62.19
0.67449,61.799
0.6608,61.604
0.64321,61.213
0.62659,60.821
0.60802,60.626
0.58651,60.235
0.56403,59.844
0.54057,59.452
0.51711,59.061
0.4956,58.67
0.47507,58.279
0.4565,57.692
0.43891,57.301
0.42424,56.91
0.41153,56.519
0.3998,55.932
0.39101,55.541
0.38416,55.15
0.37732,54.563
0.37146,54.172
0.36657,53.781
0.36168,53.585
0.35777,53.39
0.35484,53.39
0.35191,53.585
0.34897,54.172
0.34604,55.932
0.34311,58.866
0.34115,63.559
0.3392,69.426
0.33724,76.271
0.33431,82.921
0.33138,89.179
0.32845,95.046
0.32551,100.13
0.32258,104.43
0.31965,107.76
0.31672,109.91
0.31378,111.08
0.31183,111.47
0.3089,110.89
0.30694,109.91
0.30499,108.15
0.30303,106.19
0.3001,103.85
0.29717,101.11
0.29423,98.175
0.2913,94.85
0.28739,91.134
0.28446,87.419
0.28055,83.703
0.27761,80.378
0.2737,77.445
0.27175,75.098
0.26979,72.947
0.26686,71.186
0.26393,69.818
0.261,68.84
0.26002,67.862
0.26197,67.275
0.26882,66.884
0.2825,66.493
0.30401,66.297
0.33333,66.102
0.37048,65.906
0.41447,65.906
0.45455,65.711
0.49267,65.711
0.53372,65.515
0.57478,65.515
0.61193,65.319
0.64418,65.124
0.6696,64.928
0.68915,64.537
0.70283,64.342
0.71065,63.95
0.71359,63.559
0.71261,63.168
0.70674,62.973
0.69892,62.582
0.68719,62.19
0.67253,61.799
0.65494,61.408
0.63441,61.017
0.6129,60.626
0.58944,60.235
0.565,59.844
0.54057,59.452
0.51711,59.061
0.49462,58.67
0.47507,58.279
0.45846,57.888
0.44379,57.301
0.43109,56.91
0.41838,56.519
0.40762,55.932
0.39785,55.541
0.39198,55.15
0.38905,54.563
0.38514,54.172
0.38025,53.781
0.37634,53.585
0.37243,53.39
0.3695,53.585
0.36657,53.977
0.36461,55.15
0.36168,57.692
0.35875,61.799
0.35582,67.471
0.35288,74.12
0.34897,81.16
0.34604,87.614
0.34311,93.677
0.3392,99.348
0.33627,104.04
0.33333,107.76
0.3304,110.3
0.32845,112.06
0.32649,112.65
0.32356,112.45
0.32063,111.67
0.31769,110.3
0.31476,108.34
0.31085,106.19
0.30792,103.85
0.30401,100.91
0.3001,97.784
0.29619,94.459
0.29326,90.939
0.2913,87.223
0.28837,83.703
0.28446,80.574
0.28152,77.836
0.27761,75.489
0.2737,73.533
0.26979,71.969
0.26686,70.795
0.26491,69.818
0.26588,69.035
0.27175,68.449
0.28446,68.057
0.30205,67.862
0.32454,67.666
0.35777,67.471
0.3998,67.471
0.4477,67.471
0.49853,67.275
0.54839,67.275
0.59531,67.08
0.63832,67.08
0.67449,66.884
0.70381,66.884
0.7263,66.493
0.73998,66.297
0.7478,65.906
0.75269,65.515
0.75367,65.124
0.75073,64.733
0.74389,64.537
0.73412,64.146
0.71945,63.755
0.70186,63.364
0.68231,62.973
0.65885,62.582
0.63539,62.19
0.60997,61.995
0.58749,61.604
0.56598,61.213
0.5435,60.821
0.52199,60.235
0.50147,59.844
0.48289,59.452
0.46628,58.866
0.45259,58.475
0.43988,58.083
0.42913,57.692
0.42033,57.106
0.41251,56.715
0.40665,56.323
0.40274,56.128
0.39883,55.737
0.39492,55.541
0.39198,55.346
0.38905,55.737
0.38612,56.715
0.38319,58.866
0.38123,62.777
0.3783,68.449
0.37537,75.098
0.37341,82.138
0.37048,89.179
0.36755,95.632
0.36559,101.5
0.36364,106.39
0.3607,110.5
0.35777,113.43
0.35484,115.19
0.35191,115.97
0.34995,115.97
0.34702,115.19
0.34409,113.82
0.34213,112.06
0.3392,109.91
0.33724,107.56
0.33529,105.02
0.33333,102.09
0.3304,98.957
0.32747,95.437
0.32454,91.917
0.3216,88.396
0.31867,84.876
0.31476,81.747
0.31183,79.205
0.3089,76.858
0.30596,75.098
0.30303,73.533
0.30108,72.36
0.30205,71.382
0.30596,70.6
0.31476,70.209
0.33138,69.622
0.35679,69.426
0.39003,69.231
0.43109,69.035
0.47801,69.035
0.52786,69.035
0.57674,68.84
0.62268,68.84
0.65885,68.644
0.68817,68.253
0.71457,68.057
0.73803,67.666
0.75562,67.275
0.76735,66.884
0.77517,66.297
0.77713,65.906
0.77517,65.319
0.76833,64.928
0.75855,64.537
0.74487,63.95
0.73021,63.559
0.71359,63.168
0.69306,62.777
0.67058,62.386
0.64712,61.799
0.62268,61.408
0.59726,61.017
0.57283,60.43
0.55034,60.039
0.52884,59.648
0.50929,59.061
0.49169,58.67
0.47703,58.083
0.46432,57.692
0.45455,57.106
0.44477,56.715
0.43597,56.323
0.42913,55.932
0.42229,55.346
0.41642,55.15
0.41153,54.759
0.40665,54.759
0.40274,54.759
0.39785,55.15
0.39394,56.323
0.39101,58.866
0.3871,63.168
0.38319,69.035
0.37928,75.88
0.37439,82.921
0.3695,89.765
0.36461,96.024
0.35875,101.5
0.35386,106.19
0.34897,109.91
0.34409,112.45
0.34018,113.82
0.33529,114.21
0.33138,113.82
0.32845,112.65
0.32454,111.08
0.32063,109.13
0.31672,106.78
0.31183,104.24
0.30792,101.3
0.30303,97.979
0.29912,94.655
0.29423,90.939
0.29032,87.223
0.28543,83.507
0.2825,80.378
0.28055,77.445
0.27664,75.098
0.27273,73.142
0.26882,71.578
0.26491,70.404
0.26295,69.426
0.26295,68.644
0.26784,68.057
0.27859,67.666
0.29814,67.471
0.32649,67.275
0.36364,67.275
0.40078,67.08
0.43891,67.08
0.48485,67.08
0.53177,66.884
0.57674,66.688
0.61779,66.688
0.65298,66.297
0.68133,66.102
0.70283,65.906
0.71848,65.515
0.72727,65.124
0.73216,64.537
0.73118,64.146
0.7263,63.755
0.71848,63.364
0.70772,62.973
0.69306,62.582
0.67546,62.19
0.65591,61.799
0.63343,61.408
0.60899,61.017
0.58358,60.626
0.55816,60.235
0.53372,59.844
0.51026,59.257
0.48974,58.866
0.47312,58.475
0.45552,57.888
0.43988,57.497
0.4262,56.91
0.41349,56.519
0.40274,55.932
0.39394,55.541
0.3871,55.15
0.38025,54.759
0.37537,54.368
0.37048,53.977
0.36755,53.781
0.36461,53.781
0.36168,53.781
0.35875,54.172
0.35582,55.15
0.35288,57.497
0.34995,61.213
0.34604,66.493
0.34213,72.751
0.3392,79.4
0.33529,85.854
0.33138,91.721
0.32747,97.001
0.3216,101.5
0.31476,105.22
0.30987,107.76
0.30499,109.32
0.30205,109.91
0.29814,109.52
0.29521,108.54
0.2913,106.98
0.28837,105.02
0.28543,102.67
0.28152,99.935
0.27859,96.806
0.27566,93.481
0.2737,89.961
0.27077,86.245
0.26686,82.725
0.26393,79.596
0.26002,76.662
0.25709,74.316
0.25318,72.36
0.25024,70.6
0.24633,69.426
0.2434,68.253
0.24242,67.471
0.24242,66.884
0.24633,66.297
0.25415,65.906
0.26882,65.711
0.2913,65.515
0.32258,65.515
0.35973,65.319
0.40274,65.124
0.44868,65.124
0.49462,64.928
0.53763,64.928
0.57674,64.733
0.60997,64.537
0.63441,64.342
0.65103,64.146
0.66569,63.755
0.67644,63.364
0.68133,62.973
0.68231,62.582
0.67937,62.19
0.67155,61.799
0.6608,61.604
0.64614,61.213
0.62854,60.821
0.60802,60.43
0.58651,60.039
0.56598,59.844
0.54643,59.452
0.52493,59.061
0.50342,58.67
0.48192,58.279
0.46139,57.692
0.44282,57.301
0.4262,56.91
0.41153,56.519
0.39883,55.932
0.38807,55.541
0.3783,55.15
0.37146,54.759
0.36559,54.368
0.3607,53.781
0.35582,53.585
0.35191,53.194
0.348,52.999
0.34409,52.999
0.34115,53.194
0.33822,53.781
0.33627,54.954
0.33333,57.497
0.3304,61.408
0.32747,66.688
0.32454,72.751
0.32258,79.205
0.32063,85.072
0.31769,90.548
0.31378,95.437
0.31085,99.544
0.30792,102.87
0.30499,105.02
0.30205,106.39
0.29912,106.78
0.29619,106.39
0.29326,105.22
0.2913,103.65
0.29032,101.5
0.28739,99.153
0.28446,96.219
0.28152,93.09
0.27761,89.765
0.27468,86.245
0.27077,82.725
0.26784,79.4
0.26393,76.467
0.261,73.924
0.25709,71.969
0.25415,70.209
0.2522,68.84
0.25024,67.666
0.24829,66.688
0.24731,66.102
0.24829,65.515
0.25318,65.124
0.26295,64.733
0.27957,64.537
0.30401,64.537
0.33627,64.342
0.37537,64.342
0.41838,64.146
0.45748,64.146
0.49365,63.95
0.53177,63.95
0.56891,63.755
0.60215,63.559
0.62952,63.364
0.65005,63.168
0.66569,62.777
0.67546,62.386
0.67937,62.19
0.67937,61.799
0.67449,61.408
0.66667,61.017
0.65494,60.821
0.64125,60.43
0.62366,60.039
0.60411,59.844
0.58162,59.452
0.55914,59.061
0.53568,58.866
0.5132,58.475
0.49169,58.083
0.47116,57.692
0.45259,57.106
0.435,56.715
0.42229,56.323
0.41056,55.737
0.3998,55.346
0.39003,54.954
0.38221,54.563
0.37439,54.172
0.36852,53.781
0.36266,53.39
0.35777,52.999
0.35386,52.803
0.34995,52.803
0.34702,52.803
0.34409,53.194
0.34213,54.172
0.34018,56.323
0.33822,59.844
0.33529,64.928
0.33236,70.991
0.32942,77.445
0.32649,83.703
0.32356,89.374
0.3216,94.655
0.31867,99.153
0.31574,102.87
0.31281,105.61
0.31085,107.17
0.30987,108.15
0.30694,107.95
0.30499,107.37
0.30205,106
0.29912,104.24
0.29619,101.89
0.29326,99.348
0.29032,96.415
0.28739,93.09
0.28348,89.57
0.28055,85.854
0.27761,82.334
0.27566,79.009
0.2737,76.271
0.26979,73.729
0.26686,71.773
0.26393,70.013
0.26002,68.84
0.25709,67.666
0.25513,66.884
0.25415,66.297
0.25806,65.906
0.26686,65.515
0.2825,65.319
0.30205,65.124
0.32649,64.928
0.3607,64.928
0.40176,64.733
0.44575,64.733
0.49169,64.537
0.53568,64.537
0.57674,64.537
0.6129,64.342
0.64223,64.146
0.66569,63.755
0.68328,63.559
0.69404,63.168
0.69892,62.973
0.6999,62.582
0.69795,62.19
0.69208,61.799
0.68231,61.408
0.66862,61.213
0.652,60.821
0.63245,60.626
0.61095,60.235
0.58749,59.844
0.56403,59.452
0.53959,59.061
0.51906,58.67
0.50049,58.279
0.48094,57.888
0.46237,57.301
0.44575,56.91
0.43011,56.323
0.41642,55.932
0.40469,55.541
0.39492,55.15
0.38612,54.759
0.37928,54.172
0.37341,53.781
0.36852,53.585
0.36461,53.194
0.36168,53.194
0.35777,53.194
0.35484,53.585
0.35191,54.368
0.34897,56.128
0.34604,59.452
0.34409,64.342
0.34115,70.404
0.33822,77.054
0.33529,83.507
0.33236,89.57
0.32942,95.046
0.32747,99.935
0.32551,103.85
0.32258,106.78
0.31965,108.74
0.31672,109.91
0.31378,109.91
0.31085,109.32
0.30792,108.15
0.30499,106.39
0.30108,104.24
0.29814,101.69
0.29619,98.957
0.29326,95.828
0.29032,92.503
0.28739,88.788
0.28446,85.072
0.28055,81.747
0.27664,78.618
0.27664,76.076
0.27761,73.729
0.27566,71.969
0.2737,70.404
0.27077,69.035
0.26784,68.253
0.26784,67.471
0.26979,66.884
0.27664,66.493
0.28935,66.297
0.31085,65.906
0.34115,65.906
0.37928,65.711
0.42424,65.711
0.47312,65.515
0.52395,65.515
0.57185,65.515
0.61681,65.319
0.652,65.124
0.6784,64.928
0.70381,64.733
0.72434,64.537
0.739,64.146
0.74878,63.755
0.75367,63.364
0.75269,62.973
0.74682,62.777
0.73705,62.386
0.72336,61.995
0.70577,61.604
0.68622,61.408
0.66569,61.017
0.64516,60.626
0.62072,60.235
