2.6901,84.549
2.6618,83.914
2.6256,83.279
2.5816,82.791
2.5249,82.351
2.4536,82.009
2.3675,81.618
2.2708,81.228
2.1672,80.886
2.0587,80.446
1.9521,80.007
1.8524,79.567
1.7625,79.127
1.6843,78.541
1.6246,77.906
1.5787,77.223
1.5396,76.636
1.5083,76.099
1.4858,75.611
1.4712,75.464
1.4633,76.539
1.4585,80.544
1.4526,89.189
1.4438,102.62
1.4301,118.06
1.4096,130.85
1.3812,137.5
1.3539,138.33
1.3265,136.47
1.2923,135.54
1.2522,136.57
1.2111,138.38
1.1701,139.06
1.129,137.89
1.0899,135.3
1.0518,132.61
1.0176,130.41
0.98631,128.61
0.95992,126.41
0.9433,123.58
0.93157,119.81
0.91691,115.57
0.89932,111.17
0.87879,106.87
0.8563,102.67
0.83284,98.763
0.81134,95.295
0.79765,92.804
0.80547,91.387
0.84555,90.801
0.92766,90.752
1.0577,90.752
1.2043,90.508
1.3715,90.166
1.5787,89.873
1.8006,89.678
2.0186,89.482
2.2151,89.385
2.3793,89.092
2.5044,88.701
2.5934,88.115
2.65,87.431
2.6823,86.747
2.695,85.917
2.6921,85.184
2.6794,84.354
2.6579,83.67
2.6285,83.035
2.5904,82.498
2.5415,82.058
2.4839,81.667
2.4164,81.374
2.3412,80.984
2.26,80.69
2.173,80.3
2.0841,79.909
1.998,79.469
1.9257,78.981
1.8661,78.492
1.8113,77.906
1.7644,77.564
1.7273,77.174
1.6999,76.734
1.6794,76.343
1.6647,76.441
1.6569,78.248
1.654,83.719
1.6549,94.318
1.6569,108.92
1.6608,123.62
1.6657,133.69
1.6716,137.3
1.6764,136.47
1.6813,134.91
1.6862,135.2
1.6911,137.06
1.695,138.67
1.6979,138.47
1.6989,136.47
1.697,133.74
1.694,131.2
1.6901,129.19
1.6872,127.24
1.6833,124.75
1.6784,121.38
1.6735,117.42
1.6667,113.17
1.6569,109.07
1.6432,105.06
1.6266,101.25
1.608,97.932
1.5924,95.295
1.5855,93.732
1.5982,92.999
1.6276,92.804
1.6813,92.804
1.7771,92.755
1.912,92.413
2.0762,92.12
2.2551,91.778
2.433,91.632
2.5934,91.485
2.7263,91.387
2.828,91.192
2.8974,90.801
2.9394,90.215
2.958,89.629
2.957,88.847
2.9433,88.115
2.9208,87.382
2.8905,86.747
2.8514,86.112
2.8025,85.575
2.7449,85.038
2.6774,84.696
2.6002,84.354
2.5142,84.061
2.4242,83.67
2.3333,83.23
2.2532,82.84
2.1818,82.547
2.1095,82.253
2.042,81.814
1.9804,81.277
1.9589,80.739
1.9629,80.251
1.9511,79.811
1.9326,79.421
1.911,79.03
1.8895,79.323
1.869,81.423
1.8485,87.48
1.8309,98.567
1.8143,113.37
1.7928,127.92
1.7683,137.69
1.7439,141.06
1.7195,140.18
1.697,139.01
1.6755,139.94
1.653,142.58
1.6305,144.73
1.6109,144.87
1.5924,143.02
1.5777,140.23
1.566,137.74
1.5543,135.79
1.5415,133.88
1.5298,131.29
1.5171,127.87
1.5054,123.82
1.4936,119.47
1.4839,115.32
1.4731,111.12
1.4594,107.07
1.4448,103.26
1.434,99.935
1.4321,97.444
1.4418,95.979
1.4741,95.295
1.5386,95.051
1.6413,94.904
1.7801,94.758
1.9453,94.513
2.1232,94.171
2.2972,93.878
2.4536,93.536
2.5836,93.195
2.6833,92.657
2.7478,92.169
2.7849,91.534
2.8084,90.85
2.8201,90.117
2.8221,89.287
2.8133,88.554
2.7957,87.822
2.7713,87.138
2.738,86.503
2.696,85.868
2.6442,85.282
2.5826,84.745
2.52,84.305
2.4555,83.865
2.3803,83.572
2.2991,83.23
2.216,82.84
2.1369,82.498
2.0645,82.009
2.002,81.374
1.9482,80.788
1.9052,80.251
1.8729,79.811
1.8485,79.323
1.8299,78.883
1.8172,79.03
1.8065,81.032
1.7947,86.796
1.783,97.444
1.7703,111.76
1.7576,125.97
1.7429,135.88
1.7273,139.69
1.7116,139.25
1.694,138.18
1.6755,138.91
1.6559,141.31
1.6403,143.36
1.6276,143.6
1.6158,141.94
1.6031,139.25
1.5914,136.67
1.5787,134.57
1.5679,132.51
1.5591,129.88
1.5523,126.56
1.5455,122.55
1.5367,118.3
1.5269,114
1.5152,109.75
1.5044,105.6
1.4946,101.79
1.4858,98.567
1.4829,96.174
1.4936,94.66
1.5288,93.976
1.5963,93.683
1.6979,93.488
1.8299,93.243
1.9863,92.95
2.1525,92.608
2.3157,92.315
2.4477,91.973
2.5533,91.68
2.65,91.241
2.7253,90.752
2.7771,90.166
2.8094,89.531
2.826,88.945
2.828,88.261
2.8182,87.48
2.7986,86.747
2.7693,85.966
2.7312,85.184
2.6843,84.354
2.6364,83.475
2.5846,82.595
2.522,81.716
2.4526,80.935
2.3783,80.251
2.303,79.665
2.2287,79.03
2.1584,78.444
2.0948,77.76
2.0401,77.125
1.9932,76.49
1.9531,76.001
1.9228,75.611
1.8993,75.171
1.8798,74.78
1.8641,74.731
1.8504,76.05
1.8368,80.544
1.824,89.922
1.8113,103.79
1.7996,119.03
1.7869,131
1.7752,136.81
1.7625,137.3
1.7517,135.88
1.7439,135.74
1.738,137.45
1.7312,139.55
1.7234,140.23
1.7155,138.91
1.7077,136.47
1.6999,133.98
1.6911,131.98
1.6833,130.17
1.6725,127.87
1.6588,124.8
1.6442,120.99
1.6305,116.79
1.6168,112.54
1.5982,108.29
1.5758,104.14
1.5503,100.03
1.5269,96.418
1.5112,93.732
1.5103,92.12
1.5357,91.436
1.5953,91.241
1.6921,91.241
1.824,91.094
1.9824,90.801
2.132,90.508
2.2708,90.166
2.4174,89.922
2.5523,89.678
2.6637,89.287
2.7478,88.799
2.8065,88.115
2.8416,87.382
2.8592,86.552
2.8641,85.819
2.8583,85.135
2.8416,84.354
2.8172,83.67
2.7859,83.035
2.7458,82.449
2.697,82.009
2.6393,81.618
2.5709,81.374
2.4956,81.032
2.4135,80.739
2.3275,80.3
2.2414,79.811
2.1584,79.225
2.0802,78.737
2.0088,78.199
1.9501,77.662
1.9032,77.174
1.8592,76.734
1.8201,76.294
1.7859,76.197
1.7566,76.929
1.7302,80.153
1.7028,87.724
1.6725,100.18
1.6422,115.13
1.6129,128.07
1.5826,135.35
1.5562,136.76
1.5318,135.25
1.5044,134.17
1.477,135.01
1.4516,136.62
1.4262,137.35
1.4018,136.23
1.3803,133.78
1.3646,131.1
1.3529,128.8
1.3451,126.75
1.3392,124.41
1.3343,121.43
1.3333,117.62
1.3333,113.37
1.3304,108.97
1.3236,104.67
1.3118,100.62
1.2962,97.004
1.2776,94.123
1.263,92.169
1.259,91.192
1.2766,90.85
1.3255,90.85
1.4106,90.752
1.5093,90.362
1.6246,89.922
1.7732,89.482
1.9345,89.238
2.0909,89.043
2.2278,88.847
2.3353,88.506
2.4096,88.066
2.4545,87.431
2.4731,86.943
2.4702,86.405
2.4487,85.917
2.4125,85.477
2.3705,84.989
2.3216,84.5
2.2581,84.012
2.1808,83.621
2.0919,83.377
1.9951,83.133
1.8925,82.986
1.783,82.791
1.6686,82.547
1.5533,82.253
1.4399,81.814
1.2688,81.374
1.0841,80.935
0.95992,80.495
0.8563,80.055
0.77224,79.616
0.70381,79.225
0.64712,78.883
0.59824,78.541
0.55523,78.688
0.51906,80.349
0.48876,85.575
0.46041,95.637
0.43402,109.85
0.4174,124.6
0.40665,135.25
0.39101,139.6
0.37439,139.11
0.35679,137.5
0.3392,137.35
0.32454,138.81
0.31183,140.33
0.30108,140.33
0.29032,138.47
0.28055,135.79
0.26882,133.1
0.25513,130.8
0.24829,128.61
0.24536,126.07
0.23754,122.75
0.22874,118.94
0.21994,114.78
0.2131,110.63
0.20723,106.63
0.19941,102.87
0.19062,99.495
0.18573,96.858
0.18866,95.197
0.21505,94.367
0.26882,94.123
0.35679,93.976
0.49756,93.781
0.6911,93.439
0.9306,92.999
1.2004,92.56
1.4809,92.169
1.7478,91.876
1.9844,91.534
2.1799,91.192
2.3333,90.655
2.4438,90.069
2.5152,89.287
2.5533,88.603
2.5699,87.871
2.5728,87.138
2.5621,86.356
2.5406,85.673
2.5093,85.038
2.4673,84.5
2.4145,84.061
2.349,83.67
2.2727,83.23
2.1877,82.84
2.0978,82.498
2.0166,82.107
1.9413,81.716
1.8602,81.277
1.7791,80.788
1.7048,80.3
1.6422,79.86
1.5894,79.421
1.5464,79.03
1.5142,78.541
1.4897,78.004
1.4751,77.809
1.4682,78.883
1.4673,82.937
1.4721,91.68
1.479,105.16
1.4878,120.5
1.4966,133.05
1.5064,139.55
1.5191,140.43
1.5347,139.11
1.5533,138.86
1.5738,140.57
1.5963,142.92
1.6197,144.04
1.6442,143.16
1.6667,141.01
1.6882,138.57
1.7107,136.57
1.7331,134.81
1.7527,132.66
1.7703,129.83
1.7849,126.16
1.7977,122.11
1.8065,117.91
1.8084,113.76
1.8045,109.61
1.7947,105.5
1.783,101.69
1.7742,98.47
1.7771,96.321
1.8035,95.051
1.8641,94.562
1.9687,94.416
2.1193,94.318
2.3128,94.123
2.5357,93.878
2.7693,93.536
2.9941,93.243
3.1926,92.853
3.3558,92.511
3.4673,92.071
3.5396,91.485
3.5934,90.801
3.6256,90.117
3.6373,89.287
3.6344,88.554
3.6207,87.822
3.5963,87.04
3.5611,86.308
3.5161,85.673
3.4604,85.135
3.3939,84.598
3.3177,84.11
3.2395,83.719
3.1564,83.377
3.0616,82.986
2.9589,82.595
2.8553,82.253
2.7546,81.716
2.6618,81.228
2.5797,80.69
2.5103,80.104
2.4545,79.616
2.4106,79.127
2.3744,78.59
2.3451,78.248
2.3196,78.492
2.2942,80.739
2.2688,86.796
2.2424,97.884
2.2141,112.54
2.1848,126.95
2.1554,136.67
2.1241,140.18
2.0909,139.45
2.0567,138.13
2.0225,138.57
1.9883,140.62
1.957,142.28
1.9296,142.38
1.9052,140.57
1.8827,137.94
1.8612,135.35
1.8397,133.3
1.8162,131.24
1.7937,128.7
1.7732,125.29
1.7556,121.38
1.74,117.13
1.7234,112.88
1.7077,108.53
1.6911,104.38
1.6676,100.42
1.6422,97.053
1.6246,94.611
1.6246,93.195
1.6559,92.511
1.7283,92.218
1.8465,92.12
2.0098,91.925
2.2082,91.68
2.4233,91.387
2.6373,91.045
2.8104,90.752
2.9482,90.362
3.0762,89.873
3.1789,89.287
3.2542,88.603
3.304,87.919
3.3314,87.138
3.3392,86.356
3.3314,85.575
3.3118,84.745
3.2796,84.061
3.2346,83.377
3.1818,82.84
3.1202,82.351
3.0459,82.009
2.9609,81.618
2.8671,81.277
2.7683,80.935
2.6647,80.544
2.5601,80.153
2.4604,79.762
2.3685,79.225
2.2874,78.688
2.218,78.053
2.1584,77.369
2.1124,76.783
2.0753,76.246
2.042,75.806
2.0127,75.611
1.9853,76.197
1.9589,79.127
1.9345,86.161
1.912,98.323
1.8915,113.56
1.87,127.48
1.8456,135.98
1.8182,138.13
1.7928,136.62
1.7703,135.1
1.7449,135.64
1.7165,137.35
1.6901,138.57
1.6647,137.89
1.6403,135.74
1.6178,133.2
1.5992,131
1.5826,129.29
1.567,127.48
1.5543,124.94
1.5435,121.57
1.5337,117.57
1.521,113.32
1.5064,108.97
1.4888,104.82
1.4712,100.72
1.4545,97.2
1.4418,94.416
1.4399,92.755
1.4604,92.12
1.5132,92.12
1.6061,92.169
1.74,91.973
1.8817,91.534
2.0352,91.045
2.2219,90.752
2.4145,90.557
2.5934,90.362
2.7458,90.117
2.8631,89.678
2.9462,89.043
3,88.31
3.0323,87.529
3.0469,86.747
3.0469,85.966
3.0342,85.282
3.0127,84.696
2.9844,84.11
2.9482,83.67
2.9032,83.23
2.8485,82.84
2.7224,82.547
2.566,82.302
2.4594,82.009
2.3773,81.618
2.3089,81.179
2.2483,80.69
2.1945,80.104
2.1505,79.421
2.1144,78.786
2.0811,78.248
2.0508,77.662
2.0254,77.223
2.0039,76.783
1.9853,76.441
1.9707,76.734
1.958,79.03
1.9443,85.379
1.9306,96.76
1.9169,111.8
1.9052,126.26
1.8944,135.49
1.8817,138.23
1.868,136.91
1.8543,135.35
1.8407,135.69
1.828,137.54
1.8143,139.01
1.8006,138.77
1.7869,136.81
1.7722,134.22
1.7576,131.98
1.7429,130.17
1.7312,128.31
1.7204,125.72
1.7087,122.31
1.695,118.35
1.6794,114.2
1.6628,110.09
1.6452,106.19
1.6256,102.38
1.6051,98.909
1.5855,96.321
1.5738,94.562
1.5767,93.781
1.5934,93.634
1.6266,93.634
1.6852,93.439
1.7683,93.048
1.87,92.608
1.9814,92.218
2.0929,91.973
2.1945,91.876
2.2796,91.632
2.3431,91.241
2.3871,90.655
2.4145,90.069
2.4272,89.385
2.4291,88.701
2.4242,87.919
2.4154,87.187
2.4027,86.405
2.3851,85.819
2.3627,85.233
2.3333,84.696
2.2972,84.256
2.2542,83.865
2.2053,83.572
2.1525,83.279
2.0968,82.986
2.0469,82.595
2.001,82.156
1.9521,81.716
1.9052,81.179
1.8622,80.69
1.825,80.153
1.7937,79.762
1.7683,79.323
1.7488,78.786
1.7341,78.248
1.7224,77.809
1.7116,78.297
1.7009,81.179
1.6911,88.359
1.6813,100.62
1.6667,115.91
1.65,129.88
1.6334,138.38
1.6168,140.57
1.5992,139.3
1.5806,138.33
1.563,139.45
1.5474,141.79
1.5327,143.46
1.5191,143.26
1.5112,141.31
1.5073,138.81
1.5034,136.62
1.5005,134.81
1.4976,132.95
1.4946,130.32
1.4917,126.95
1.4888,122.99
1.4848,118.89
1.48,114.73
1.4721,110.63
1.4614,106.48
1.4487,102.57
1.4399,99.105
1.437,96.614
1.4438,95.197
1.4682,94.611
1.5171,94.513
1.5943,94.416
1.6979,94.22
1.8201,93.927
1.9511,93.536
2.0792,93.243
2.1965,92.95
2.2972,92.56
2.3695,92.071
2.4194,91.485
2.4594,90.85
2.4888,90.166
2.5083,89.434
2.5181,88.701
2.52,87.919
2.5152,87.187
2.5024,86.405
2.4819,85.819
2.4536,85.184
2.4174,84.598
2.3744,84.158
2.3304,83.719
2.2854,83.377
2.2326,82.986
2.176,82.693
2.1173,82.302
2.0587,81.863
2.0029,81.423
1.9521,80.935
1.9081,80.446
1.871,79.86
1.8416,79.372
1.8201,78.786
1.8065,78.297
1.7986,78.004
1.7918,78.492
1.7849,81.277
1.7781,88.164
1.7693,100.13
1.7595,115.13
1.7488,129.05
1.737,137.79
1.7234,140.33
1.7077,139.25
1.6911,138.18
1.6745,139.11
1.6618,141.31
1.652,142.92
1.6422,142.67
1.6315,140.82
1.6197,138.33
1.609,136.08
1.5992,134.17
1.5914,132.22
1.5836,129.63
1.5758,126.12
1.5679,122.11
1.5582,117.86
1.5523,113.56
1.5474,109.36
1.5386,105.26
1.5269,101.35
1.5142,98.03
1.5054,95.637
1.5093,94.074
1.5337,93.292
1.5836,92.853
1.6628,92.56
1.7664,92.218
1.8895,91.876
2.0205,91.485
2.1329,91.094
2.2278,90.752
2.3196,90.313
2.3969,89.727
2.4565,89.092
2.4976,88.408
2.522,87.675
2.5327,86.943
2.5347,86.112
2.5298,85.233
2.5191,84.354
2.5015,83.621
2.4809,82.937
2.4565,82.351
2.4272,81.863
2.393,81.472
2.3519,81.13
2.305,80.788
2.2532,80.446
2.1984,80.104
2.1427,79.762
2.088,79.372
2.0362,78.981
1.9892,78.541
1.9531,78.053
1.9257,77.467
1.9032,76.978
1.8856,76.49
1.8719,76.001
1.8602,75.66
1.8514,75.757
1.8426,77.418
1.8338,82.449
1.826,92.364
1.8182,106.68
1.8104,121.72
1.8016,133
1.7937,137.89
1.7859,137.54
1.7761,135.74
1.7654,135.35
1.7546,136.81
1.7439,138.62
1.7341,139.11
1.7253,137.79
1.7175,135.49
1.7097,133.1
1.7019,131.2
1.695,129.39
1.6901,127.14
1.6862,124.06
1.6813,120.25
1.6755,116.05
1.6696,111.66
1.6628,107.31
1.6549,103.06
1.6471,99.154
1.6422,95.979
1.6422,93.732
1.65,92.56
1.6745,92.12
1.7214,92.071
1.7791,91.925
1.8514,91.632
1.9511,91.29
2.0684,90.997
2.1906,90.752
2.3069,90.508
2.4076,90.215
2.4878,89.873
2.5474,89.434
2.5865,88.847
2.607,88.164
2.6158,87.48
2.7038,86.845
2.8289,86.161
2.8788,85.477
2.8876,84.842
2.871,84.354
2.8377,83.865
2.7889,83.426
2.7243,82.986
2.6481,82.595
2.5611,82.253
2.4633,81.863
2.3607,81.472
2.2561,80.984
2.1642,80.495
2.0821,79.909
2.001,79.225
1.9247,78.59
1.8573,78.102
1.7986,77.662
1.7468,77.223
1.7019,76.881
1.6637,76.881
1.6295,78.248
1.5982,82.937
1.5679,92.511
1.5435,106.53
1.523,121.67
1.5005,132.95
1.479,137.74
1.4575,137.25
1.434,135.2
1.4096,134.61
1.3822,135.98
1.3519,137.74
1.3177,138.13
1.2805,136.81
1.2405,134.52
1.1984,132.17
1.1652,130.17
1.1369,128.31
1.1046,125.92
1.0733,122.79
1.0411,118.98
1.0088,114.78
0.97752,110.53
0.94428,106.38
0.91105,102.47
0.87879,98.909
0.85044,96.076
0.83187,94.171
0.82991,93.243
0.84946,92.999
0.89834,93.048
0.98729,92.95
1.1212,92.657
1.2972,92.315
1.5015,91.973
1.7165,91.778
1.9267,91.68
2.1173,91.485
2.2737,91.241
2.393,90.801
2.479,90.215
2.5298,89.629
2.5572,88.945
2.5718,88.261
2.5758,87.529
2.5699,86.796
2.5562,86.063
2.5357,85.428
2.5054,84.94
2.4663,84.403
2.4174,84.061
2.3568,83.719
2.2854,83.426
2.2151,83.133
2.1437,82.791
2.0635,82.449
1.9814,82.009
1.9032,81.472
1.8348,80.984
1.7781,80.495
1.7322,80.055
1.6979,79.616
1.6745,79.127
1.6618,78.688
1.6559,78.492
1.6549,79.421
