0.27957,64.733
0.30303,64.342
0.33431,64.146
0.37341,63.755
0.4174,63.755
0.46432,63.559
0.51124,63.559
0.54839,63.364
0.57771,63.364
0.60508,63.364
0.62952,63.168
0.64712,62.973
0.65885,62.973
0.66764,62.777
0.67253,62.386
0.67351,62.19
0.6696,61.799
0.66178,61.604
0.65103,61.408
0.63539,61.017
0.61681,60.626
0.59629,60.43
0.57478,60.039
0.5523,59.844
0.53177,59.452
0.5132,59.061
0.49267,58.67
0.4741,58.279
0.45552,57.888
0.43891,57.497
0.42326,57.106
0.41056,56.715
0.39883,56.128
0.38905,55.737
0.38025,55.346
0.37243,54.954
0.36755,54.368
0.36266,53.977
0.35875,53.781
0.35582,53.39
0.35191,52.999
0.34897,52.803
0.34604,52.803
0.34311,52.803
0.34115,53.194
0.33822,53.781
0.33529,55.346
0.33333,58.279
0.3304,62.386
0.32845,67.471
0.32747,73.142
0.32551,78.814
0.32356,84.289
0.32063,89.179
0.31867,93.481
0.31574,97.001
0.31281,99.935
0.31085,101.89
0.30792,103.06
0.30499,103.46
0.30205,103.06
0.3001,102.09
0.29814,100.52
0.29521,98.566
0.29228,96.219
0.28935,93.481
0.28543,90.352
0.2825,86.832
0.27859,83.507
0.27566,80.183
0.27175,77.249
0.26882,74.511
0.26491,72.36
0.26295,70.404
0.261,68.84
0.26002,67.471
0.261,66.493
0.26588,65.711
0.27664,65.124
0.29326,64.733
0.31769,64.342
0.34995,64.146
0.38807,63.95
0.43011,63.755
0.4741,63.755
0.51808,63.755
0.55425,63.755
0.58456,63.755
0.61388,63.755
0.64125,63.559
0.66276,63.559
0.67937,63.364
0.69013,63.168
0.69599,62.973
0.69599,62.777
0.69208,62.386
0.68328,62.19
0.67058,61.995
0.65591,61.604
0.64027,61.408
0.62072,61.213
0.59922,60.821
0.57576,60.626
0.5523,60.235
0.52981,60.039
0.50733,59.648
0.4868,59.452
0.46823,59.061
0.45064,58.475
0.43597,58.083
0.42229,57.692
0.41153,57.301
0.40371,56.91
0.39589,56.519
0.38807,56.128
0.38123,55.737
0.37537,55.346
0.37048,55.15
0.36657,54.759
0.36364,54.563
0.35973,54.368
0.35679,54.172
0.35484,54.368
0.35288,54.954
0.35093,55.932
0.34897,58.083
0.34702,61.604
0.34506,66.493
0.34311,72.164
0.34018,78.031
0.33822,83.703
0.33529,88.983
0.33333,93.677
0.33138,97.979
0.32845,101.3
0.32649,103.85
0.32454,105.41
0.32356,106.19
0.3216,106.19
0.31965,105.61
0.31672,104.43
0.31476,102.87
0.31183,100.91
0.3089,98.37
0.30596,95.632
0.30303,92.503
0.3001,89.374
0.29814,85.854
0.29619,82.725
0.29423,79.791
0.29228,77.054
0.28935,74.902
0.28739,72.947
0.28641,71.578
0.28641,70.404
0.28935,69.426
0.29717,68.644
0.31183,68.057
0.33333,67.666
0.36266,67.471
0.39883,67.275
0.43402,67.275
0.46921,67.08
0.51026,67.08
0.5523,67.08
0.59238,66.884
0.62854,66.884
0.65982,66.688
0.68524,66.493
0.70479,66.297
0.71945,66.102
0.72825,65.906
0.73118,65.515
0.73021,65.319
0.72532,64.928
0.71652,64.733
0.70479,64.342
0.69013,63.95
0.67155,63.755
0.652,63.364
0.6305,62.973
0.60802,62.777
0.58553,62.386
0.56305,61.995
0.54252,61.604
0.52395,61.213
0.50733,60.626
0.49462,60.235
0.48094,59.648
0.46921,59.061
0.45846,58.475
0.44868,58.083
0.44086,57.497
0.43402,56.91
0.42815,56.519
0.42326,56.128
0.41935,55.737
0.41544,55.346
0.41251,54.954
0.40958,54.759
0.40665,54.759
0.40274,55.15
0.3998,55.932
0.39687,57.888
0.39394,61.017
0.39003,65.711
0.3871,71.578
0.38416,77.836
0.38123,83.898
0.3783,89.765
0.37537,95.046
0.37243,99.544
0.37048,103.46
0.36852,106.39
0.36559,108.34
0.36266,109.52
0.35973,109.71
0.35582,109.32
0.35288,108.15
0.34897,106.58
0.34506,104.63
0.34115,102.48
0.33724,99.739
0.33333,96.806
0.3304,93.677
0.32649,90.352
0.32258,86.832
0.31867,83.312
0.31476,80.183
0.30987,77.64
0.30596,75.293
0.30205,73.338
0.3001,71.773
0.30108,70.6
0.30694,69.426
0.31867,68.84
0.33333,68.253
0.35386,67.862
0.38319,67.471
0.42033,67.275
0.46139,67.08
0.50635,66.884
0.54936,66.884
0.59042,66.688
0.62757,66.688
0.65787,66.493
0.68328,66.297
0.70186,66.102
0.71359,65.906
0.71945,65.711
0.72239,65.319
0.72239,64.928
0.71848,64.537
0.71065,64.146
0.69892,63.755
0.68426,63.364
0.66569,62.973
0.64516,62.582
0.62268,62.19
0.59922,61.799
0.57478,61.604
0.55425,61.213
0.5347,60.821
0.51417,60.43
0.49462,60.039
0.47507,59.648
0.45748,59.061
0.44184,58.67
0.42815,58.083
0.41544,57.692
0.40469,57.106
0.39589,56.715
0.38905,56.128
0.38319,55.737
0.3783,55.346
0.37341,54.954
0.3695,54.563
0.36461,54.368
0.3607,54.172
0.35679,53.977
0.35288,54.172
0.34897,54.759
0.34506,55.932
0.34213,58.279
0.33822,61.995
0.33529,67.08
0.33236,72.947
0.32942,79.205
0.32551,85.072
0.3216,90.548
0.31769,95.437
0.31476,99.544
0.31085,102.87
0.30694,105.41
0.30401,106.98
0.3001,107.56
0.29717,107.56
0.29326,106.78
0.29032,105.41
0.28837,103.65
0.28543,101.5
0.28152,98.957
0.27761,95.828
0.2737,92.699
0.26979,89.179
0.26686,85.658
0.26295,82.334
0.25904,79.205
0.25611,76.467
0.2522,73.924
0.25024,71.969
0.24927,70.404
0.24829,69.035
0.25024,68.057
0.25709,67.275
0.27077,66.688
0.29228,66.102
0.3216,65.711
0.35875,65.515
0.40176,65.319
0.44868,65.319
0.4956,65.124
0.54154,65.124
0.57771,65.124
0.60802,64.928
0.63636,64.928
0.6608,64.733
0.68035,64.537
0.69404,64.537
0.70283,64.146
0.70577,63.95
0.70381,63.559
0.69697,63.168
0.68622,62.973
0.67253,62.582
0.65591,62.19
0.63832,61.799
0.61779,61.408
0.59433,61.213
0.56989,60.821
0.54545,60.43
0.52102,60.039
0.49853,59.648
0.47605,59.257
0.4565,58.866
0.43793,58.475
0.42229,58.083
0.4086,57.497
0.39687,57.106
0.38807,56.519
0.38025,56.128
0.37243,55.541
0.36559,55.15
0.35973,54.759
0.35484,54.368
0.34995,53.977
0.34604,53.781
0.34311,53.39
0.3392,53.39
0.33627,53.39
0.33431,53.585
0.33236,54.368
0.32942,55.737
0.32649,58.475
0.32356,62.386
0.32063,67.471
0.31672,73.142
0.31378,78.814
0.30987,84.289
0.30694,89.179
0.30401,93.481
0.30108,97.197
0.29814,100.13
0.29521,102.09
0.29423,103.26
0.2913,103.65
0.28837,103.26
0.28543,102.48
0.2825,100.91
0.27859,98.957
0.27468,96.61
0.27077,93.677
0.26686,90.548
0.26295,87.223
0.26002,83.898
0.25709,80.574
0.25513,77.445
0.2522,74.707
0.24927,72.36
0.24633,70.404
0.2434,68.84
0.24242,67.666
0.24242,66.688
0.24731,65.906
0.25611,65.319
0.27273,64.928
0.29717,64.537
0.32845,64.342
0.36168,64.146
0.39492,63.95
0.43597,63.95
0.47996,63.755
0.52199,63.755
0.56207,63.755
0.59726,63.559
0.62659,63.364
0.65005,63.364
0.66667,63.168
0.6784,62.973
0.68426,62.582
0.68426,62.386
0.68035,61.995
0.67351,61.604
0.66276,61.408
0.64712,61.017
0.62952,60.626
0.60802,60.43
0.58553,60.039
0.56207,59.844
0.53763,59.452
0.51417,59.061
0.49169,58.866
0.47116,58.475
0.45357,58.083
0.43891,57.692
0.42424,57.106
0.41153,56.715
0.39883,56.323
0.38807,55.932
0.37928,55.346
0.37146,54.954
0.36364,54.563
0.35777,54.172
0.35288,53.781
0.34897,53.39
0.34604,52.999
0.34409,52.803
0.34115,52.608
0.3392,52.608
0.33627,52.803
0.33333,53.585
0.3304,54.759
0.32747,57.106
0.32454,61.017
0.3216,65.906
0.31867,71.382
0.31574,77.054
0.31281,82.529
0.31085,87.419
0.3089,91.917
0.30694,95.828
0.30499,98.957
0.30205,101.11
0.29912,102.48
0.29717,103.06
0.29423,102.87
0.2913,102.09
0.28739,100.91
0.28446,98.957
0.28152,96.806
0.27859,94.068
0.27664,91.134
0.2737,87.81
0.27077,84.485
0.26686,81.16
0.26393,78.031
0.26002,75.293
0.25709,72.947
0.25318,70.991
0.25024,69.231
0.24829,67.862
0.24927,66.884
0.25318,65.906
0.26002,65.319
0.27175,64.733
0.2913,64.342
0.31867,64.146
0.35288,63.95
0.39296,63.755
0.43695,63.559
0.48289,63.559
0.52688,63.364
0.56794,63.364
0.60508,63.364
0.63539,63.168
0.65689,62.973
0.67155,62.973
0.68426,62.777
0.69208,62.386
0.69599,62.19
0.69501,61.995
0.68915,61.604
0.6784,61.213
0.66471,60.821
0.64712,60.626
0.62659,60.235
0.60411,59.844
0.58065,59.648
0.55914,59.257
0.53959,58.866
0.51808,58.67
0.49658,58.279
0.47703,57.888
0.45846,57.497
0.44184,57.106
0.42717,56.715
0.41349,56.128
0.40176,55.737
0.39198,55.346
0.38416,54.954
0.37732,54.563
0.37243,54.172
0.36657,53.781
0.36266,53.39
0.35777,52.999
0.35386,52.803
0.35093,52.608
0.34702,52.412
0.34409,52.608
0.34604,52.999
0.34897,54.172
0.34897,56.323
0.348,59.844
0.34604,64.537
0.34409,70.013
0.34115,75.88
0.33822,81.747
0.33431,87.027
0.33138,91.721
0.32845,95.828
0.32551,99.348
0.32258,101.69
0.31965,103.46
0.31672,104.24
0.31378,104.24
0.31085,103.85
0.3089,102.67
0.30596,100.91
0.30303,98.957
0.29912,96.61
0.29521,93.677
0.2913,90.548
0.28739,87.419
0.28446,83.898
0.28055,80.769
0.27664,77.64
0.27273,75.098
0.27077,72.751
0.26882,70.991
0.26686,69.426
0.26588,68.057
0.26686,67.08
0.27273,66.102
0.28543,65.515
0.30499,65.124
0.33333,64.733
0.3695,64.537
0.41349,64.342
0.46139,64.146
0.51124,63.95
0.55327,63.95
0.5914,63.95
0.62952,63.95
0.66471,63.755
0.69501,63.755
0.71848,63.559
0.73607,63.364
0.7478,63.168
0.75367,62.777
0.75367,62.582
0.74878,62.19
0.739,61.799
0.72727,61.408
0.71261,61.213
0.69306,60.821
0.67155,60.43
0.64809,60.235
0.62268,59.844
0.59726,59.452
0.57185,59.257
0.54741,58.866
0.52395,58.475
0.50342,58.083
0.48387,57.497
0.46628,57.106
0.45259,56.715
0.44086,56.323
0.43011,55.737
0.41935,55.346
0.41056,54.954
0.40274,54.563
0.39589,54.172
0.39003,53.781
0.38514,53.39
0.38025,52.999
0.37732,52.803
0.37341,52.608
0.37048,52.803
0.36852,53.194
0.36559,54.172
0.36266,56.323
0.35973,59.844
0.35679,64.537
0.35288,70.209
0.34995,76.271
0.34604,81.943
0.34311,87.419
0.3392,92.308
0.33627,96.61
0.33236,99.935
0.3304,102.67
0.32845,104.43
0.32551,105.41
0.32258,105.61
0.31867,105.22
0.31574,104.24
0.31183,102.67
0.30792,100.72
0.30401,98.37
0.3001,95.828
0.29619,92.894
0.29228,89.57
0.28935,86.05
0.28739,82.725
0.28543,79.596
0.28152,76.662
0.27859,74.316
0.27468,72.164
0.27175,70.6
0.26979,69.231
0.27175,68.057
0.27761,67.275
0.29032,66.688
0.31085,66.102
0.34115,65.906
0.37243,65.515
0.40665,65.515
0.45064,65.319
0.49951,65.319
0.54839,65.319
0.59629,65.319
0.6393,65.319
0.67644,65.319
0.70772,65.124
0.73216,65.124
0.75073,64.928
0.76246,64.733
0.76735,64.537
0.76735,64.146
0.76442,63.95
0.7566,63.559
0.74487,63.168
0.73021,62.973
0.71065,62.582
0.68915,62.19
0.66471,61.799
0.6393,61.604
0.6129,61.213
0.58651,60.821
0.56109,60.43
0.53959,60.039
0.52102,59.844
0.50244,59.257
0.48485,58.866
0.46921,58.475
0.45455,58.083
0.44282,57.692
0.43206,57.301
0.42326,56.91
0.41544,56.519
0.4086,55.932
0.40371,55.541
0.3998,55.346
0.39687,54.954
0.39296,54.759
0.39003,54.563
0.3871,54.759
0.38514,55.15
0.38221,56.128
0.37928,58.279
0.37634,61.799
0.37439,66.884
0.37146,72.751
0.36852,79.009
0.36559,85.267
0.36364,90.743
0.36168,95.828
0.35875,100.33
0.35679,103.85
0.35386,106.58
0.35093,108.34
0.348,109.13
0.34506,109.32
0.34213,108.74
0.3392,107.56
0.33529,106.19
0.33236,104.24
0.3304,102.09
0.32845,99.348
0.32551,96.61
0.32258,93.286
0.31965,89.961
0.31672,86.441
0.31378,83.312
0.31085,80.378
0.30792,77.836
0.30499,75.685
0.30205,73.729
0.30205,72.36
0.30499,71.186
0.31085,70.404
0.32258,69.622
0.34115,69.035
0.36852,68.84
0.40469,68.644
0.4477,68.449
0.4956,68.253
0.54545,68.253
0.59531,68.253
0.64223,68.057
0.68426,68.057
0.72043,67.862
0.74585,67.471
0.76442,67.275
0.78006,66.884
0.79179,66.493
0.79863,66.102
0.80059,65.515
0.79765,65.124
0.79081,64.537
0.77908,64.146
0.76344,63.755
0.74487,63.364
0.72336,62.973
0.6999,62.777
0.67742,62.386
0.65494,61.995
0.63148,61.604
0.60704,61.213
0.58358,60.821
0.56109,60.43
0.54057,60.039
0.52199,59.452
0.50538,59.061
0.49169,58.475
0.47898,58.083
0.46823,57.497
0.46041,56.91
0.45357,56.519
0.4477,56.128
0.44184,55.541
0.43695,55.346
0.43206,54.954
0.42717,54.563
0.42326,54.368
0.41838,54.172
0.41447,54.368
0.41056,55.15
0.40567,56.715
0.40274,59.648
0.39883,64.146
0.39492,70.013
0.39003,76.271
0.38612,82.529
0.38123,88.592
0.37634,93.872
0.37146,98.761
0.36755,102.67
0.36266,105.61
0.35875,107.76
0.35386,108.93
0.34897,109.13
0.34604,108.74
0.34213,107.76
0.33822,106.39
0.32845,104.43
0.31672,102.28
0.30792,99.739
0.30108,96.806
0.29521,93.677
0.29032,90.352
0.28543,86.832
0.28055,83.507
0.27664,80.183
0.27273,77.445
0.26979,75.098
0.26686,73.142
0.26393,71.578
0.26197,70.209
0.26393,69.231
0.27175,68.449
0.28543,67.862
0.30792,67.471
0.33822,67.08
0.37537,66.884
0.41838,66.884
0.46334,66.688
0.50342,66.493
0.53861,66.493
0.57576,66.297
0.60997,66.102
0.64027,65.906
0.66373,65.906
0.68231,65.711
0.69501,65.319
0.70186,65.124
0.70381,64.733
0.70186,64.342
0.69501,63.95
0.68524,63.559
0.67351,63.168
0.65787,62.777
0.6393,62.386
0.61877,61.995
0.59629,61.604
0.57283,61.213
0.54839,60.821
0.52493,60.43
0.50147,60.039
0.48094,59.648
0.46139,59.257
0.44282,58.866
0.42913,58.475
0.4174,57.888
0.40665,57.497
0.39589,56.91
0.3871,56.519
0.37928,56.128
0.37243,55.541
0.36657,55.15
0.36168,54.759
0.35777,54.368
0.35288,53.977
0.34995,53.781
0.34702,53.781
0.34409,53.781
0.34115,53.977
0.33822,54.563
0.33431,55.932
0.33138,58.475
0.32747,62.582
0.32356,67.666
0.31965,73.729
0.31672,79.596
0.31281,85.463
0.3089,90.548
0.30596,95.241
0.30303,99.153
0.30108,102.28
0.29912,104.43
0.29619,105.61
0.29326,106.19
0.28935,105.8
0.28641,105.02
0.2825,103.65
0.27859,101.69
0.27566,99.348
0.27175,96.61
0.26784,93.481
0.26491,90.352
0.26295,86.832
0.26002,83.312
0.25709,80.183
0.25415,77.249
0.25122,74.707
0.24731,72.555
0.24438,70.795
0.24242,69.426
0.24242,68.253
0.24536,67.275
0.25318,66.688
0.26784,66.102
0.28543,65.711
0.3089,65.515
0.34115,65.319
0.37928,65.124
0.42229,64.928
0.46725,64.928
0.51124,64.733
0.55327,64.733
0.58944,64.733
0.62072,64.537
0.64614,64.342
0.66471,64.146
0.67644,63.95
0.68231,63.755
0.68524,63.364
0.68426,62.973
0.67937,62.582
0.6696,62.19
0.65689,61.995
0.64027,61.604
0.62072,61.213
0.59922,60.821
0.57674,60.626
0.5523,60.235
0.52884,59.844
0.50831,59.452
0.48974,59.061
0.47116,58.67
0.45259,58.279
0.435,57.888
0.42033,57.497
0.40665,56.91
0.39492,56.519
0.38514,55.932
0.37634,55.541
0.3695,55.15
0.36266,54.759
0.35777,54.368
0.35386,53.977
0.35093,53.585
0.34702,53.194
0.34409,52.999
0.34018,52.803
0.33724,52.999
0.33431,53.194
0.33138,53.781
0.32845,55.15
0.32551,57.497
0.32258,61.213
0.31965,66.102
0.31672,71.578
0.31476,77.054
0.31281,82.529
0.30987,87.419
0.30694,91.917
0.30401,95.632
0.30108,98.566
0.29814,100.72
0.29521,101.89
0.2913,102.48
0.28837,102.09
0.28543,101.3
0.28348,99.935
0.28152,97.979
0.27859,95.828
0.27566,93.09
0.27175,89.961
0.26882,86.636
0.26491,83.312
0.26197,79.987
0.25806,77.054
0.25513,74.316
0.2522,72.164
0.24927,70.209
0.24633,68.644
0.24536,67.471
0.24536,66.297
0.24829,65.515
0.25415,64.928
0.26491,64.537
0.28348,64.146
0.3089,63.755
0.34115,63.559
0.37928,63.559
0.42131,63.364
0.46432,63.364
0.50733,63.168
0.54252,63.168
0.57185,63.168
0.6002,62.973
0.62463,62.973
0.64516,62.777
0.65982,62.386
0.66862,62.19
0.67253,61.995
0.67155,61.604
0.66569,61.408
0.65591,61.017
0.64321,60.626
0.62757,60.235
0.61193,60.039
0.59238,59.648
0.57087,59.452
0.54839,59.061
0.52493,58.67
0.50342,58.475
0.48192,58.083
0.46237,57.692
0.44477,57.301
0.42913,56.91
0.41447,56.519
0.40274,56.128
0.39296,55.541
0.38514,55.15
0.37732,54.759
0.37048,54.368
0.36461,53.977
0.35973,53.585
0.35484,53.194
0.35093,52.803
0.348,52.412
0.34506,52.216
0.34213,52.216
0.3392,52.412
0.33627,52.803
0.33529,53.781
0.33236,55.541
0.32942,58.67
0.32649,63.168
0.32356,68.644
0.3216,74.316
0.31867,79.987
0.31574,85.267
0.31281,89.961
0.30987,94.263
0.30792,97.588
0.30499,100.13
0.30303,101.89
0.30108,102.87
0.29912,102.87
0.29619,102.48
0.29423,101.3
0.2913,99.739
0.28739,97.784
0.28446,95.241
0.28152,92.503
0.27859,89.374
0.27468,85.854
0.27175,82.529
0.26882,79.205
0.26686,76.467
0.26491,73.729
0.26197,71.578
0.25904,69.622
0.25611,68.253
0.25415,67.08
0.25513,66.102
0.25904,65.319
0.26882,64.733
0.28837,64.342
0.31769,63.95
0.35288,63.755
0.3871,63.559
0.42326,63.559
0.46628,63.364
0.5132,63.364
0.55816,63.364
0.60117,63.168
0.63832,63.168
0.67058,62.973
0.69599,62.973
0.71554,62.777
0.72825,62.386
0.73509,62.19
0.73705,61.799
0.73314,61.604
0.7263,61.213
0.71457,60.821
0.69892,60.626
0.68035,60.235
0.65885,59.844
0.63539,59.648
0.60997,59.257
0.58456,59.061
0.56012,58.67
0.53666,58.279
0.51417,57.888
0.49462,57.497
0.47898,57.106
0.46334,56.715
0.4477,56.323
0.435,55.737
0.42326,55.346
0.41251,54.954
0.40371,54.563
0.39687,54.172
0.39003,53.781
0.38416,53.39
0.37928,52.999
0.37634,52.608
0.37341,52.412
0.3695,52.216
0.36657,52.216
0.36364,52.608
0.3607,53.39
0.35679,54.954
0.35386,57.692
0.35093,61.799
0.348,67.08
0.34409,72.947
0.34115,78.618
0.33822,84.289
0.33627,89.179
0.33431,93.677
0.33138,97.393
0.32845,100.33
0.32551,102.28
0.3216,103.46
0.31867,104.04
0.31574,103.65
0.31281,102.87
0.3089,101.5
0.30596,99.544
0.30205,97.197
0.29912,94.655
0.29717,91.525
0.29423,88.201
0.29032,84.876
0.28739,81.356
0.28348,78.227
0.28055,75.489
0.27664,73.142
0.2737,70.991
0.26979,69.231
0.26784,67.862
0.26784,66.884
0.27077,65.906
0.27761,65.319
0.29032,64.733
0.30987,64.537
0.33822,64.146
0.37439,63.95
0.41642,63.755
0.46334,63.755
0.51124,63.559
0.55816,63.559
0.60313,63.559
0.64223,63.559
0.67546,63.364
0.6999,63.168
0.71652,62.973
0.73021,62.777
0.73998,62.582
0.74389,62.19
0.74389,61.799
0.739,61.604
0.72923,61.213
0.71457,60.821
0.69697,60.626
0.67644,60.235
0.65298,59.844
0.62854,59.648
0.60508,59.257
0.58358,58.866
0.56012,58.67
0.53666,58.279
0.51417,57.888
0.49365,57.497
0.47507,57.106
0.45846,56.715
0.44379,56.128
0.43109,55.737
0.42033,55.346
0.41056,54.954
0.40371,54.368
0.39785,53.977
0.39198,53.781
0.3871,53.194
0.38221,52.803
0.37732,52.608
0.37341,52.412
0.37048,52.412
0.36657,52.608
0.36364,53.39
0.3607,54.759
0.35777,57.301
0.35386,61.408
0.35191,66.493
0.34897,72.555
0.34702,78.618
0.34311,84.485
0.34018,89.961
0.33724,94.85
0.33431,98.761
0.3304,102.09
0.32747,104.43
0.32454,106
0.32063,106.78
0.31769,106.78
0.31574,106
0.31378,104.82
0.31085,103.06
0.30694,101.11
0.30401,98.566
0.3001,95.828
0.29619,92.699
0.29228,89.374
0.28935,85.854
0.28543,82.529
0.28152,79.4
0.27761,76.662
0.27468,74.316
0.27175,72.36
0.27077,70.795
0.26979,69.426
0.27175,68.449
0.27859,67.666
0.29032,67.08
0.31085,66.688
0.34018,66.493
0.37732,66.297
0.42033,66.102
0.46921,66.102
0.51906,65.906
0.56305,65.906
0.6002,65.906
0.6393,65.906
0.67546,65.906
0.70674,65.906
0.73118,65.711
0.74976,65.515
0.76246,65.124
0.77028,64.928
0.77126,64.537
0.76833,64.342
0.76051,63.95
0.74976,63.559
0.73509,63.168
0.7175,62.973
0.69599,62.582
0.67253,62.19
0.64809,61.799
0.62268,61.604
0.59629,61.213
0.57185,60.821
0.54839,60.43
0.5259,60.039
0.50635,59.648
0.48876,59.257
0.47507,58.866
0.46334,58.279
0.45259,57.888
0.44282,57.497
0.435,57.106
0.42717,56.715
0.42131,56.323
0.41544,55.932
0.41153,55.541
0.40762,55.346
0.40469,54.954
0.40176,54.954
0.39883,54.954
0.39687,55.346
0.39492,56.323
0.39296,58.67
0.39101,62.19
0.38807,67.471
0.38514,73.533
0.38221,79.987
0.37928,86.05
0.37634,91.917
0.37341,97.001
0.37048,101.3
0.36755,105.02
0.36559,107.56
0.36461,109.13
0.36168,110.1
0.35973,110.1
0.35679,109.32
0.35386,108.15
0.35093,106.39
0.34702,104.43
0.34409,102.28
0.34115,99.544
0.33724,96.61
0.33431,93.286
0.33236,89.765
0.3304,86.245
0.32747,82.921
0.32454,79.791
0.3216,77.054
0.31769,74.902
0.31476,73.142
0.31378,71.578
0.31476,70.6
0.31965,69.622
0.3304,69.035
0.34995,68.449
0.37732,68.057
0.40665,67.862
0.43988,67.862
0.48192,67.666
0.52884,67.471
0.57674,67.471
0.62366,67.275
0.66569,67.275
0.70283,66.884
0.73412,66.688
0.75855,66.493
0.77713,66.102
0.78886,65.906
0.79374,65.319
0.79472,64.928
0.79179,64.537
0.78495,64.146
0.76149,63.755
0.72923,63.168
0.70381,62.777
0.67937,62.386
0.65591,61.995
0.63148,61.604
0.60704,61.213
0.5826,60.821
0.55914,60.43
0.53861,60.039
0.52102,59.844
0.50244,59.452
0.48583,58.866
0.47019,58.475
0.45552,57.888
0.44379,57.497
0.43304,57.106
0.42326,56.715
0.41544,56.128
0.4086,55.737
0.40176,55.346
0.39687,54.759
0.39198,54.368
0.38807,54.172
0.38319,53.781
0.3783,53.585
0.37341,53.585
0.36852,53.781
0.36461,54.368
0.35973,56.128
0.35484,59.257
0.34995,63.755
0.34506,69.622
0.34018,75.88
0.33529,82.334
0.33236,88.396
0.32845,93.872
0.32454,98.566
0.31965,102.48
0.31574,105.61
0.31183,107.56
0.30792,108.74
0.30401,108.93
0.3001,108.54
0.29619,107.37
0.29228,105.8
0.28935,103.85
0.28739,101.5
0.28348,98.761
0.28055,95.828
0.27664,92.503
0.27273,88.983
0.26882,85.463
0.26588,82.138
0.26197,79.205
0.25806,76.467
0.25415,74.12
0.25122,72.164
0.24829,70.6
0.24731,69.426
0.24927,68.449
0.25513,67.666
0.26784,67.08
0.28641,66.688
0.31378,66.297
0.34897,66.102
0.39101,65.906
0.43597,65.906
0.48289,65.711
0.52786,65.711
0.56989,65.515
0.60215,65.515
0.62854,65.319
0.652,65.124
0.67058,64.928
0.68524,64.537
0.69404,64.342
0.69795,63.95
0.69795,63.559
0.69208,63.168
0.68328,62.777
0.6696,62.386
0.65298,61.995
0.63441,61.604
0.61486,61.213
0.59531,60.821
0.5738,60.43
0.55034,60.039
0.52688,59.844
0.50342,59.452
0.48192,59.061
0.46237,58.67
0.44379,58.279
0.42815,57.692
0.41349,57.301
0.40078,56.91
0.39101,56.519
0.38319,55.932
0.37634,55.541
0.3695,55.15
0.36266,54.563
0.35777,54.172
0.35288,53.781
0.34897,53.39
0.34506,53.194
0.34115,52.999
0.33822,52.803
0.33431,52.999
0.33138,53.194
0.32845,54.172
0.32649,55.932
0.32356,58.866
0.31965,63.168
0.31574,68.644
0.31281,74.511
0.3089,80.183
0.30499,85.658
0.30205,90.548
0.29912,94.85
0.29521,98.37
0.29228,100.91
0.29032,102.67
0.28837,103.65
0.28641,103.65
0.28348,103.26
0.28055,102.09
0.27761,100.33
0.2737,98.37
0.27077,95.828
0.26686,92.894
0.26393,89.765
0.26002,86.245
0.25709,82.921
0.25415,79.791
0.25318,76.858
0.25024,74.316
0.24829,72.164
0.24536,70.209
0.24242,68.644
0.24047,67.471
0.24047,66.297
0.24242,65.711
0.25024,65.124
0.26393,64.537
0.28446,64.342
0.31378,63.95
0.34311,63.755
0.37537,63.559
0.41447,63.559
0.4565,63.364
0.49951,63.364
0.53959,63.364
0.57576,63.168
0.60606,62.973
0.63148,62.973
0.65005,62.777
0.66276,62.386
0.6696,62.19
0.67155,61.799
0.6696,61.408
0.66276,61.213
0.65298,60.821
0.64027,60.43
0.62366,60.039
0.60411,59.844
0.5826,59.452
0.56012,59.061
0.53763,58.866
0.51417,58.475
0.49267,58.083
0.47116,57.692
0.45455,57.301
0.43988,56.91
0.42522,56.715
0.41153,56.128
0.39883,55.737
0.38807,55.346
0.3783,54.954
0.3695,54.368
0.36168,53.977
0.35582,53.585
0.34995,53.194
0.34506,52.803
0.34213,52.412
0.3392,52.216
0.33724,52.021
0.33431,52.021
0.33138,52.021
0.32845,52.412
0.32551,53.194
0.32258,54.954
0.31965,57.888
0.31672,61.995
0.31281,67.08
0.30987,72.751
0.30694,78.227
0.30499,83.507
0.30303,88.396
0.30108,92.503
0.29912,95.828
0.29619,98.566
0.29326,100.33
0.2913,101.3
0.28837,101.5
0.28543,101.11
0.2825,99.935
0.27957,98.37
0.27664,96.415
0.2737,93.872
0.27273,90.939
0.26979,87.81
0.26686,84.289
0.26393,80.965
0.26002,77.836
0.25709,75.098
0.25415,72.555
0.25122,70.404
0.24829,68.644
0.24536,67.275
0.2434,66.102
0.2434,65.124
0.24633,64.342
0.2522,63.755
0.26393,63.364
0.28152,63.168
0.30694,62.973
0.3392,62.777
0.37732,62.777
0.41935,62.582
0.46237,62.582
0.50538,62.582
0.54545,62.386
0.58065,62.386
0.60704,62.19
0.62757,61.995
0.64516,61.799
0.65885,61.408
0.66764,61.213
0.67155,61.017
0.67058,60.626
0.66569,60.235
0.65591,60.039
0.64223,59.844
0.62463,59.452
0.60508,59.061
0.58358,58.866
0.56305,58.475
0.5435,58.279
0.52199,57.888
0.50049,57.497
0.47996,57.106
0.46041,56.91
0.44282,56.519
0.4262,55.932
0.41251,55.541
0.3998,55.15
0.39492,54.759
0.39296,54.368
0.39003,53.977
0.38612,53.585
0.38123,53.194
0.37634,52.803
0.37146,52.412
0.36755,52.021
0.36364,51.825
0.3607,51.63
0.35679,51.63
0.35386,51.825
0.35093,52.412
0.348,53.585
0.34409,55.932
0.34213,59.844
0.34018,64.537
0.33724,70.209
0.33431,75.88
0.33138,81.356
0.32845,86.441
0.32551,90.939
0.32258,94.85
0.31965,97.979
0.31769,100.13
0.31476,101.5
0.31183,102.09
0.30987,101.89
0.30792,101.11
0.30596,99.739
0.30303,97.979
0.29912,95.632
0.29619,93.09
0.29228,89.961
0.28935,86.832
0.28543,83.312
0.2825,79.987
0.27859,76.858
0.27566,74.12
0.27175,71.773
0.26979,69.818
0.26784,68.253
0.26588,66.884
0.26393,65.711
0.26491,64.928
0.26882,64.342
0.27859,63.755
0.29619,63.364
0.32063,63.168
0.35386,62.973
0.39296,62.777
0.43793,62.777
0.47898,62.582
0.51711,62.582
0.55816,62.582
0.59824,62.582
0.63539,62.386
0.66569,62.19
0.6911,62.19
0.70968,61.995
0.72239,61.604
0.72825,61.408
0.72923,61.017
0.72532,60.821
0.71652,60.43
0.70479,60.039
0.69013,59.844
0.67155,59.452
0.65103,59.257
0.62757,58.866
0.60313,58.475
0.57771,58.279
0.55327,58.083
0.52981,57.692
0.50733,57.301
0.4868,56.91
0.46823,56.519
0.45357,56.128
0.44086,55.737
0.42815,55.346
0.4174,54.759
0.40762,54.368
0.39883,53.977
0.39101,53.585
0.38416,53.194
0.37928,52.803
0.37439,52.412
0.3695,52.216
0.36559,52.021
0.36168,51.825
0.35875,52.021
0.35679,52.412
0.35386,53.39
0.35093,55.541
0.348,59.061
0.34506,63.755
0.34213,69.426
0.3392,75.489
0.33529,81.356
0.33236,86.832
0.32942,91.721
0.32649,96.024
0.32454,99.544
0.32258,102.09
0.32063,103.85
0.31769,104.82
0.31476,105.02
0.31183,104.43
0.3089,103.46
0.30499,101.69
0.30205,99.739
0.29814,97.197
0.29521,94.459
0.2913,91.33
0.28837,87.81
0.28641,84.289
0.28348,80.965
0.28055,77.836
0.27761,75.098
0.27468,72.751
0.27077,70.6
0.26784,69.035
0.26491,67.666
0.26491,66.688
0.26882,65.711
0.27761,65.124
0.29423,64.733
0.31378,64.342
0.3392,64.146
0.37439,63.95
0.41642,63.755
0.46432,63.755
0.5132,63.755
0.56109,63.755
0.60606,63.755
0.64614,63.559
0.68035,63.559
0.70772,63.364
0.72923,63.168
0.74194,62.973
0.74878,62.777
0.75269,62.386
0.75171,62.19
0.74682,61.799
0.73705,61.408
0.72336,61.213
0.70577,60.821
0.68524,60.626
0.66178,60.235
0.63734,60.039
0.61095,59.844
0.58456,59.452
0.56207,59.061
0.54154,58.67
0.52004,58.279
0.49951,58.083
0.47996,57.692
0.46334,57.301
0.4477,56.91
0.435,56.519
0.42326,55.932
0.41349,55.541
0.40469,55.346
0.39785,54.954
0.39198,54.563
0.38807,54.172
0.38416,53.977
0.37928,53.781
0.37537,53.585
0.37243,53.585
0.36852,53.781
0.36559,54.759
0.36266,56.519
0.35875,59.452
0.35582,63.95
0.35288,69.622
0.34995,75.88
0.34702,82.138
0.34506,88.005
0.34213,93.286
0.3392,97.784
0.33627,101.69
0.33333,104.63
0.3304,106.58
0.32747,107.76
0.32454,108.15
0.3216,107.76
0.31867,106.98
0.31476,105.41
0.31281,103.65
0.31085,101.3
0.3089,98.761
0.30596,96.024
0.30303,92.699
0.29912,89.374
0.29619,85.854
0.29326,82.725
0.29032,79.596
0.28739,76.858
0.28446,74.707
0.28152,72.751
0.27957,71.382
0.27957,70.209
0.2825,69.231
0.28837,68.644
0.30108,68.057
0.32063,67.666
0.34897,67.471
0.38514,67.275
0.42815,67.08
0.47605,67.08
0.5259,67.08
0.57478,67.08
0.62072,67.08
0.65689,66.884
0.68524,66.884
0.71261,66.688
0.73607,66.493
0.75464,66.297
0.76637,66.102
0.77419,65.711
0.77615,65.319
0.77322,65.124
0.7654,64.733
0.75367,64.342
0.73803,63.95
0.71945,63.559
0.6999,63.168
0.67937,62.973
0.65591,62.582
0.63148,62.19
0.60704,61.799
0.5826,61.408
0.56012,61.213
0.53861,60.626
0.51906,60.235
0.50147,59.844
0.4868,59.452
0.47312,58.866
0.46334,58.475
0.45552,58.083
0.4477,57.692
0.43988,57.301
0.43402,56.91
0.42913,56.519
0.42424,56.128
0.42131,55.737
0.4174,55.541
0.41447,55.541
0.41153,55.541
0.4086,56.128
0.40469,57.497
0.40274,60.235
0.3998,64.537
0.39687,70.013
0.39394,76.467
0.38612,82.921
0.37634,89.179
0.3695,95.046
0.36461,100.13
0.3607,104.43
0.35679,107.95
0.35386,110.3
0.34995,111.67
0.348,112.26
0.34604,112.26
0.34311,111.47
0.34018,110.1
0.33724,108.15
0.33333,106
0.3304,103.46
0.32649,100.72
0.32258,97.393
0.31965,94.068
0.31574,90.352
0.31281,86.832
0.3089,83.507
0.30694,80.378
0.30401,77.836
0.30205,75.489
0.29912,73.729
0.29717,72.36
0.29717,71.186
0.30108,70.209
0.31183,69.426
0.32942,69.035
0.35484,68.644
0.38807,68.449
0.42913,68.253
0.46725,68.057
0.5044,68.057
0.54741,67.862
0.59042,67.862
0.63148,67.666
0.66667,67.471
0.69697,67.471
0.72141,67.275
0.739,66.884
0.75073,66.493
0.75758,66.102
0.75855,65.711
0.75464,65.319
0.7478,64.928
0.73705,64.342
0.72239,63.95
0.70479,63.559
0.68426,63.168
0.6608,62.777
0.63636,62.386
0.61095,61.995
0.58553,61.604
0.56012,61.213
0.53568,60.821
0.51222,60.43
0.49365,60.039
0.47703,59.648
0.46041,59.257
0.44575,58.67
0.43304,58.279
0.42131,57.692
0.41056,57.301
0.40176,56.715
0.39492,56.323
0.38807,55.932
0.38221,55.541
0.37634,55.15
0.37243,54.954
0.36852,54.563
0.36559,54.368
0.36168,54.563
0.35777,54.759
0.35288,55.737
0.34897,57.692
0.34506,61.213
0.34018,66.102
0.33627,72.164
0.33138,78.618
0.32747,85.072
0.32258,90.939
0.31965,96.415
0.31672,101.11
0.31378,104.82
0.31085,107.56
0.30694,109.52
0.30303,110.5
0.29912,110.5
0.29521,109.91
0.2913,108.74
0.28739,106.98
0.28348,104.82
0.27957,102.48
0.27664,99.544
0.27468,96.415
0.27175,93.09
0.26784,89.374
0.26491,85.854
0.261,82.334
0.25806,79.4
0.25415,76.662
0.25122,74.316
0.24829,72.555
0.24536,70.991
0.24536,69.818
0.24829,68.84
0.25513,68.253
0.26588,67.666
0.28543,67.275
0.31281,66.884
0.348,66.688
0.39003,66.688
0.43597,66.493
0.48387,66.493
0.53079,66.297
0.5738,66.297
0.61193,66.297
0.64418,66.102
0.66764,65.906
0.68328,65.711
0.69697,65.515
0.70577,65.124
0.70968,64.733
0.7087,64.537
0.70381,64.146
0.69501,63.755
0.68231,63.364
0.66569,62.973
0.64614,62.582
0.62366,62.19
0.6002,61.799
0.57771,61.408
0.55718,61.213
0.53372,60.821
0.51026,60.43
0.48778,59.844
0.46725,59.452
0.4477,59.061
0.43011,58.475
0.41544,58.083
0.40176,57.692
0.39101,57.106
0.38123,56.715
0.37439,56.323
0.36852,55.932
0.36266,55.346
0.35777,55.15
0.35386,54.759
0.34897,54.368
0.34604,54.172
0.34213,53.977
0.3392,54.172
0.33627,54.368
0.33236,55.346
0.32942,56.91
0.32649,59.844
0.32356,63.95
0.3216,69.231
0.31867,75.098
0.31574,81.16
0.31281,86.832
0.3089,91.917
0.30596,96.415
0.30205,100.13
0.29912,102.87
0.29521,105.02
0.29228,106.19
0.28935,106.39
0.28739,106
0.28543,104.82
0.2825,103.26
0.27957,101.11
0.27566,98.566
0.27175,95.828
0.26882,92.503
0.26491,88.983
0.261,85.463
0.25806,81.943
0.25415,78.814
0.25122,76.076
0.24829,73.533
0.24633,71.578
0.24438,70.013
0.2434,68.84
0.24242,67.666
0.2434,66.884
0.24927,66.297
0.26002,65.906
0.27761,65.515
0.30303,65.319
0.33627,65.124
0.37537,64.928
0.41838,64.928
0.45748,64.928
0.49365,64.928
0.53275,64.733
0.57087,64.733
0.60411,64.537
0.63245,64.537
0.65494,64.342
0.67155,63.95
0.68231,63.755
0.68719,63.364
0.68719,63.168
0.68231,62.973
0.67253,62.582
0.6608,62.19
0.64614,61.799
0.62854,61.408
0.60704,61.213
0.58456,60.821
0.56012,60.626
0.53568,60.235
0.51124,59.844
0.48876,59.452
0.46725,59.061
0.44868,58.67
0.43109,58.279
0.41642,57.692
0.40567,57.301
0.39394,56.91
0.38416,56.323
0.37537,55.932
0.36755,55.346
0.3607,55.15
0.35484,54.759
0.34995,54.368
0.34604,53.977
0.34311,53.781
0.3392,53.585
0.33627,53.781
0.33431,53.977
0.33333,54.563
0.33138,56.128
0.32845,58.67
0.32649,62.777
0.32356,67.862
0.32063,73.729
0.31769,79.791
0.31476,85.463
0.31183,90.548
0.30987,95.241
0.30694,99.153
0.30499,102.09
0.30303,104.24
0.30108,105.61
0.29814,106
0.29521,105.8
0.29228,104.82
0.28935,103.26
0.28641,101.3
0.2825,98.957
0.27957,96.024
0.27566,92.894
0.27468,89.57
0.2737,86.05
0.27273,82.529
0.27175,79.4
0.26979,76.467
0.26784,73.924
0.26491,71.969
0.26197,70.404
0.26002,69.035
0.25806,67.862
0.25904,66.884
0.26393,66.297
0.2737,65.711
0.29032,65.319
0.31085,65.124
0.33431,65.124
0.36755,64.928
0.40567,64.928
0.4477,64.733
0.49169,64.733
0.53275,64.733
0.57185,64.537
0.60508,64.537
0.63343,64.537
0.65591,64.342
0.67253,64.146
0.68328,63.95
0.68817,63.559
0.68817,63.168
0.68524,62.973
0.67742,62.582
0.66667,62.386
0.652,61.995
0.63441,61.604
0.61388,61.408
0.5914,61.017
0.56794,60.626
0.54448,60.43
0.52199,60.039
0.50147,59.648
0.48387,59.061
0.46628,58.67
0.44966,58.279
0.43402,57.692
0.42033,57.301
0.40762,56.91
0.39687,56.519
0.38807,56.128
0.37928,55.541
0.37341,55.15
0.36755,54.759
0.36364,54.368
0.35973,54.172
0.35679,53.781
0.35386,53.781
0.35093,53.781
0.348,53.977
0.34506,54.759
0.34311,56.323
0.34018,59.061
0.33724,63.364
0.33431,68.84
0.33236,74.902
0.32942,80.965
0.32747,86.832
0.32551,92.308
0.32356,97.001
0.3216,101.11
0.31867,104.24
0.31574,106.58
0.31281,107.76
0.30987,108.34
0.30694,107.95
0.30401,107.17
0.30108,105.61
0.29814,103.85
0.29521,101.5
0.29326,98.761
0.29032,95.632
0.28739,92.112
0.28348,88.592
0.28055,84.876
0.27761,81.552
0.2737,78.422
0.27077,75.685
0.26784,73.533
0.26491,71.578
0.26197,70.013
0.261,68.84
0.26295,67.862
0.26686,67.275
0.27566,66.688
0.29032,66.297
0.31281,66.102
0.34213,65.906
0.37928,65.711
0.42033,65.711
0.4653,65.711
0.50929,65.711
0.5523,65.711
0.5914,65.515
0.6217,65.515
0.64516,65.319
0.66667,65.124
0.68426,64.928
0.69697,64.733
0.70381,64.537
0.70674,64.146
0.70479,63.755
0.69795,63.364
0.68719,62.973
0.67253,62.777
0.65494,62.386
0.63343,62.19
0.61388,61.799
0.59335,61.408
0.57087,61.017
0.54741,60.626
0.52395,60.235
0.50147,59.844
0.48094,59.452
0.46139,58.866
0.44477,58.475
0.42913,57.888
0.41642,57.497
0.40469,56.91
0.39589,56.519
0.38905,56.128
0.38319,55.737
0.37634,55.346
0.37146,54.954
0.36657,54.563
0.36266,54.368
0.35875,54.172
0.35582,54.172
0.35288,54.563
0.35093,55.541
0.348,57.301
0.34506,60.626
0.34311,65.124
0.34115,70.991
0.33822,77.249
0.33529,83.507
0.33236,89.374
0.32942,94.85
0.32649,99.544
0.32356,103.65
0.32063,106.58
0.31769,108.74
0.31476,109.91
0.31183,110.3
0.30987,109.91
0.30792,108.74
0.30499,107.17
0.30205,105.41
0.29814,103.06
0.29423,100.33
0.2913,97.393
0.28739,93.872
0.28348,90.352
0.28055,86.636
0.27664,83.116
0.2737,79.987
0.26979,77.054
0.26784,74.902
0.26588,72.947
0.26393,71.382
0.26295,70.013
0.26393,69.035
0.26882,68.253
0.27859,67.666
0.29619,67.471
0.3216,67.08
0.35484,67.08
0.39394,66.884
0.43793,66.884
0.47703,66.884
0.5132,66.884
0.55327,66.884
0.5914,66.884
0.62561,66.884
0.65494,66.688
0.6784,66.688
0.69599,66.493
0.7087,66.102
0.71457,65.906
0.71652,65.711
0.71261,65.319
0.70577,65.124
0.69501,64.733
0.68231,64.537
0.66569,64.146
0.64516,63.755
0.62366,63.364
0.6002,62.973
0.57576,62.777
0.55132,62.386
0.52688,61.995
0.5044,61.408
0.48289,61.017
0.46432,60.626
0.44868,60.235
0.43597,59.844
0.42326,59.257
0.41153,58.866
0.40176,58.475
0.39296,58.083
0.38612,57.692
0.37928,57.106
0.37439,56.91
0.3695,56.519
0.36559,56.323
0.36266,56.128
0.35973,56.323
0.35679,56.715
0.35582,57.888
0.35386,60.235
0.35191,63.95
0.34897,69.231
0.34702,75.685
0.34409,82.334
0.34115,88.983
0.3392,94.85
0.33627,100.33
0.33333,104.82
0.3304,108.74
0.32845,111.47
0.32747,113.23
0.32551,114.21
0.32258,114.21
0.32063,113.43
0.31769,112.26
0.31476,110.5
0.31281,108.54
0.30987,106.19
0.30694,103.65
0.30401,100.52
0.30108,97.197
0.29814,93.677
0.29717,90.157
0.29521,86.636
0.29326,83.507
0.29032,80.769
0.28837,78.227
0.28543,76.467
0.28348,74.707
0.28348,73.533
0.28641,72.555
0.29521,71.773
0.30987,71.382
0.33138,70.991
0.35679,70.6
0.38514,70.6
0.42326,70.6
0.46725,70.404
0.5132,70.404
0.56305,70.404
0.61486,70.404
0.65885,70.209
0.69599,70.013
0.72532,69.818
0.74878,69.622
0.76442,69.426
0.77517,69.035
0.77908,68.644
0.7781,68.253
0.77419,67.862
0.76637,67.471
0.75464,67.275
0.739,66.688
0.72043,66.297
0.6999,65.906
0.67644,65.515
0.65103,65.124
0.62561,64.733
0.6002,64.342
0.57869,63.755
0.55816,63.168
0.53763,62.582
0.51906,61.995
0.50049,61.408
0.48485,60.821
0.47116,60.235
0.45943,59.844
0.44868,59.257
0.43988,58.866
0.43304,58.475
0.4262,58.083
0.42131,57.692
0.4174,57.301
0.41349,57.106
0.41056,56.91
0.40665,57.106
0.40274,57.888
0.3998,59.452
0.39589,62.386
0.39296,66.884
0.38905,72.751
0.38514,79.4
0.38123,86.05
0.37732,92.503
0.37439,98.37
0.37146,103.65
0.36852,108.15
0.36461,111.67
0.3607,114.02
0.35679,115.38
0.35386,115.78
0.34995,115.38
0.34604,114.6
0.34115,113.04
0.33724,111.28
0.33236,109.13
0.32942,106.78
0.32649,103.85
0.3216,100.72
0.31769,97.197
0.31281,93.481
0.3089,89.765
0.30401,86.05
0.3001,82.921
0.29521,80.183
0.2913,77.836
0.28641,75.685
0.28348,74.12
0.28348,72.947
0.28641,71.969
0.29423,71.186
0.30792,70.6
0.3304,70.404
0.3607,70.013
0.3998,69.818
0.44379,69.818
0.49071,69.622
0.53861,69.622
0.58358,69.622
0.62561,69.426
0.6608,69.231
0.68719,69.035
0.70577,69.035
0.72239,68.644
0.73412,68.253
0.74194,67.862
0.74487,67.471
0.74291,67.08
0.73607,66.688
0.7263,66.297
0.71261,65.906
0.69599,65.319
0.67546,64.928
0.65298,64.537
0.6305,64.342
0.60899,63.755
0.58456,63.364
0.55914,62.973
0.53372,62.582
0.50929,62.19
0.4868,61.604
0.46628,61.213
0.4477,60.626
0.43206,60.235
0.41838,59.648
0.40665,59.257
0.39687,58.67
0.39003,58.279
0.38319,57.888
0.37732,57.301
0.37146,56.91
0.36559,56.519
0.36168,56.323
0.35679,56.128
0.35288,56.128
0.34897,56.715
0.34604,57.692
0.34213,59.844
0.33822,63.559
0.33529,68.84
0.33236,75.098
0.32942,81.747
0.32551,88.396
0.3216,94.459
0.31769,99.935
0.31378,104.63
0.31085,108.54
0.30694,111.28
0.30401,113.04
0.3001,113.82
0.29619,113.82
0.29423,113.23
0.2913,112.06
0.28837,110.3
0.28543,108.15
0.28152,105.61
0.27859,102.67
0.27468,99.544
0.27077,96.024
0.26686,92.112
0.26295,88.396
0.25904,84.876
0.25611,81.552
0.2522,78.814
0.25024,76.467
0.24829,74.511
0.24633,72.947
0.24536,71.578
0.24731,70.6
0.25318,70.013
0.26588,69.426
0.28641,69.035
0.31476,68.644
0.35191,68.449
0.39492,68.449
0.44184,68.253
0.48485,68.253
0.52395,68.253
0.565,68.253
0.60411,68.057
0.6393,68.057
0.66862,67.862
0.6911,67.471
0.70772,67.275
0.7175,67.08
0.72336,66.688
0.72336,66.297
0.71848,65.906
0.70968,65.515
0.69795,64.928
0.68328,64.537
0.66471,64.146
0.64321,63.95
0.61975,63.559
0.59433,62.973
0.56891,62.777
0.54252,62.19
0.51711,61.799
0.49365,61.408
0.47214,61.017
0.45161,60.43
0.43597,59.844
0.42229,59.452
0.40958,58.866
0.39687,58.475
0.3871,58.083
0.37732,57.497
0.3695,57.106
0.36364,56.715
0.35777,56.323
0.35288,55.932
0.348,55.737
0.34506,55.541
0.34115,55.541
0.33822,55.737
0.33627,56.519
0.33333,57.888
0.3304,60.43
0.32747,64.342
0.32356,69.622
0.32063,75.685
0.31672,81.747
0.31378,87.81
0.30987,93.286
0.30694,98.175
0.30303,102.48
0.30108,105.61
0.29912,107.95
0.29619,109.32
0.29326,109.91
0.28935,109.52
0.28641,108.74
0.2825,107.17
0.27957,105.22
0.27566,102.87
0.27175,100.13
0.26882,97.197
0.26491,93.677
0.261,89.961
0.25904,86.441
0.25709,82.921
0.25415,79.791
0.25122,77.054
0.24829,74.707
0.24536,72.751
0.24242,71.186
0.24047,70.013
0.24047,69.035
0.24438,68.253
0.25415,67.666
0.26979,67.471
0.28935,67.08
0.31378,66.884
0.34702,66.688
0.38807,66.688
0.43304,66.493
0.47996,66.493
0.5259,66.493
0.56794,66.297
0.60606,66.297
0.63832,66.102
0.66373,65.906
0.68328,65.711
0.69697,65.515
0.70283,65.124
0.70479,64.928
0.70283,64.537
0.69697,64.146
0.68719,63.755
0.67253,63.364
0.65494,62.973
0.63441,62.777
0.61193,62.386
0.58749,61.995
0.56207,61.604
0.53372,61.213
0.50733,60.821
0.4868,60.43
0.46628,59.844
0.4477,59.452
0.43109,59.061
0.41642,58.475
0.40371,58.083
0.39198,57.692
0.38221,57.106
0.37439,56.715
0.36755,56.323
0.3607,55.932
0.35679,55.346
0.35386,55.15
0.34995,54.954
0.34702,54.759
0.34409,54.759
0.34115,54.954
0.33822,55.541
0.33627,56.91
0.33333,59.257
0.3304,63.168
0.32747,68.644
0.32551,74.707
0.32258,80.965
0.31965,87.027
0.31867,92.503
0.31574,97.393
0.31281,101.69
0.31085,105.02
0.30792,107.56
0.30499,108.93
0.30205,109.71
0.29912,109.52
0.29717,108.74
0.29423,107.37
0.2913,105.61
0.28935,103.26
0.28739,100.72
0.28543,97.588
0.2825,94.263
0.27957,90.743
0.27664,87.027
0.2737,83.507
0.27077,80.183
0.26784,77.445
0.26393,74.902
0.261,72.947
0.25904,71.186
0.25709,69.818
0.25709,68.84
0.26002,68.057
0.26686,67.471
0.27859,67.08
0.29717,66.688
0.32356,66.493
0.35582,66.297
0.39492,66.297
0.43695,66.297
0.48094,66.297
0.52297,66.297
0.56305,66.102
0.59433,66.102
0.61877,65.906
0.64125,65.711
0.65982,65.515
0.67449,65.124
0.68426,64.733
0.68915,64.537
0.68915,64.146
0.68426,63.755
0.67546,63.364
0.66276,62.973
0.64614,62.777
0.62757,62.386
0.60899,61.995
0.58944,61.604
0.56794,61.213
0.54545,60.821
0.52199,60.43
0.49951,60.039
0.47898,59.648
0.45943,59.257
0.44184,58.67
0.4262,58.279
0.41251,57.888
0.40078,57.301
0.39198,56.91
0.38514,56.519
0.3783,55.932
0.37146,55.541
0.36559,55.15
0.36168,54.759
0.35679,54.563
0.35288,54.368
0.34995,54.172
0.34702,54.368
0.34409,54.954
0.34115,56.128
0.33822,58.279
0.33529,62.19
0.33333,67.275
0.33138,73.338
0.32845,79.596
0.32454,85.854
0.3216,91.525
0.31867,96.61
0.31574,101.11
0.31281,104.63
0.30987,107.37
0.30694,109.13
0.30401,109.91
0.30205,109.91
0.3001,109.32
0.29717,108.15
0.29521,106.39
0.29228,104.24
0.28935,101.89
0.28543,98.957
0.2825,95.828
0.27957,92.308
0.27664,88.592
0.27273,85.072
0.26979,81.552
0.26686,78.618
0.26491,76.076
0.26295,73.729
0.261,71.969
0.25904,70.6
0.25709,69.426
0.25904,68.449
0.26491,67.666
0.27566,67.275
0.29423,66.884
0.32063,66.688
0.35386,66.493
0.39296,66.297
0.43011,66.102
0.46628,66.102
0.50635,66.102
0.54643,66.102
0.58358,65.906
0.61681,65.906
0.64418,65.711
0.66667,65.515
0.68231,65.124
0.69306,64.928
0.69892,64.537
0.69892,64.146
0.69501,63.755
0.68817,63.364
0.67742,62.973
0.66373,62.582
0.64712,62.19
0.62757,61.799
0.60606,61.604
0.5826,61.213
0.55914,60.821
0.53568,60.43
0.5132,60.039
0.49071,59.648
0.47116,59.061
0.45455,58.67
0.44086,58.279
0.42717,57.692
0.41447,57.301
0.40371,56.91
0.39394,56.519
0.38514,55.932
0.37732,55.541
0.37146,55.15
0.36559,54.759
0.36168,54.368
0.35777,53.977
0.35386,53.977
0.35191,53.977
0.34995,54.368
0.34702,55.541
0.34409,57.692
0.34115,61.213
0.33822,66.297
0.33431,72.36
0.33138,78.814
0.32845,85.072
0.32454,90.939
0.3216,96.415
0.31867,101.11
0.31574,105.02
0.31476,107.95
0.31183,109.91
0.3089,110.89
0.30596,111.28
0.30303,110.69
0.3001,109.71
0.29717,108.15
0.29423,106.19
0.29032,103.85
0.28739,101.11
0.28446,98.175
0.28152,94.85
0.27859,91.33
0.27761,87.614
0.27468,84.094
0.27175,80.769
0.26882,77.836
0.26491,75.489
0.26197,73.338
0.25904,71.773
0.25806,70.404
0.25904,69.426
0.26393,68.84
0.27566,68.253
0.29032,67.862
0.31085,67.666
0.3392,67.471
0.37634,67.471
0.41838,67.471
0.46334,67.471
0.50831,67.275
0.5523,67.275
0.59238,67.275
0.62659,67.275
0.65591,67.08
0.6784,66.884
0.69306,66.688
0.70283,66.493
0.7087,66.102
0.71163,65.711
0.70968,65.319
0.70479,64.928
0.69501,64.537
0.68231,64.146
0.66569,63.755
0.64712,63.364
0.62561,62.973
0.60215,62.777
0.57771,62.386
0.55621,61.799
0.53666,61.408
0.51515,61.017
0.49462,60.626
0.47507,60.235
0.45748,59.844
0.44184,59.257
0.42815,58.866
0.41642,58.475
0.40665,58.083
0.39785,57.692
0.39003,57.301
0.38514,56.91
0.38123,56.519
0.37732,56.128
0.37341,55.737
0.37048,55.737
0.36755,55.737
0.36559,56.128
0.36461,57.106
0.36266,59.257
0.3607,62.777
0.35875,68.057
0.35582,74.12
0.35288,80.769
0.35093,87.223
0.34897,93.286
0.34604,98.761
0.34311,103.46
0.34018,107.17
0.33822,110.1
0.33529,111.86
0.33236,112.84
0.32942,113.04
0.32747,112.45
0.32454,111.28
0.3216,109.91
0.31965,107.95
0.31769,105.61
0.31574,103.26
0.31281,100.33
0.31085,97.001
0.30792,93.481
0.30499,89.961
0.30205,86.636
0.3001,83.312
0.29717,80.378
0.29423,77.836
0.2913,75.88
0.28935,74.12
0.28837,72.751
0.29032,71.773
0.29521,70.991
0.30596,70.404
0.32454,70.013
0.34995,69.818
0.38416,69.622
0.42522,69.426
0.47214,69.426
0.52004,69.231
0.56891,69.231
0.61486,69.035
0.65103,68.84
0.67937,68.644
0.70772,68.253
0.73118,67.862
0.74976,67.471
0.76344,67.08
0.77126,66.493
0.77419,66.102
0.77322,65.711
0.76735,65.124
0.7566,64.733
0.74291,64.342
0.7263,63.95
0.70772,63.559
0.68817,63.168
0.66667,62.777
0.64223,62.386
0.61681,61.995
0.59238,61.604
0.56891,61.017
0.54643,60.626
0.52493,60.039
0.50635,59.648
0.48974,59.061
0.47507,58.475
0.46432,58.083
0.45455,57.497
0.44575,56.91
0.43793,56.519
0.43109,56.128
0.42424,55.737
0.41935,55.346
0.41447,54.954
0.40958,54.759
0.40469,54.563
0.40078,54.759
0.39589,55.346
0.39198,56.91
0.38807,60.039
0.38514,64.537
0.38123,70.404
0.37634,77.054
0.37243,83.703
0.36755,90.157
0.36266,95.828
0.35777,101.11
0.35288,105.41
0.348,108.74
0.34311,111.08
0.3392,112.26
0.33529,112.65
0.33138,112.45
0.32747,111.47
0.32356,110.1
0.31867,108.15
0.31378,106
0.3089,103.46
0.30401,100.52
0.29912,97.393
0.29326,93.872
0.28837,90.352
0.28348,86.636
0.27859,83.116
0.27566,79.987
0.27273,77.249
0.26882,74.902
0.26393,72.947
0.261,71.578
0.25904,70.404
0.261,69.426
0.26784,68.644
0.28152,68.253
0.30401,67.862
0.33529,67.471
0.37439,67.471
0.41251,67.275
0.45064,67.275
0.4956,67.08
0.54154,67.08
0.58553,66.884
0.62561,66.884
0.65885,66.688
0.68622,66.493
0.70772,66.102
0.72239,65.711
0.73118,65.319
0.73509,64.928
0.73314,64.537
0.72825,64.146
0.72043,63.559
0.70772,63.168
0.69306,62.777
0.67449,62.386
0.65298,61.995
0.62854,61.408
0.60411,61.213
0.57771,60.821
0.5523,60.43
0.52688,59.844
0.50342,59.452
0.48289,59.061
0.46628,58.67
0.44966,58.083
0.43304,57.692
0.41935,57.106
0.40665,56.715
0.39589,56.323
0.3871,55.737
0.37928,55.346
0.37341,54.954
0.36755,54.563
0.36266,54.172
0.35875,53.781
0.35582,53.781
0.35288,53.585
0.34995,53.781
0.34604,54.172
0.34311,55.346
0.3392,57.888
0.33529,61.604
0.33138,66.884
0.32747,72.947
0.32356,79.205
0.31965,85.267
0.31574,90.939
0.31183,96.024
0.3089,100.13
0.30596,103.65
0.30303,106
0.29912,107.56
0.29521,108.15
0.2913,107.95
0.28837,107.17
0.28446,105.8
0.28152,104.04
0.27761,101.89
0.2737,99.348
0.27077,96.415
0.26784,93.09
0.26588,89.57
0.26295,85.854
0.26002,82.334
0.25611,79.205
0.25318,76.271
0.24927,73.924
0.24633,71.773
0.2434,70.209
0.24047,68.84
0.23949,67.666
0.24145,66.884
0.24633,66.297
0.25611,65.906
0.27273,65.515
0.29814,65.319
0.33138,65.124
0.37146,64.928
0.4174,64.928
0.4653,64.733
0.51222,64.733
0.55718,64.733
0.59824,64.537
0.63245,64.537
0.65787,64.342
0.67546,63.95
0.6911,63.755
0.70186,63.364
0.70772,62.973
0.70968,62.582
0.70577,62.19
0.69795,61.799
0.68524,61.408
0.6696,61.017
0.65005,60.626
0.62854,60.235
0.60508,59.844
0.5826,59.648
0.56109,59.257
0.53763,58.866
0.51417,58.475
0.49071,58.083
0.46921,57.692
0.44966,57.106
0.43304,56.715
0.4174,56.323
0.40469,55.737
0.39296,55.346
0.38319,54.954
0.37537,54.563
0.37048,54.172
0.36461,53.781
0.35875,53.39
0.35484,52.999
0.34995,52.608
0.34702,52.412
0.34311,52.412
0.34018,52.608
0.33724,52.999
0.33333,53.977
0.3304,56.128
0.32747,59.452
0.32454,64.342
0.32258,70.013
0.31965,75.88
0.31574,81.747
0.31281,87.027
0.3089,91.917
0.30596,96.024
0.30303,99.348
0.3001,101.89
0.29717,103.65
0.29423,104.43
0.29032,104.43
0.29032,103.85
0.29228,102.67
0.2913,100.91
0.28935,98.761
0.28641,96.219
0.28348,93.286
0.28055,89.961
0.27761,86.636
0.27468,82.921
0.27175,79.596
0.26882,76.662
0.26588,73.924
0.26295,71.578
0.261,69.622
0.26002,68.057
0.25806,66.884
0.25611,65.906
0.25709,65.124
0.261,64.537
0.26882,64.146
0.28446,63.755
0.30694,63.559
0.33627,63.364
0.37243,63.364
0.41349,63.168
0.45064,63.168
0.48583,63.168
0.52395,63.168
0.56109,62.973
0.59433,62.973
0.62268,62.777
0.64614,62.582
0.66276,62.19
0.67449,61.995
0.68133,61.604
0.68328,61.213
0.67937,60.821
0.6696,60.43
0.65787,60.235
0.64712,59.844
0.63245,59.452
0.61388,59.257
0.59335,58.866
0.57087,58.475
0.54839,58.083
0.52493,57.888
0.50342,57.497
0.48289,56.91
0.46334,56.519
0.44575,56.128
0.43206,55.737
0.42131,55.346
0.40958,54.759
0.3998,54.368
0.39101,53.977
0.38319,53.585
0.37634,53.194
0.37048,52.803
0.36559,52.412
0.36168,52.021
0.35777,51.825
0.35386,51.63
0.35093,51.434
0.34897,51.63
0.34702,52.216
0.34506,53.39
0.34213,55.737
0.3392,59.452
0.33724,64.342
0.33431,70.209
0.33138,76.076
0.32845,81.943
0.32454,87.223
0.3216,91.917
0.31965,95.828
0.31769,98.957
0.31574,101.3
0.31378,102.87
0.31085,103.65
0.3089,103.46
0.30596,102.67
0.30303,101.5
0.3001,99.739
0.29717,97.588
0.29423,95.046
0.2913,91.917
0.28739,88.788
0.28446,85.267
0.2825,81.943
0.28055,78.618
0.27859,75.685
0.27566,73.142
0.27273,70.991
0.26979,69.035
0.26686,67.666
0.26393,66.297
0.26295,65.515
0.26393,64.537
0.26882,64.146
0.27957,63.559
0.29326,63.364
0.31281,62.973
0.34018,62.973
0.37537,62.777
0.41544,62.777
0.45943,62.777
0.50244,62.582
0.54448,62.582
0.5826,62.386
0.61584,62.19
0.64321,61.995
0.66471,61.799
0.68035,61.604
0.68915,61.408
0.69306,61.017
0.69404,60.626
0.6911,60.43
0.68426,60.039
0.67351,59.648
0.65885,59.452
0.64125,59.061
0.6217,58.67
0.59922,58.475
0.57674,58.083
0.55425,57.692
0.53372,57.497
0.51613,56.91
0.49658,56.715
0.47801,56.323
0.46041,55.737
0.44379,55.346
0.43011,54.954
0.4174,54.563
0.40665,54.172
0.39785,53.781
0.38905,53.39
0.38221,52.999
0.37634,52.608
0.37146,52.216
0.36852,51.825
0.36461,51.63
0.3607,51.434
0.35777,51.434
0.35484,51.63
0.35191,52.216
0.34897,53.977
0.34604,56.715
0.34311,61.017
0.34018,66.493
0.33724,72.36
0.33431,78.422
0.33236,84.289
0.3304,89.57
0.32845,94.068
0.32551,97.979
0.32258,101.11
0.31965,103.26
0.31672,104.43
0.31378,104.82
0.31085,104.63
0.30792,103.65
0.30499,102.28
0.30303,100.33
0.30205,97.979
0.29912,95.437
0.29521,92.503
0.29228,89.179
0.28935,85.658
0.28641,82.334
0.28348,79.009
0.28055,76.076
0.27761,73.533
0.27468,71.186
0.27077,69.426
0.26784,67.862
0.26686,66.688
0.26686,65.906
0.26784,65.124
0.2737,64.537
0.28446,64.146
0.30303,63.755
0.32845,63.559
0.36168,63.364
0.40176,63.364
0.44477,63.364
0.48974,63.364
0.5347,63.364
0.57087,63.168
0.60117,63.168
0.63148,62.973
0.65787,62.777
0.67937,62.582
0.69501,62.19
0.70577,61.995
0.71163,61.604
0.71261,61.213
0.7087,60.821
0.70088,60.43
0.68817,60.039
0.67253,59.844
0.65591,59.452
0.63832,59.061
0.61681,58.67
0.59433,58.279
0.57087,58.083
0.54741,57.692
0.52493,57.301
0.5044,56.91
0.48485,56.519
0.46725,56.128
0.45064,55.541
0.43695,55.15
0.4262,54.759
0.41642,54.368
0.40762,53.977
0.3998,53.585
0.39198,53.194
0.38612,52.608
0.38123,52.216
0.37634,52.021
0.37243,51.825
0.36852,51.825
0.36559,51.825
0.36266,52.216
0.35973,53.194
0.35777,55.346
0.35484,58.67
0.35288,63.559
0.34995,69.231
0.34604,75.489
0.34311,81.552
0.3392,87.223
0.33627,92.308
0.33333,96.806
0.32942,100.52
0.32649,103.26
0.32356,105.22
0.3216,106.19
0.31965,106.39
0.31672,106
0.31378,105.02
0.31085,103.65
0.30792,101.69
0.30499,99.544
0.30108,96.806
0.29814,93.872
0.29521,90.548
0.29228,87.223
0.28837,83.898
0.28543,80.574
0.28348,77.64
0.28152,75.098
0.27957,72.947
0.27664,70.991
0.27468,69.622
0.27273,68.449
0.27175,67.471
0.2737,66.884
0.28152,66.297
0.29717,65.906
0.3216,65.711
0.35386,65.515
0.38807,65.515
0.42424,65.319
0.46823,65.319
0.51613,65.319
0.56403,65.319
0.60899,65.319
0.65005,65.124
0.68426,64.928
0.71261,64.733
0.73509,64.537
0.75073,64.342
0.76051,63.95
0.76442,63.559
0.76344,63.168
0.75855,62.973
0.74976,62.582
0.73705,62.19
0.72141,61.799
0.70186,61.408
0.68035,61.213
0.65689,60.821
0.63148,60.43
0.60704,60.235
0.5826,59.844
0.55914,59.452
0.53861,59.061
0.52102,58.475
0.5044,58.083
0.48778,57.692
0.47312,57.301
0.46041,56.91
0.4477,56.519
0.43695,56.128
0.43011,55.737
0.42424,55.346
0.41935,54.954
0.41447,54.563
0.41056,54.368
0.40762,53.977
0.40567,53.977
0.40274,53.977
0.3998,54.563
0.39785,55.737
0.39492,58.279
0.39198,62.386
0.39003,67.862
0.3871,74.12
0.38416,80.769
0.38123,86.832
0.3783,92.503
0.37634,97.784
0.37439,102.09
0.37146,105.61
0.36852,108.15
0.36657,109.52
0.36364,110.1
0.3607,110.1
0.35777,109.13
0.35484,107.95
0.35191,106.19
0.34897,104.24
0.34604,101.69
0.34311,98.957
0.34018,96.024
0.33822,92.699
0.33627,89.179
0.33333,85.658
0.3304,82.334
0.32747,79.205
0.32454,76.662
0.32063,74.511
0.31769,72.555
0.31574,70.991
0.31378,70.013
0.31574,69.035
0.31965,68.253
0.32845,67.862
0.34506,67.471
0.3695,67.275
0.40176,67.08
0.44184,66.884
0.48778,66.884
0.53666,66.688
0.58456,66.493
0.6305,66.297
0.67253,66.102
0.7087,65.906
0.73803,65.711
0.75855,65.319
0.77224,64.928
0.78299,64.537
0.78983,64.146
0.79277,63.755
0.79081,63.364
0.78397,62.973
0.77419,62.386
0.75953,61.995
0.74194,61.604
0.72141,61.213
0.69892,60.821
0.67644,60.43
0.65494,60.039
0.6305,59.844
0.60606,59.452
0.58162,58.866
0.55816,58.475
0.53763,58.083
0.51808,57.692
0.50049,57.106
0.48485,56.715
0.47214,56.323
0.46041,55.737
0.44966,55.346
0.44184,54.954
0.435,54.368
0.42815,53.977
0.42131,53.781
0.41544,53.39
0.40958,52.999
0.40371,52.803
0.39883,52.803
0.39394,52.999
0.38905,53.781
0.38319,55.737
0.3783,58.866
0.37439,63.559
0.37048,69.426
0.36559,75.88
0.3607,82.138
0.35582,88.005
0.35093,93.481
0.34604,97.979
0.34115,101.89
0.33724,104.82
0.33236,106.78
0.32845,107.76
0.32454,107.95
0.3216,107.56
0.31867,106.39
0.31574,104.82
0.31183,102.87
0.30792,100.52
0.30401,97.784
0.3001,94.655
0.29521,91.33
0.2913,87.81
0.28739,84.289
0.28348,80.965
0.27957,77.836
0.27566,75.098
0.27273,72.751
0.26979,70.991
0.26686,69.426
0.26393,68.253
0.26295,67.275
0.26393,66.493
0.27077,65.906
0.28348,65.515
0.30499,65.124
0.34702,64.928
0.39101,64.928
0.4262,64.733
0.46237,64.733
0.49951,64.537
0.54252,64.537
0.58553,64.342
0.62463,64.342
0.65885,64.146
0.68719,63.755
0.7087,63.559
0.72434,63.168
0.73412,62.973
0.739,62.582
0.73803,62.19
0.73216,61.799
0.72336,61.408
0.71163,60.821
0.69599,60.43
0.67742,60.039
0.65494,59.844
0.63148,59.452
0.60606,59.061
0.58065,58.866
0.55523,58.475
0.53079,58.083
0.50733,57.692
0.48583,57.301
0.46921,56.91
0.45455,56.323
0.43988,55.932
0.42717,55.346
0.41544,54.954
0.40567,54.563
0.39687,53.977
0.38905,53.585
0.38221,53.194
0.37634,52.803
0.37146,52.412
0.36755,52.216
0.36364,51.825
0.3607,51.825
0.35777,51.825
0.35484,52.021
0.35093,52.803
0.348,54.172
0.34409,56.91
0.34018,61.213
0.33627,66.493
0.33236,72.555
0.32845,78.422
0.32454,84.094
0.3216,89.374
0.31867,93.872
0.31672,97.588
0.31378,100.52
0.31085,102.48
0.30792,103.46
0.30401,103.85
0.30108,103.26
0.29814,102.28
0.29423,100.72
0.2913,98.566
0.28837,96.219
0.28543,93.481
0.28152,90.352
0.27957,86.832
0.27664,83.507
0.2737,79.987
0.27077,76.858
0.26784,74.316
0.26491,71.969
0.261,69.818
0.25806,68.253
0.25513,66.884
0.2522,65.906
0.25318,65.124
0.25611,64.342
0.26002,63.95
0.26882,63.559
0.28543,63.364
0.31085,63.168
0.34409,62.973
0.38416,62.973
0.43011,62.777
0.47801,62.777
0.52493,62.582
0.56989,62.582
0.60997,62.386
0.64418,62.19
0.67155,61.995
0.68133,61.799
0.67937,61.408
0.68133,61.213
0.68133,60.821
0.67937,60.43
0.67449,60.039
0.66569,59.648
0.65298,59.452
0.63734,59.061
0.61877,58.67
0.59824,58.475
0.57674,58.083
0.55621,57.692
0.53666,57.497
0.51613,57.106
0.4956,56.715
0.47605,56.323
0.45455,55.932
0.43597,55.541
0.42424,55.15
0.41251,54.759
0.40078,54.172
0.39198,53.781
0.38319,53.39
0.37537,52.999
0.37048,52.608
0.36657,52.216
0.36168,51.825
0.35679,51.434
0.35288,51.239
0.34995,51.043
0.34702,51.043
0.34409,51.239
0.34018,51.63
0.33724,52.608
0.33529,54.563
0.33236,57.692
0.32942,62.19
0.32551,67.471
0.32356,73.338
0.32063,78.814
0.31867,84.094
0.31574,88.788
0.31281,92.699
0.31085,96.024
0.30792,98.37
0.30499,99.935
0.30205,100.72
0.29912,100.72
0.29717,100.13
0.29619,98.957
0.29326,97.197
0.29032,95.046
0.28739,92.503
0.28446,89.57
0.28055,86.245
0.27761,82.921
0.27468,79.596
0.27175,76.271
0.26882,73.533
0.26588,70.991
0.26393,69.035
0.26295,67.275
0.261,65.906
0.25904,64.733
0.25904,63.95
0.26197,63.364
0.26784,62.777
0.28055,62.386
0.29228,62.19
0.31476,61.995
0.35386,61.799
0.39589,61.799
0.43891,61.604
0.47703,61.604
0.51124,61.408
0.54643,61.408
0.58065,61.408
0.60997,61.213
0.63441,61.017
0.65396,60.821
0.66667,60.626
0.67546,60.235
0.67742,60.039
0.67546,59.648
0.66862,59.452
0.65982,59.061
0.64809,58.67
0.63245,58.279
0.61388,58.083
0.59335,57.888
0.57087,57.497
0.54839,57.301
0.5259,56.91
0.5044,56.519
0.48387,56.128
0.4653,55.932
0.4477,55.541
0.43304,55.15
0.42033,54.759
0.41056,54.172
0.40176,53.781
0.39296,53.39
0.38514,52.999
0.3783,52.608
0.37243,52.216
0.36657,51.825
0.36266,51.434
0.35875,51.043
0.35484,50.652
0.35191,50.652
0.34995,50.456
0.348,50.652
0.34506,50.847
0.34311,51.825
0.34018,53.585
0.33724,56.715
0.33431,61.213
0.33138,66.688
0.32845,72.555
0.32551,78.422
0.32356,83.898
0.32063,88.788
0.31867,93.09
0.31769,96.61
0.31574,99.348
0.31281,101.11
0.31085,102.09
0.3089,102.28
0.30596,101.89
0.30303,100.91
0.3001,99.348
0.29717,97.197
0.29423,94.85
0.29032,92.112
0.28739,88.983
0.28543,85.658
0.28348,82.334
0.28055,79.009
0.27859,76.076
0.27566,73.338
0.27273,71.186
0.26979,69.231
0.26686,67.471
0.26491,66.297
0.26491,65.319
0.26686,64.537
0.2737,63.755
0.28348,63.364
0.29814,62.973
0.3216,62.777
0.35288,62.582
0.39101,62.386
0.43304,62.386
0.47801,62.19
0.52199,62.19
0.56305,61.995
0.60117,61.995
0.63343,61.799
0.65982,61.604
0.67937,61.408
0.69208,61.408
0.6999,61.017
0.70381,60.821
0.70381,60.43
0.6999,60.235
0.69208,59.844
0.68035,59.452
0.66471,59.257
0.64614,58.866
0.62561,58.475
0.60313,58.279
0.57967,57.888
0.55914,57.497
0.53959,57.301
0.52004,56.91
0.49951,56.519
0.48094,56.128
0.46432,55.737
0.44868,55.346
0.435,54.954
0.42229,54.563
0.41153,53.977
0.40274,53.585
0.39394,53.194
0.3871,52.803
0.38221,52.412
0.37732,52.216
0.37341,51.825
0.3695,51.434
0.36559,51.239
0.36266,51.043
0.35973,51.043
0.35679,51.434
0.35386,52.216
0.34995,53.781
0.34702,56.715
0.34409,60.821
0.34115,66.297
0.3392,72.164
0.33627,78.227
0.33333,83.898
0.3304,88.983
0.32747,93.481
0.32454,97.197
0.3216,100.13
0.31867,102.09
0.31574,103.46
0.31281,103.85
0.30987,103.46
0.30694,102.67
0.30499,101.11
0.30303,99.348
0.30108,97.001
0.29814,94.459
0.29423,91.525
0.2913,88.201
0.28739,84.681
0.28446,81.356
0.28055,78.227
0.27761,75.293
0.27468,72.751
0.27175,70.6
0.26979,69.035
0.26882,67.471
0.26784,66.297
0.26882,65.515
0.2737,64.733
0.28348,64.146
0.3001,63.755
0.32454,63.364
0.35582,63.168
0.39394,62.973
0.43695,62.973
0.48192,62.777
0.52688,62.777
0.56403,62.777
0.59531,62.777
0.62561,62.582
0.65396,62.582
0.67644,62.386
0.69404,62.19
0.70674,61.995
0.71359,61.799
0.71554,61.408
0.71261,61.213
0.70577,60.821
0.69404,60.626
0.68133,60.43
0.66569,60.039
0.64712,59.844
0.62561,59.452
0.60313,59.257
0.57967,58.866
0.55523,58.475
0.53568,58.279
0.51808,57.888
0.49853,57.497
0.48094,57.106
0.46334,56.91
0.4477,56.519
0.43597,55.932
0.42522,55.541
0.41544,55.15
0.40665,54.759
0.39883,54.368
0.39198,53.977
0.38514,53.781
0.38025,53.39
0.37537,52.999
0.37146,52.803
0.36755,52.608
0.36461,52.608
0.36168,52.999
0.35973,53.781
0.35777,55.541
0.35484,58.475
0.35191,62.777
0.34897,68.449
0.34604,74.511
0.34311,80.769
0.34018,86.441
0.33724,91.721
0.33431,96.415
0.33138,100.13
0.32845,103.26
0.32649,105.22
0.32454,106.58
0.3216,106.98
0.31965,106.78
0.31672,105.8
0.31378,104.43
0.31085,102.67
0.30694,100.52
0.30401,98.175
0.30108,95.241
0.29814,92.112
0.29521,88.788
0.29326,85.267
0.2913,81.943
0.28935,79.009
0.28641,76.271
0.28446,74.12
0.28152,72.164
0.27957,70.6
0.27859,69.426
0.28055,68.449
0.28739,67.862
0.3001,67.275
0.32063,66.884
0.34995,66.688
0.38025,66.493
0.41447,66.493
0.45748,66.297
0.50538,66.297
0.55425,66.297
0.60117,66.102
0.64418,66.102
0.68133,65.906
0.71359,65.906
0.73803,65.711
0.75758,65.319
0.77028,65.124
0.77615,64.733
0.77713,64.342
0.77517,63.95
0.76931,63.755
0.75953,63.364
0.74585,62.973
0.72825,62.582
0.70772,62.386
0.68524,61.995
0.6608,61.604
0.63636,61.408
0.61095,61.017
0.58944,60.626
0.56989,60.235
0.54936,59.844
0.53079,59.452
0.5132,59.061
0.49658,58.475
0.48289,58.083
0.47116,57.692
0.46041,57.106
0.45161,56.715
0.44477,56.323
0.43891,55.932
0.43304,55.541
0.42913,55.15
0.42522,54.759
0.42131,54.368
0.4174,53.977
0.41447,53.781
0.41056,54.172
0.40665,54.954
0.40371,56.91
0.3998,60.43
0.39589,65.515
0.39296,71.382
0.38905,78.031
0.38612,84.289
0.38319,90.352
0.38025,95.632
0.37634,100.13
0.37341,103.85
0.3695,106.58
0.36657,108.34
0.36266,109.13
0.35973,109.13
0.35582,108.54
0.35288,107.17
0.34897,105.61
0.34506,103.65
0.34213,101.3
0.3392,98.566
0.33627,95.632
0.33236,92.308
0.32942,88.983
0.32551,85.463
0.3216,82.138
0.31867,79.009
0.31476,76.467
0.31085,74.12
0.30694,72.164
0.30401,70.6
0.30205,69.426
0.30401,68.449
0.3089,67.666
0.32063,67.275
0.3392,66.884
0.36657,66.688
0.40274,66.493
0.44477,66.297
0.49169,66.102
0.53959,66.102
0.58651,65.906
0.6305,65.906
0.66862,65.711
0.69697,65.515
0.71848,65.319
0.73705,65.124
0.75073,64.733
0.76051,64.537
0.76442,64.146
0.76442,63.755
0.75953,63.168
0.75073,62.973
0.73705,62.386
0.72043,61.995
0.6999,61.604
0.68035,61.408
0.65885,61.017
0.63539,60.626
0.60997,60.235
0.58358,59.844
0.55914,59.648
0.5347,59.061
0.51222,58.67
0.49169,58.279
0.47312,57.888
0.45748,57.301
0.44282,56.91
0.43109,56.519
0.42131,55.932
0.41349,55.541
0.40665,55.15
0.3998,54.563
0.39394,54.172
0.38807,53.781
0.38319,53.585
0.3783,53.194
0.37439,52.999
0.37048,52.999
0.36559,53.194
0.36168,53.781
0.35875,55.15
0.35484,57.692
0.35191,61.799
0.34702,67.275
0.34311,73.338
0.3392,79.791
0.33431,85.658
0.3304,91.134
0.32649,96.024
0.32258,100.13
0.31867,103.46
0.31476,105.61
0.31183,106.98
0.3089,107.37
0.30596,107.17
0.30303,106.39
0.3001,104.82
0.29619,103.06
0.29326,100.72
0.28935,98.175
0.28543,95.046
0.28152,91.917
0.27761,88.396
0.2737,84.876
0.26979,81.552
0.26784,78.422
0.26588,75.685
0.26295,73.533
0.25904,71.578
0.25611,70.013
0.25415,68.644
0.25415,67.666
0.25806,66.884
0.26686,66.102
0.28348,65.711
0.3089,65.515
0.34213,65.124
0.38319,64.928
0.42326,64.928
0.46237,64.733
0.50733,64.733
0.55327,64.733
0.59629,64.537
0.63441,64.537
0.66764,64.342
0.69306,64.146
0.71261,63.95
0.7263,63.755
0.73412,63.364
0.73607,62.973
0.73314,62.582
0.7263,62.19
0.71554,61.799
0.70088,61.408
0.68426,61.213
0.66373,60.821
0.64027,60.43
0.61584,60.039
0.59042,59.648
0.565,59.452
0.54057,59.061
0.51711,58.67
0.49462,58.279
0.47605,57.888
0.46139,57.301
0.44575,56.91
0.43109,56.519
0.41838,55.932
0.40762,55.541
0.39785,55.15
0.38905,54.563
0.38221,54.172
0.37634,53.781
0.37048,53.585
0.36559,53.194
0.36266,52.803
0.35777,52.608
0.35093,52.608
0.34604,52.608
0.34213,52.999
0.3392,53.781
0.33529,55.346
0.33138,58.083
0.32845,61.995
0.32454,67.08
0.32063,72.751
0.31672,78.422
0.31378,83.898
0.31085,88.983
0.3089,93.286
0.30596,97.001
0.30303,99.739
0.3001,101.5
0.29717,102.67
0.29423,102.87
0.2913,102.48
0.28837,101.3
0.28543,99.544
0.2825,97.588
0.27859,95.046
0.27664,92.112
0.2737,88.983
0.27077,85.658
0.26784,82.334
0.26491,79.205
0.26197,76.271
0.25904,73.729
0.25611,71.578
0.25318,69.622
0.25024,68.253
0.24829,67.08
0.24731,66.102
0.24927,65.319
0.25318,64.733
0.26197,64.342
0.27664,63.95
0.29814,63.755
0.32747,63.364
0.36364,63.364
0.40371,63.168
0.44673,63.168
0.49071,62.973
0.53275,62.973
0.56989,62.973
0.60313,62.777
0.62757,62.582
0.64418,62.386
0.65982,62.19
0.67058,61.799
0.67644,61.604
0.67742,61.408
0.67449,61.017
0.66667,60.626
0.65494,60.235
0.64027,60.039
0.6217,59.648
0.60117,59.257
0.58162,59.061
0.56207,58.67
0.54057,58.475
0.51808,58.083
0.49658,57.888
0.47605,57.301
0.45748,56.91
0.44086,56.519
0.4262,56.128
0.41251,55.737
0.40078,55.346
0.39101,54.954
0.38221,54.368
0.37634,53.977
0.37048,53.585
0.36559,53.194
0.3607,52.803
0.35679,52.412
0.35288,52.216
0.34897,52.021
0.34604,52.021
0.34311,52.021
0.34018,52.216
0.33724,52.999
0.33431,54.563
0.33236,57.106
0.32942,61.017
0.32747,66.102
0.32454,71.773
0.3216,77.445
0.31867,82.921
0.31574,88.005
0.31281,92.308
0.30987,96.219
0.30792,99.153
0.30499,101.11
0.30205,102.28
0.29912,102.67
0.29717,102.48
0.29521,101.5
0.29326,100.13
0.29032,98.175
0.28739,95.828
0.28446,93.09
0.28152,89.961
0.27761,86.636
0.27468,83.116
0.27077,79.791
0.26784,76.858
0.26491,74.12
0.26295,71.969
0.261,70.013
0.25904,68.449
0.25709,67.08
0.25611,66.102
0.25611,65.319
0.26002,64.733
0.26882,64.342
0.28348,63.95
0.30596,63.755
0.33529,63.559
0.37243,63.364
0.41349,63.364
0.45161,63.364
0.4868,63.364
0.52688,63.168
0.565,63.168
0.6002,62.973
0.6305,62.973
0.65494,62.777
0.67351,62.582
0.68719,62.19
0.69404,61.995
0.69599,61.604
0.69306,61.213
0.68719,60.821
0.67644,60.43
0.66276,60.235
0.64614,59.844
0.62659,59.648
0.60411,59.257
0.58162,58.866
0.55816,58.475
0.5347,58.279
0.51222,57.888
0.49071,57.497
0.47116,57.106
0.45357,56.715
0.43988,56.323
0.42815,55.932
0.41642,55.346
0.40665,54.954
0.39785,54.563
0.38905,54.172
0.38221,53.781
0.37634,53.39
0.37146,52.999
0.36657,52.608
0.36266,52.412
0.35973,52.216
0.35679,52.216
0.35484,52.216
0.35191,52.412
0.34897,53.194
0.34604,54.759
0.34311,57.497
0.34018,61.408
0.33627,66.493
0.33333,72.36
0.3304,78.227
0.32649,83.703
0.32356,88.983
0.32063,93.481
0.31867,97.197
0.31672,100.13
0.31378,102.28
0.31085,103.46
0.30792,104.04
0.30499,103.85
0.30205,102.87
0.29814,101.3
0.29521,99.544
0.29228,97.197
0.28837,94.459
0.28543,91.525
0.2825,88.201
0.28055,84.681
0.27761,81.356
0.27468,78.227
0.27175,75.293
0.26784,72.947
0.26491,70.991
0.26197,69.231
0.26002,67.862
0.25806,66.884
0.25904,65.906
0.26393,65.319
0.2737,64.733
0.28739,64.342
0.30596,64.146
0.33236,63.95
0.36755,63.755
0.4086,63.755
0.45259,63.755
0.49853,63.559
0.54252,63.559
0.58358,63.559
0.61877,63.364
0.64907,63.168
0.67351,62.973
0.68915,62.973
0.69892,62.582
0.70577,62.386
0.7087,61.995
0.70772,61.604
0.70088,61.408
0.6911,61.017
0.67644,60.626
0.65885,60.43
0.6393,60.039
0.61681,59.844
0.59335,59.452
0.56891,59.061
0.54741,58.67
0.52786,58.475
0.50733,58.083
0.48778,57.692
0.46921,57.106
0.45259,56.715
0.43695,56.323
0.42424,55.932
0.41251,55.346
0.40274,54.954
0.39394,54.563
0.3871,54.172
0.38123,53.781
0.37634,53.39
0.37243,52.999
0.36852,52.608
0.36461,52.412
0.36168,52.216
0.35777,52.412
0.35484,52.803
0.35191,53.781
0.34897,55.737
0.34604,58.866
0.34213,63.559
0.3392,69.035
0.33627,75.293
0.33431,81.16
0.33138,87.027
0.32845,92.112
0.32551,96.61
0.32258,100.33
0.31965,103.26
0.31867,105.22
0.31965,106.19
0.31769,106.39
0.31574,106
0.31281,105.02
0.30987,103.46
0.30792,101.5
0.30499,99.348
0.30108,96.61
0.29717,93.481
0.29326,90.352
0.28935,86.832
0.28641,83.312
0.2825,79.987
0.27859,77.054
0.27468,74.511
0.27077,72.36
0.26784,70.6
0.26588,69.231
0.26491,68.057
0.26686,67.275
0.27175,66.493
0.2825,66.102
0.30108,65.711
0.32747,65.515
0.36364,65.319
0.40567,65.319
0.45357,65.319
0.5044,65.319
0.55425,65.319
0.59629,65.319
0.6305,65.319
0.66569,65.319
0.69697,65.124
0.72239,64.928
0.74291,64.733
0.7566,64.537
0.76442,64.342
0.76735,64.146
0.76442,63.755
0.75758,63.364
0.74487,62.973
0.73118,62.777
0.71359,62.386
0.69306,61.995
0.6696,61.604
0.64418,61.408
0.61779,61.017
0.59042,60.626
0.565,60.43
0.54057,60.039
0.51711,59.648
0.49658,59.061
0.47801,58.67
0.46139,58.279
0.44868,57.888
0.43891,57.497
0.42913,57.106
0.42033,56.715
0.41251,56.323
0.40567,55.932
0.3998,55.541
0.39492,55.346
0.39101,54.954
0.38807,54.759
0.38416,54.563
0.38221,54.759
0.37928,55.346
0.37732,56.323
0.37537,58.67
0.37341,62.386
0.37048,67.471
0.36755,73.533
0.36461,79.791
0.3607,86.05
0.35777,91.721
0.35484,96.806
0.35191,101.3
0.34897,104.82
0.34702,107.37
0.34506,109.13
0.34311,110.1
0.34018,110.1
0.33822,109.52
0.33529,108.34
0.33236,106.78
0.32942,104.82
0.32649,102.48
0.32258,99.739
0.31965,96.806
0.31672,93.481
0.31378,89.961
0.31085,86.441
0.30987,83.312
0.30694,80.378
0.30499,77.836
0.30205,75.685
0.29912,73.924
0.29717,72.555
0.29717,71.382
0.3001,70.6
0.30792,69.818
0.32258,69.426
0.34506,69.035
0.37634,68.84
0.4086,68.84
0.44477,68.84
0.48876,68.644
0.53666,68.644
0.58651,68.644
0.63245,68.449
0.67546,68.449
0.71163,68.253
0.74291,68.057
0.76637,67.666
0.78397,67.275
0.7957,66.884
0.80059,66.493
0.80059,65.906
0.79765,65.515
0.79081,64.928
0.77908,64.537
0.76442,64.146
0.74585,63.559
0.72532,63.168
0.70186,62.973
0.67644,62.582
0.65103,62.19
0.62561,61.799
0.60117,61.408
0.57967,61.017
0.56109,60.626
0.54252,60.235
0.52493,59.648
0.50831,59.257
0.49462,58.67
0.48289,58.279
0.47214,57.692
0.46334,57.301
0.45552,56.715
0.44868,56.323
0.44282,55.932
0.43891,55.541
0.435,55.15
0.43109,54.954
0.42717,54.759
0.42229,54.759
0.41838,55.346
0.41447,56.715
0.41056,59.452
0.40567,63.559
0.40176,69.035
0.39687,75.293
0.39198,81.747
0.3871,88.005
0.38319,93.872
0.37928,99.153
0.37537,103.46
0.37048,106.98
0.36559,109.32
0.36168,110.69
0.35679,111.28
0.35191,111.08
0.348,110.3
0.34311,108.93
0.33822,107.17
0.33236,105.02
0.32845,102.48
0.32454,99.544
0.32063,96.415
0.31574,92.894
0.30987,89.374
0.30499,85.854
0.3001,82.529
0.29521,79.596
0.29032,77.054
0.28543,74.902
0.28055,73.142
0.27664,71.773
0.27566,70.6
0.27761,69.818
0.28348,69.035
0.29619,68.449
0.31672,68.253
0.34604,67.862
0.38319,67.862
0.42815,67.666
0.47605,67.471
0.52688,67.471
0.57478,67.471
0.61975,67.275
0.65982,67.275
0.68915,67.08
0.71065,66.884
0.72923,66.493
0.74389,66.297
0.75367,65.906
0.75855,65.515
0.75758,65.124
0.75269,64.733
0.74389,64.342
0.73021,63.755
0.71359,63.364
0.69306,62.973
0.6696,62.777
0.64712,62.386
0.62463,61.995
0.59922,61.604
0.5738,61.213
0.54839,60.821
0.52395,60.235
0.50244,59.844
0.48192,59.452
0.46334,59.061
0.4477,58.475
0.43402,58.083
0.42229,57.497
0.41349,56.91
0.40567,56.519
0.39883,56.128
0.39296,55.737
0.3871,55.346
0.38221,55.15
0.37732,54.759
0.37341,54.563
0.3695,54.368
0.36657,54.563
0.36266,54.954
0.35875,55.737
0.35484,57.692
0.35191,60.821
0.34995,65.319
0.34604,70.991
0.34213,77.054
0.33822,83.312
0.33431,88.983
0.3304,94.263
0.32649,98.761
0.32258,102.48
0.31867,105.22
0.31476,107.17
0.31183,107.95
0.3089,108.15
0.30694,107.56
0.30303,106.39
0.3001,104.63
0.29619,102.48
0.29228,99.935
0.28739,97.197
0.28348,93.872
0.27957,90.352
0.27566,86.832
0.27175,83.312
0.26784,80.183
0.26588,77.445
0.26393,74.902
0.25806,72.947
0.2522,71.186
0.24731,69.818
0.24536,68.84
0.24536,67.862
0.24927,67.275
0.25806,66.884
0.27468,66.493
0.29814,66.297
0.3304,65.906
0.36755,65.906
0.40469,65.906
0.43988,65.711
0.48094,65.711
0.52199,65.711
0.56109,65.711
0.59531,65.515
0.62463,65.319
0.64712,65.124
0.66373,64.928
0.67546,64.537
0.68133,64.342
0.68133,63.95
0.6784,63.559
0.67058,62.973
0.65982,62.777
0.64614,62.386
0.62854,61.995
0.60899,61.604
0.58651,61.408
0.56403,61.017
0.54057,60.626
0.51711,60.235
0.49462,59.844
0.47312,59.452
0.45357,59.061
0.43695,58.67
0.42326,58.279
0.41056,57.692
0.39785,57.301
0.3871,56.715
0.37732,56.323
0.3695,55.932
0.36266,55.541
0.35679,55.15
0.35093,54.759
0.34702,54.368
0.34311,53.977
0.34115,53.781
0.33822,53.781
0.33627,53.781
0.33333,53.977
0.33138,54.759
0.32845,56.323
0.32551,58.67
0.32258,62.582
0.31965,67.471
0.31672,72.947
0.31281,78.814
0.30987,84.289
0.30694,89.57
0.30499,94.263
0.30303,97.979
0.3001,100.91
0.29814,103.06
0.29521,104.24
0.29228,104.82
0.28837,104.43
0.28543,103.46
0.2825,101.89
0.27859,99.935
0.27566,97.588
0.27175,94.85
0.26979,91.525
0.26784,88.005
0.26491,84.485
0.261,81.16
0.25806,78.031
0.25513,75.293
0.25122,72.947
0.24927,70.991
0.24633,69.426
0.24438,68.057
0.24242,67.08
0.2434,66.297
0.24633,65.711
0.25318,65.319
0.26491,64.928
0.2825,64.733
0.30792,64.733
0.34018,64.537
0.3783,64.537
0.42033,64.537
0.46334,64.342
0.50538,64.342
0.54545,64.342
0.57967,64.146
0.60997,64.146
0.6305,63.95
0.64516,63.559
0.65689,63.364
0.66471,62.973
0.66862,62.582
0.66667,62.386
0.6608,61.995
0.65103,61.604
0.63734,61.408
0.61975,61.017
0.6002,60.626
0.57869,60.43
0.55523,60.039
0.5347,59.844
0.51515,59.452
0.49462,59.061
0.4741,58.67
0.45455,58.279
0.43597,57.888
0.42033,57.301
0.40665,56.91
0.39394,56.519
0.38319,55.932
0.37439,55.541
0.36755,55.15
0.36168,54.759
0.35679,54.368
0.35288,53.977
0.34897,53.781
0.34506,53.39
0.34213,53.194
0.3392,53.194
0.33627,53.194
0.33333,53.781
0.33138,54.563
0.32845,56.323
0.32649,59.257
0.32356,63.559
0.3216,68.84
0.31965,74.707
0.31672,80.378
0.31378,85.854
0.31183,90.939
0.3089,95.241
0.30596,98.761
0.30303,101.69
0.30108,103.46
0.29814,104.63
0.29521,104.82
0.29228,104.24
0.29032,103.26
0.28837,101.69
0.28543,99.544
0.2825,97.197
0.27957,94.459
0.27566,91.134
0.27273,87.81
0.26882,84.289
0.26588,80.965
0.26197,77.836
0.25904,75.098
0.25611,72.947
0.25318,70.991
0.25122,69.426
0.25024,68.253
0.24927,67.08
0.25024,66.297
0.25415,65.906
0.26197,65.515
0.27664,65.124
0.29912,64.928
0.32845,64.733
0.36364,64.537
0.40469,64.537
0.4477,64.537
0.48583,64.537
0.52004,64.537
0.55621,64.342
0.58944,64.342
0.61877,64.146
0.64223,63.95
0.6608,63.755
0.67351,63.559
0.68035,63.168
0.68328,62.777
0.68035,62.386
0.67253,61.995
0.66178,61.799
0.64809,61.408
0.63245,61.213
0.61388,60.821
0.59238,60.43
0.56989,60.039
0.54643,59.844
0.52297,59.452
0.50049,59.061
0.47898,58.67
0.45943,58.279
0.44184,57.888
0.4262,57.301
0.41349,56.91
0.40274,56.519
0.39296,55.932
0.38416,55.541
0.37634,55.15
0.3695,54.759
0.36364,54.368
0.35875,53.977
0.35484,53.781
0.35093,53.39
0.348,53.39
0.34409,53.39
0.34115,53.585
0.3392,54.172
0.33724,55.346
0.33529,57.888
0.33236,61.604
0.32942,66.688
0.32649,72.555
0.32356,78.618
0.32063,84.485
0.31672,89.961
0.31378,94.85
0.31085,99.153
0.30792,102.48
0.30596,104.82
0.30401,106.39
0.30205,107.17
0.29912,107.17
0.29619,106.39
0.29326,105.22
0.29032,103.46
0.28641,101.3
0.28348,98.761
0.27957,95.632
0.27566,92.503
0.27273,88.983
0.26979,85.267
0.26784,81.747
0.26491,78.618
0.26197,75.88
0.25904,73.533
0.25611,71.773
0.25318,70.209
0.25024,69.035
0.24927,67.862
0.25122,67.275
0.25806,66.688
0.27077,66.102
0.2913,65.906
0.31378,65.711
0.34115,65.515
0.37732,65.515
0.41838,65.515
0.46334,65.515
0.50733,65.515
0.55034,65.515
0.58847,65.319
0.63636,65.319
0.68622,65.124
0.72043,64.928
0.74194,64.537
0.75367,64.342
0.75855,63.95
0.75953,63.755
0.75562,63.364
0.7478,62.973
0.73509,62.777
0.7175,62.386
0.69697,61.995
0.67351,61.799
0.64809,61.408
0.6217,61.213
0.59433,60.821
0.56696,60.43
0.5435,59.844
0.52297,59.648
0.50244,59.061
0.48192,58.67
0.46432,58.279
0.4477,57.692
0.43402,57.301
0.42131,56.91
0.41056,56.323
0.40176,55.932
0.39394,55.541
0.38807,55.15
0.38319,54.759
0.37928,54.563
0.37537,54.368
0.37243,54.368
0.36852,54.368
0.36559,54.759
0.36266,55.737
0.35973,57.888
0.35679,61.213
0.35288,65.906
0.34995,71.773
0.34604,78.031
0.34311,84.094
0.34018,89.961
0.33822,95.241
0.33529,99.739
0.33236,103.65
0.32942,106.58
0.32551,108.54
0.32258,109.71
0.31867,109.91
0.31574,109.52
0.31183,108.54
0.30792,106.98
0.30401,105.02
0.30108,102.87
0.29912,100.13
0.29521,97.197
0.29228,93.872
0.28837,90.352
0.28446,86.832
0.28055,83.312
0.27664,80.378
0.27273,77.64
0.26882,75.489
0.26588,73.533
0.26295,72.164
0.26197,70.991
0.26295,70.209
0.26784,69.622
0.27761,69.035
0.29423,68.84
0.31867,68.644
0.35288,68.449
0.39394,68.449
0.44184,68.449
0.49169,68.449
0.5435,68.253
0.59238,68.253
0.63636,68.253
0.67155,68.057
0.69795,68.057
0.72239,67.862
0.74291,67.666
0.75855,67.471
0.76833,67.08
0.77224,66.688
0.77126,66.297
0.76637,66.102
0.75562,65.711
0.74096,65.319
0.72336,64.928
0.70186,64.537
0.68035,64.342
0.65787,63.95
0.63343,63.559
0.60704,63.168
0.58162,62.777
0.55621,62.386
0.53275,61.995
0.51124,61.408
0.49267,61.017
0.47507,60.626
0.46139,60.039
0.44868,59.648
0.43891,59.257
0.43206,58.866
0.42522,58.475
0.41838,58.083
0.41349,57.692
0.4086,57.301
0.40469,57.106
0.40078,57.106
0.39785,57.106
0.39492,57.497
0.39198,58.67
0.38905,60.821
0.3871,64.537
0.38416,69.622
0.38221,75.685
0.38025,82.334
0.37732,88.788
0.37439,94.85
0.37146,100.33
0.36852,105.02
0.36559,108.74
0.36266,111.67
0.35973,113.43
0.35679,114.41
0.35386,114.6
0.35191,114.02
0.34897,112.84
0.34604,111.28
0.34311,109.52
0.34018,107.17
0.33627,104.63
0.33236,101.69
0.32845,98.37
0.32551,94.85
0.3216,91.33
0.31867,87.614
0.31476,84.289
0.31183,81.356
0.3089,79.009
0.30694,76.858
0.30499,75.098
0.30303,73.924
0.30401,72.947
0.3089,72.164
0.31965,71.578
0.33822,71.186
0.36559,70.991
0.40078,70.795
0.44282,70.6
0.49071,70.6
0.53372,70.6
0.5738,70.404
0.61681,70.209
0.65885,70.209
0.69697,70.013
0.72923,69.622
0.75464,69.231
0.77517,69.035
0.78886,68.644
0.79668,68.057
0.79961,67.666
0.79765,67.275
0.79081,66.884
0.78104,66.297
0.76833,65.906
0.75171,65.515
0.73216,65.124
0.7087,64.733
0.68426,64.342
0.65787,63.95
0.63148,63.364
0.60508,62.973
0.57967,62.582
0.55621,62.19
0.53372,61.604
0.51613,61.213
0.50049,60.626
0.48583,60.235
0.47312,59.648
0.46139,59.257
0.45161,58.67
0.44282,58.279
0.435,57.888
0.42815,57.497
0.42131,57.106
0.41544,56.715
0.41056,56.519
0.40567,56.519
0.40176,56.715
0.39687,57.497
0.39198,59.061
0.3871,61.799
0.38221,66.297
0.37732,71.969
0.37146,78.227
0.36657,84.681
0.3607,90.939
0.35582,96.806
0.34995,102.09
0.34506,106.19
0.34115,109.52
0.33724,111.86
0.33333,113.23
0.32845,113.62
0.32454,113.43
0.31965,112.45
0.31476,110.89
0.30987,109.13
0.30499,106.98
0.3001,104.24
0.29521,101.3
0.29032,97.979
0.28739,94.459
0.28348,90.743
0.28055,87.223
0.27566,83.898
0.27175,80.965
0.26784,78.227
0.26393,76.076
0.26002,74.316
0.25611,72.947
0.25513,71.773
0.25709,70.991
0.26491,70.404
0.27957,69.818
0.29814,69.426
0.32258,69.231
0.35777,69.035
0.3998,69.035
0.4477,68.84
0.49658,68.84
0.54643,68.84
0.5914,68.644
0.63245,68.644
0.66667,68.449
0.69501,68.253
0.71652,67.862
0.73021,67.666
0.73705,67.275
0.74096,66.884
0.74096,66.493
0.73705,65.906
0.72825,65.711
0.71652,65.124
0.6999,64.733
0.68035,64.537
0.65787,64.146
0.63343,63.755
0.60802,63.364
0.58162,62.973
0.55816,62.582
0.53666,61.995
0.50831,61.604
0.47703,61.213
0.45357,60.626
0.43402,60.039
0.4174,59.648
0.40469,59.061
0.39296,58.67
0.38416,58.279
0.37537,57.692
0.36852,57.301
0.36364,56.91
0.35973,56.519
0.35582,56.128
0.35191,55.932
0.34897,55.737
0.34506,55.932
0.34213,56.323
0.3392,56.91
0.33627,58.475
0.33236,61.213
0.32942,65.515
0.32551,70.795
0.32258,76.858
0.31965,83.116
0.31672,88.983
0.31378,94.459
0.31085,99.348
0.30792,103.46
0.30401,106.58
0.30108,108.74
0.29814,110.1
0.29423,110.5
0.2913,110.3
0.28837,109.32
0.28543,107.95
0.2825,105.8
0.28055,103.65
0.27761,100.91
0.2737,97.588
0.27077,94.263
0.26686,90.548
0.26295,87.027
0.26002,83.507
0.25611,80.574
0.25318,77.836
0.24927,75.489
0.24633,73.533
0.2434,71.969
0.24242,70.795
0.2434,70.013
0.24536,69.231
0.2522,68.84
0.26393,68.253
0.2825,68.057
0.3089,67.862
0.34213,67.666
0.38123,67.666
0.42424,67.471
0.46823,67.471
0.51124,67.471
0.54643,67.275
0.57576,67.275
0.60313,67.08
0.62854,66.884
0.64809,66.688
0.66276,66.297
0.67253,66.102
0.67644,65.711
0.67644,65.319
0.67155,64.928
0.66373,64.537
0.65103,64.146
0.63539,63.755
0.61877,63.364
0.60117,63.168
0.57967,62.777
0.55718,62.386
0.53372,61.995
0.51026,61.604
0.48778,61.213
0.46725,60.821
0.4477,60.235
0.43011,59.844
0.41544,59.452
0.40176,58.866
0.39198,58.475
0.38319,58.083
0.37537,57.497
0.36852,57.106
0.36266,56.715
0.35679,56.323
0.35288,55.932
0.34897,55.737
0.34506,55.541
0.34213,55.541
0.3392,55.737
0.33627,56.323
0.33333,57.301
0.33138,59.257
0.32942,62.582
0.32747,67.275
0.32454,72.751
0.3216,78.814
0.31769,84.681
0.31476,90.157
0.31183,95.046
0.3089,99.544
0.30596,103.06
0.30303,105.8
0.3001,107.56
0.29814,108.54
0.29619,108.54
0.29423,107.95
0.2913,106.78
0.28837,105.02
0.28446,102.87
0.28152,100.33
0.27859,97.197
0.27566,93.872
0.27175,90.352
0.26882,86.636
0.26491,83.116
0.26197,79.987
0.25904,77.249
0.25806,74.902
0.25513,72.947
0.25318,71.578
0.25024,70.404
0.24927,69.231
0.24927,68.644
0.25415,68.057
0.26295,67.666
0.27859,67.471
0.30108,67.275
0.33138,67.08
0.36168,66.884
0.39394,66.884
0.43304,66.884
0.4741,66.884
0.51515,66.688
0.55327,66.688
0.58749,66.493
0.61681,66.297
0.6393,66.102
0.65689,65.906
0.66862,65.711
0.67546,65.319
0.67644,64.928
0.67351,64.733
0.66667,64.342
0.65689,63.95
0.64321,63.755
0.62659,63.364
0.60606,62.973
0.58456,62.777
0.56207,62.386
0.53861,61.995
0.51515,61.604
0.49267,61.213
0.47116,60.821
0.45455,60.235
0.43988,59.844
0.42522,59.452
0.41153,58.866
0.3998,58.475
0.39003,58.083
0.38123,57.497
0.37341,57.106
0.36657,56.715
0.36168,56.323
0.35679,55.932
0.35288,55.737
0.34995,55.541
0.34702,55.541
0.34506,55.541
0.34213,56.128
0.3392,57.301
0.33627,59.648
0.33333,63.168
0.3304,68.057
0.32747,73.729
0.32454,79.791
0.3216,85.854
0.31965,91.525
0.31672,96.806
0.31476,101.3
0.31281,105.02
0.31085,107.56
0.30792,109.52
0.30596,110.5
0.30303,110.5
0.3001,109.91
0.29717,108.74
0.29423,106.98
0.29032,104.82
0.28739,102.48
0.28446,99.348
0.28152,96.024
0.27957,92.503
0.27761,88.788
0.2737,85.267
0.27077,81.943
0.26784,79.009
0.26393,76.662
0.261,74.511
0.25709,72.751
0.25513,71.382
0.25415,70.404
0.25513,69.622
0.26002,69.035
0.26784,68.449
0.28152,68.057
0.30205,67.862
0.3304,67.666
0.36559,67.666
0.40567,67.471
0.44868,67.471
0.49267,67.471
0.53568,67.471
0.57478,67.471
0.60899,67.275
0.63734,67.08
0.65689,66.884
0.67155,66.688
0.68231,66.297
0.69013,66.102
0.69306,65.711
0.6911,65.319
0.68524,64.928
0.67546,64.537
0.66178,64.342
0.64516,63.95
0.62463,63.559
0.60215,63.168
0.57869,62.777
0.55718,62.386
0.53666,61.995
0.51515,61.604
0.49365,61.213
0.47312,60.821
0.45455,60.235
0.43695,59.844
0.42229,59.452
0.4086,58.866
0.39785,58.475
0.38807,58.083
0.37928,57.497
0.37243,57.106
0.36755,56.715
0.36266,56.323
0.35875,56.128
0.35484,55.932
0.35191,55.932
0.34897,56.128
0.34604,56.91
0.34311,58.279
0.34409,60.821
0.348,64.928
0.348,70.404
0.34702,76.662
0.34506,82.725
0.34311,88.983
0.34018,94.655
0.33724,99.739
0.33431,104.24
0.3304,107.56
0.32747,110.3
0.32454,111.86
0.32063,112.45
0.31769,112.45
0.31378,111.67
0.30987,110.3
0.30694,108.74
0.30499,106.58
0.30205,104.04
0.29814,101.11
0.29423,97.979
0.29032,94.263
0.28641,90.548
0.2825,87.027
0.27957,83.507
0.27566,80.574
0.27175,78.031
0.26882,75.88
0.26491,73.924
0.26295,72.555
0.26295,71.382
0.26491,70.6
0.26979,69.818
0.28055,69.231
0.29814,69.035
0.32454,68.644
0.35973,68.449
0.40176,68.449
0.44868,68.253
0.49756,68.253
0.54643,68.253
0.58651,68.057
0.62072,68.057
0.65396,68.057
0.68426,67.862
0.70968,67.666
0.72923,67.471
0.74194,67.08
0.74976,66.688
0.75269,66.493
0.74976,66.102
0.74291,65.711
0.73118,65.515
0.71554,65.124
0.69795,64.733
0.67937,64.342
0.65689,63.95
0.63245,63.755
0.60606,63.364
0.57967,62.973
0.55425,62.582
0.52884,61.995
0.50538,61.604
0.48485,61.213
0.4653,60.821
0.44868,60.235
0.435,59.844
0.42424,59.452
0.41447,59.061
0.40469,58.475
0.39687,58.083
0.38905,57.692
0.38319,57.301
0.37732,57.106
0.37341,57.106
0.3695,57.106
0.36559,57.497
0.36266,58.475
0.35973,60.43
0.35679,63.755
0.35484,68.644
0.35288,74.707
0.34995,81.16
0.34702,87.81
0.34311,93.872
0.34018,99.544
0.33724,104.63
0.33333,108.74
0.3304,111.86
0.32747,114.02
0.32454,115.38
0.3216,115.97
0.31965,115.58
0.31672,114.6
0.31378,113.23
0.31085,111.47
0.30694,109.32
0.30303,106.78
0.3001,104.04
0.29619,100.72
0.29228,97.197
0.28837,93.481
0.28543,89.765
0.28152,86.245
0.27859,83.116
0.27664,80.574
0.27468,78.422
0.27175,76.662
0.26979,75.098
0.26979,74.12
0.27273,73.338
0.28152,72.751
0.29619,72.164
0.31965,71.969
0.35191,71.773
0.39198,71.773
0.43011,71.578
0.46921,71.578
0.51515,71.578
0.56207,71.382
0.60802,71.382
0.64907,71.186
0.68524,71.186
0.71457,70.991
0.73803,70.6
0.75464,70.404
0.76637,70.013
0.77224,69.622
0.77322,69.231
0.76931,68.84
0.76246,68.449
0.75171,68.057
0.73705,67.666
0.71945,67.471
0.69892,67.08
0.67546,66.688
0.65005,66.102
0.62463,65.906
0.59824,65.319
0.57283,64.928
0.54936,64.537
0.52884,63.95
0.51222,63.559
0.49462,62.973
0.47898,62.582
0.4653,61.995
0.45259,61.604
0.44282,61.213
0.43402,60.821
0.42717,60.235
0.42131,59.844
0.41544,59.648
0.41153,59.452
0.4086,59.257
0.40567,59.452
0.40274,60.235
0.3998,61.799
0.39687,64.733
0.39394,69.231
0.39003,75.293
0.3871,81.943
0.38416,88.788
0.38025,95.241
0.37732,101.11
0.37341,106.39
0.37048,110.89
0.36755,114.41
0.36559,116.75
0.36266,118.12
0.35973,118.71
0.35582,118.51
0.35288,117.73
0.34897,116.36
0.34604,114.8
0.34213,112.65
0.33822,110.3
0.33431,107.56
0.3304,104.43
0.32747,101.11
0.32454,97.393
0.3216,93.481
0.31769,89.765
0.31378,86.245
0.31085,83.312
0.30694,80.769
0.30303,78.618
0.3001,76.858
0.29814,75.489
0.29912,74.511
0.30596,73.729
0.31867,73.338
0.33529,72.751
0.35777,72.555
0.38905,72.36
0.42913,72.164
0.4741,72.164
0.52199,72.164
0.56891,71.969
0.61388,71.773
0.65396,71.773
0.68817,71.578
0.71652,71.186
0.73803,70.991
0.75269,70.6
0.76051,70.209
0.76637,69.818
0.76833,69.231
0.76637,68.84
0.76149,68.449
0.75171,67.862
0.73803,67.471
0.72043,67.08
0.6999,66.688
0.67644,66.102
0.652,65.711
0.62561,65.319
0.60117,64.928
0.57869,64.537
0.55425,64.146
0.52981,63.559
0.50733,62.973
0.4868,62.582
0.46823,61.995
0.45161,61.604
0.43793,61.017
0.42522,60.626
0.41544,60.039
0.40567,59.648
0.39883,59.257
0.39394,58.67
0.38905,58.475
0.38416,58.279
0.37928,58.083
0.37439,58.279
0.3695,58.866
0.36559,60.235
0.36168,63.168
0.35679,67.471
0.35288,73.533
0.34897,80.183
0.34409,87.027
0.34115,93.677
0.33822,99.935
0.33431,105.61
0.3304,110.3
0.32551,114.02
0.3216,116.75
0.31672,118.32
0.31281,118.9
0.3089,118.71
0.30401,117.93
0.3001,116.56
0.29619,114.8
0.29228,112.65
0.29032,110.1
0.28641,107.17
0.27957,103.85
0.27077,100.13
0.26393,96.219
0.25904,92.308
0.25415,88.592
0.25024,85.267
0.24633,82.138
0.24242,79.791
0.23851,77.64
0.23558,75.88
0.23363,74.707
0.2346,73.533
0.23851,72.751
0.24829,72.164
0.26491,71.969
0.29032,71.578
0.32258,71.382
0.36266,71.382
0.4086,71.186
0.4565,70.991
0.50342,70.991
0.54936,70.991
0.58553,70.795
0.61388,70.6
0.64125,70.404
0.66471,70.209
0.68328,69.818
0.69599,69.426
0.70381,69.035
0.70674,68.644
0.70577,68.253
0.69892,67.862
0.68915,67.471
0.67546,67.08
0.65787,66.493
0.64027,66.102
0.62072,65.711
0.59824,65.319
0.5738,64.928
0.54839,64.537
0.52395,64.146
0.49951,63.559
0.47605,62.973
0.45455,62.582
0.435,61.995
0.41838,61.604
0.40371,61.017
0.39198,60.626
0.38319,60.039
0.37439,59.648
0.36657,59.061
0.35973,58.67
0.35386,58.279
0.348,58.083
0.34311,57.692
0.3392,57.692
0.33529,57.692
0.33236,58.279
0.32845,59.452
0.32551,61.408
0.32356,65.124
0.32063,70.209
0.31769,76.076
0.31476,82.529
0.31183,88.983
0.30792,94.85
0.30499,100.52
0.30108,105.22
0.29814,109.13
0.29521,112.06
0.2913,114.02
0.28837,114.8
0.28543,114.99
0.28348,114.41
0.28055,113.23
0.27664,111.47
0.2737,109.32
0.26979,106.78
0.26588,103.65
0.26197,100.33
0.25904,96.61
0.25513,92.699
0.25122,88.983
0.24731,85.267
0.2434,82.138
0.24047,79.4
0.23851,77.054
0.23558,75.098
0.23363,73.533
0.23167,72.555
0.23069,71.578
0.23363,70.991
0.24145,70.404
0.25513,70.013
0.27761,69.818
0.30694,69.622
0.34311,69.426
0.37928,69.426
0.41544,69.426
0.45846,69.231
0.50147,69.231
0.5435,69.231
0.58065,69.035
0.6129,69.035
0.6393,68.644
0.65982,68.449
0.67449,68.253
0.68328,67.862
0.68622,67.471
0.68524,67.08
0.68035,66.688
0.67155,66.297
0.65885,65.906
0.64321,65.515
0.62366,65.124
0.60215,64.733
0.57869,64.342
0.55327,63.95
0.52884,63.559
0.50342,63.168
0.47996,62.777
0.45846,62.19
0.43988,61.604
0.42522,61.213
0.40958,60.626
0.39589,60.235
0.38416,59.844
0.37341,59.257
0.36364,58.866
0.35582,58.475
0.34995,58.083
0.34409,57.497
0.3392,57.301
0.33529,56.91
0.33236,56.91
0.3304,56.91
0.32747,57.497
0.32551,58.279
0.32258,60.43
0.32063,63.755
0.31769,68.644
0.31476,74.511
0.31183,81.16
0.3089,87.614
0.30596,93.677
0.30303,99.348
0.3001,104.24
0.29814,108.34
0.29619,111.28
0.29423,113.43
0.2913,114.6
0.28837,114.8
0.28543,114.21
0.2825,113.23
0.27859,111.47
0.27566,109.32
0.27175,106.78
0.26882,103.85
0.26491,100.33
0.26295,96.61
0.261,92.894
0.25806,88.983
0.25513,85.267
0.25122,82.138
0.24829,79.4
0.24438,77.054
0.24145,75.098
0.23851,73.533
0.23558,72.36
0.23558,71.382
0.23754,70.795
0.24536,70.209
0.25611,69.818
0.27273,69.622
0.29717,69.426
0.3304,69.231
0.37048,69.231
0.41447,69.035
0.46139,69.035
0.50733,69.035
0.55034,69.035
0.58847,68.84
0.6217,68.644
0.64907,68.449
0.66764,68.253
0.67937,67.862
0.68915,67.666
0.69404,67.275
0.69404,66.884
0.6911,66.493
0.68231,66.102
0.67058,65.711
0.65396,65.319
0.63441,64.928
0.6129,64.537
0.58847,64.342
0.56403,63.755
0.54154,63.364
0.52004,62.973
0.49853,62.582
0.47605,61.995
0.45552,61.604
0.43695,61.017
0.41935,60.626
0.40469,60.039
0.39198,59.648
0.38025,59.257
0.37048,58.67
0.36266,58.279
0.35679,57.888
0.35191,57.497
0.34702,57.106
0.34311,56.91
0.3392,56.91
0.33627,56.91
0.33236,57.301
0.32942,58.279
0.32649,60.43
0.32356,63.95
0.32063,68.84
0.31769,74.902
0.31476,81.16
0.31281,87.614
0.31085,93.872
0.30792,99.544
0.30499,104.43
0.30205,108.54
0.29814,111.47
0.29521,113.62
0.29228,114.6
0.28935,114.8
0.28641,114.41
0.28348,113.23
0.28055,111.67
0.27761,109.52
0.27566,107.17
0.27273,104.24
0.26979,100.91
0.26588,97.197
0.26295,93.481
0.25904,89.374
0.25513,85.854
0.2522,82.529
0.24829,79.596
0.24536,77.054
0.24145,75.098
0.23851,73.533
0.23754,72.164
0.23754,71.382
0.23949,70.6
0.24536,70.013
0.25709,69.622
0.27566,69.426
0.30205,69.035
0.33627,69.035
0.37732,69.035
0.42913,69.035
0.48778,68.84
0.53959,68.84
0.58162,68.84
0.61486,68.644
0.64712,68.449
0.67644,68.253
0.69892,68.057
0.71652,67.666
0.72825,67.471
0.73412,67.08
0.73509,66.688
0.73118,66.297
0.72336,65.906
0.70968,65.515
0.69306,65.124
0.67449,64.537
0.65494,64.342
0.63245,63.95
0.60704,63.559
0.58162,63.168
0.55523,62.777
0.52981,62.19
0.50538,61.799
0.48289,61.213
0.46334,60.821
0.44477,60.235
0.42913,59.844
0.4174,59.452
0.40762,58.866
0.39883,58.475
0.39003,58.083
0.38221,57.497
0.37634,57.106
0.37146,56.91
0.36657,56.519
0.36266,56.519
0.35875,56.519
0.35582,56.91
0.35288,58.083
0.34897,60.235
0.34702,63.95
0.34506,69.035
0.34311,75.489
0.34018,82.138
0.33627,88.983
0.33333,95.046
0.32942,100.91
0.32649,105.8
0.32258,110.1
0.31965,113.23
0.31672,115.19
0.31281,116.36
0.31085,116.56
0.3089,115.97
0.30694,114.99
0.30401,113.43
0.30108,111.28
0.29717,108.93
0.29326,106
0.29032,102.67
0.28641,99.153
0.2825,95.437
0.27957,91.525
0.27566,87.614
0.27175,84.094
0.26979,81.16
0.26784,78.422
0.26491,76.271
0.26197,74.511
0.26002,73.142
0.25904,71.969
0.261,71.186
0.26784,70.6
0.28152,70.013
0.30303,69.818
0.33236,69.622
0.37146,69.426
0.40958,69.231
0.4477,69.231
0.49365,69.231
0.54057,69.231
0.58749,69.231
0.62952,69.035
0.66569,69.035
0.69599,68.84
0.71945,68.644
0.73705,68.449
0.7478,68.057
0.75367,67.666
0.75367,67.471
0.74976,67.08
0.74194,66.688
0.73021,66.297
0.71457,65.906
0.69599,65.515
0.67449,65.124
0.65005,64.928
0.62463,64.537
0.59726,64.146
0.57087,63.755
0.54448,63.168
0.52004,62.973
0.49853,62.386
0.48094,61.995
0.46334,61.408
0.44673,61.017
0.43206,60.43
0.41838,60.039
0.40762,59.648
0.39785,59.257
0.39003,58.866
0.38319,58.475
0.37732,58.083
0.37243,57.888
0.36852,57.692
0.36559,57.692
0.36364,58.083
0.3607,59.257
0.35777,61.604
0.35484,65.515
0.35191,70.795
0.34897,77.249
0.34604,84.094
0.34311,90.743
0.34018,97.001
0.33724,102.67
0.33431,107.76
0.33236,111.67
0.3304,114.8
0.32747,116.75
0.32551,117.73
0.32258,117.93
0.31965,117.14
0.31672,116.17
0.31378,114.41
0.31085,112.45
0.30792,110.1
0.30499,107.37
0.30205,104.24
0.29912,100.91
0.29814,97.197
0.29521,93.481
0.29326,89.765
0.29032,86.245
0.28739,83.116
0.28446,80.574
0.28152,78.422
0.27859,76.662
0.27664,75.098
0.27664,74.12
0.28055,73.338
0.28837,72.751
0.30108,72.36
0.31867,71.969
0.34604,71.969
0.38221,71.773
0.42424,71.773
0.47214,71.578
0.52199,71.578
0.57087,71.578
0.61681,71.382
0.65787,71.382
0.69306,71.186
0.72141,70.795
0.74096,70.6
0.75464,70.209
0.76442,69.818
0.77028,69.426
0.77224,69.035
0.76931,68.449
0.76246,68.057
0.75171,67.666
0.73705,67.275
0.71945,66.884
0.69892,66.493
0.67546,66.102
0.65103,65.711
0.62854,65.319
0.60704,64.928
0.58358,64.537
0.56012,63.95
0.53861,63.364
0.51808,62.973
0.49951,62.386
0.48289,61.995
0.46921,61.408
0.4565,61.017
0.44673,60.43
0.43793,59.844
0.43206,59.257
0.4262,58.866
0.42131,58.279
0.4174,57.888
0.41349,57.692
0.40958,57.692
0.40567,58.083
0.40274,59.452
0.39883,61.995
0.39589,66.297
0.39198,72.164
0.38905,79.009
0.38514,86.05
0.38319,93.09
0.38025,99.544
0.37732,105.22
0.37439,110.3
0.37146,114.21
0.36755,116.95
0.36364,118.71
0.35973,119.49
0.35679,119.3
0.35288,118.51
0.34897,117.14
0.34604,115.38
0.34311,113.23
0.34018,110.69
0.33724,107.76
0.33431,104.63
0.3304,101.11
0.32649,97.197
0.32258,93.481
0.31965,89.57
0.31574,85.854
0.31183,82.725
0.30694,79.987
0.30303,77.836
0.29912,75.88
0.29717,74.511
0.29619,73.338
0.29814,72.555
0.30401,71.969
0.31769,71.382
0.33822,71.186
0.36852,70.991
0.40567,70.795
0.44966,70.795
0.49756,70.795
0.54643,70.6
0.59238,70.6
0.6305,70.404
0.6608,70.209
0.69013,70.013
0.71554,69.622
0.73509,69.231
0.74976,68.84
0.75855,68.449
0.76149,68.057
0.76051,67.471
0.75562,67.08
0.74585,66.688
0.73216,66.297
0.71554,65.906
0.69795,65.319
0.6784,64.928
0.65591,64.537
0.62659,64.146
0.59335,63.755
0.56305,63.364
0.53666,62.777
0.51124,62.386
0.48778,61.799
0.46725,61.408
0.44868,60.821
0.43304,60.235
0.42033,59.844
0.40958,59.257
0.3998,58.67
0.39101,58.279
0.38319,57.888
0.37634,57.301
0.37048,56.91
0.36559,56.715
0.3607,56.519
0.35679,56.519
0.35288,56.715
0.34897,57.497
0.34506,59.257
0.34213,62.386
0.3392,67.275
0.33627,73.338
0.33236,80.183
0.32942,87.027
0.32551,93.481
0.3216,99.348
0.31769,104.63
0.31378,109.13
0.30987,112.45
0.30596,114.8
0.30303,115.97
0.3001,116.17
0.29814,115.78
0.29521,114.6
0.29228,113.04
0.28935,110.89
0.28543,108.54
0.2825,105.61
0.27859,102.48
0.27468,98.957
0.27077,95.241
0.26784,91.33
0.26393,87.614
0.261,84.094
0.25806,80.769
0.25611,78.227
0.25415,75.88
0.25122,74.12
0.24829,72.751
0.24633,71.578
0.24633,70.6
0.25024,70.013
0.26002,69.426
0.27761,69.231
0.30303,69.035
0.33627,68.84
0.37048,68.644
0.40567,68.644
0.44868,68.644
0.49462,68.449
0.53959,68.449
0.58065,68.253
0.61681,68.253
0.64712,67.862
0.67155,67.666
0.68915,67.275
0.70088,66.884
0.70674,66.493
0.70772,66.102
0.70479,65.711
0.69795,65.319
0.68817,64.928
0.67449,64.537
0.65787,63.95
0.63832,63.559
0.61584,63.168
0.59238,62.777
0.56794,62.386
0.54252,61.995
0.51808,61.604
0.49462,61.213
0.4741,60.626
0.45748,60.235
0.44086,59.648
0.42424,59.257
0.41056,58.67
0.39785,58.279
0.3871,57.692
0.37732,57.301
0.3695,56.91
0.36266,56.323
0.35777,55.932
0.35288,55.541
0.34897,55.346
0.34604,55.346
0.34311,55.346
0.34018,55.541
0.33724,56.323
0.33431,57.888
0.33138,61.017
0.32747,65.515
0.32454,71.186
0.3216,77.64
0.31769,84.094
0.31378,90.157
0.30987,95.828
0.30792,100.91
0.30596,105.02
0.30303,108.15
0.3001,110.3
0.29717,111.67
0.29326,112.06
0.29032,111.47
0.28739,110.3
0.28446,108.74
0.28152,106.78
0.27761,104.24
0.27468,101.3
0.27175,97.979
0.27077,94.459
0.26784,90.548
0.26491,86.832
0.261,83.116
0.25806,79.987
0.25513,77.249
0.2522,74.902
0.24829,72.947
0.24536,71.382
0.2434,70.209
0.24145,69.231
0.24242,68.644
0.24633,68.057
0.25415,67.666
0.26784,67.471
0.28935,67.08
0.31867,67.08
0.35484,66.884
0.39687,66.884
0.44184,66.688
0.48876,66.688
0.53275,66.688
0.5738,66.493
0.60899,66.297
0.63539,66.102
0.65494,65.906
0.67155,65.711
0.68426,65.319
0.69208,64.928
0.69501,64.537
0.69306,64.146
0.68622,63.755
0.67546,63.364
0.6608,62.973
0.64321,62.582
0.62268,62.19
0.6002,61.799
0.57869,61.408
0.55718,61.017
0.5347,60.626
0.51222,60.235
0.48974,59.844
0.46823,59.452
0.44966,58.866
0.43206,58.475
0.4174,58.083
0.40371,57.497
0.39296,57.106
0.38319,56.715
0.37537,56.128
0.3695,55.737
0.36364,55.346
0.35875,54.954
0.35484,54.563
0.35093,54.368
0.34702,54.368
0.34409,54.368
0.34115,54.759
0.33822,55.932
0.33529,57.888
0.33236,61.408
0.32942,66.102
0.32747,71.969
0.32551,78.227
0.32258,84.485
0.31965,90.352
0.31672,95.632
0.31378,100.13
0.30987,104.04
0.30694,106.78
0.30401,108.74
0.30108,109.71
0.29814,109.71
0.29521,109.13
0.29326,107.95
0.2913,106.19
0.28837,104.04
0.28543,101.3
0.2825,98.37
0.27957,95.046
0.27664,91.33
0.2737,87.614
0.26979,83.898
0.26686,80.574
0.26393,77.64
0.261,75.098
0.25709,72.947
0.25513,71.186
0.25415,69.818
0.2522,68.644
0.25024,67.862
0.25122,67.275
0.25611,66.884
0.26588,66.493
0.2825,66.297
0.30694,66.102
0.3392,66.102
0.3783,65.906
0.42131,65.906
0.46139,65.906
0.49756,65.906
0.53763,65.906
0.57576,65.711
0.60997,65.515
0.6393,65.319
0.66276,65.124
0.68035,64.733
0.69208,64.342
0.69795,63.95
0.69892,63.559
0.69501,63.168
0.68719,62.973
0.67546,62.582
0.66178,62.19
0.64516,61.799
0.62463,61.408
0.60215,61.017
0.57771,60.626
0.55327,60.235
0.52981,59.844
0.50635,59.452
0.48387,59.061
0.46432,58.67
0.44575,58.279
0.43109,57.692
0.41935,57.301
0.40762,56.91
0.39687,56.519
0.3871,56.128
0.37928,55.541
0.37243,55.15
0.36657,54.759
0.36168,54.368
0.35777,54.172
0.35777,53.781
0.3607,53.781
0.3607,53.977
0.35973,54.759
0.35875,56.128
0.35679,58.866
0.35386,62.973
0.35093,68.644
0.348,74.902
0.34506,81.356
0.34115,87.614
0.33822,93.286
0.33431,98.37
0.33138,102.67
0.32747,106.19
0.32551,108.74
0.32356,110.3
0.3216,110.89
0.31867,110.69
0.31574,109.91
0.31281,108.54
0.3089,106.78
0.30596,104.43
0.30205,101.69
0.29912,98.566
0.29521,95.241
0.2913,91.525
0.28935,87.81
0.28739,84.094
0.28446,80.769
0.28152,77.836
0.27859,75.293
0.27566,73.142
0.27175,71.382
0.26882,70.013
0.26588,69.035
0.26588,68.253
0.26882,67.471
0.27664,67.08
0.2913,66.688
0.31085,66.493
0.33431,66.493
0.36852,66.297
0.41056,66.297
0.45748,66.297
0.50635,66.102
0.55523,66.102
0.60117,66.102
0.64125,65.906
0.67644,65.906
0.70479,65.711
0.72727,65.319
0.74096,64.928
0.74878,64.537
0.75269,64.146
0.75367,63.755
0.74878,63.364
0.73998,62.973
0.72727,62.777
0.70968,62.386
0.68915,61.995
0.66667,61.604
0.64125,61.213
0.61486,60.821
0.58847,60.43
0.56598,60.039
0.54448,59.648
0.52297,59.061
0.50147,58.67
0.48192,58.279
0.46432,57.692
0.44868,57.106
0.435,56.715
0.42326,56.323
0.41349,55.932
0.40469,55.346
0.39785,55.15
0.39198,54.563
0.38807,54.368
0.38319,53.977
0.37928,53.781
0.37537,53.977
0.37243,54.368
0.3695,55.346
0.36559,57.301
0.36266,60.821
0.35973,65.711
0.35582,71.773
0.35288,78.227
0.34897,84.681
0.34604,90.743
0.34409,96.219
0.34115,101.11
0.33724,105.02
0.33431,108.15
0.3304,110.1
0.32747,111.28
0.32356,111.47
0.32063,110.89
0.31672,109.91
0.31378,108.34
0.30987,106.19
0.30792,104.04
0.30499,101.11
0.30205,97.979
0.29912,94.655
0.29521,90.939
0.29228,87.223
0.28837,83.507
0.28446,80.378
0.28055,77.445
0.27761,75.098
0.2737,73.142
0.26979,71.578
0.26784,70.209
0.26686,69.231
0.26784,68.644
0.27175,68.057
0.28152,67.666
0.29814,67.471
0.32258,67.275
0.35582,67.08
0.39687,67.08
0.44379,67.08
0.49267,67.08
0.54252,67.08
0.58944,67.08
0.62757,67.08
0.65885,66.884
0.68817,66.688
0.71457,66.493
0.73412,66.297
0.74878,65.906
0.75758,65.711
0.76149,65.319
0.75953,64.928
0.75367,64.537
0.74291,64.146
0.72825,63.755
0.70968,63.559
0.69013,62.973
0.67058,62.777
0.64712,62.386
0.6217,61.995
0.59531,61.604
0.56989,61.213
0.54545,60.821
0.52199,60.235
0.50147,59.844
0.48192,59.452
0.4653,58.866
0.45064,58.475
0.43891,58.083
0.43011,57.692
0.42131,57.301
0.41349,56.91
0.40665,56.519
0.40078,56.128
0.39589,55.737
0.39101,55.541
0.38807,55.541
0.38416,55.737
0.38221,56.715
0.37928,58.279
0.37634,61.408
0.37439,66.297
0.37243,72.36
0.37048,79.009
0.36852,85.854
0.36559,92.112
0.36266,97.979
0.35973,103.06
0.35679,107.37
0.35386,110.5
0.35093,112.84
0.348,114.21
0.34604,114.41
0.34409,114.02
0.34213,113.04
0.34018,111.67
0.33724,109.91
0.33529,107.56
0.33236,105.22
0.32942,102.28
0.32649,98.957
0.32356,95.437
0.32063,91.917
0.31867,88.201
0.31574,84.876
0.31281,81.943
0.31085,79.4
0.30987,77.249
0.30792,75.293
0.30499,73.924
0.30401,72.947
0.30401,72.164
0.30792,71.382
0.31672,70.991
0.33333,70.6
0.35777,70.404
0.39198,70.209
0.43206,70.209
0.47214,70.209
0.51124,70.209
0.55718,70.013
0.60411,69.818
0.64809,69.818
0.68817,69.426
0.72239,69.231
0.75073,68.84
0.77224,68.449
0.7869,68.057
0.79668,67.471
0.80156,66.884
0.80059,66.297
0.7957,65.906
0.7869,65.319
0.77517,64.733
0.75953,64.342
0.74096,63.95
0.72043,63.559
0.69697,63.168
0.67253,62.973
0.64712,62.582
0.62268,61.995
0.59824,61.604
0.57576,61.213
0.55621,60.821
0.53959,60.235
0.52395,59.844
0.50831,59.257
0.4956,58.67
0.48387,58.279
0.4741,57.692
0.4653,57.106
0.45748,56.715
0.45161,56.323
0.44575,55.932
0.44086,55.541
0.43597,55.346
0.43206,55.346
0.42913,55.932
0.42522,57.106
0.42131,59.844
0.4174,63.95
0.41349,69.622
0.40958,76.271
0.40567,83.116
0.40078,89.765
0.39589,95.828
0.39101,101.3
0.38612,106
0.38221,109.71
0.37928,112.26
0.37537,113.62
0.37146,114.41
0.36168,114.21
0.34995,113.23
0.34115,111.86
0.33529,110.1
0.3304,107.95
0.32551,105.41
0.32063,102.48
0.31672,99.348
0.31281,95.828
0.30987,92.112
0.30499,88.396
0.30108,84.681
0.29619,81.356
0.29228,78.422
0.28739,76.076
0.2825,74.12
0.27859,72.555
0.27468,71.186
0.27273,70.404
0.2737,69.622
0.27859,69.035
0.28739,68.84
0.30205,68.644
0.32356,68.449
0.35484,68.253
0.39198,68.057
0.43402,68.057
0.47801,68.057
0.52199,67.862
0.56305,67.666
0.6002,67.666
0.63148,67.471
0.65689,67.08
0.67449,66.884
0.68622,66.493
0.69501,65.906
0.6999,65.711
0.6999,65.124
0.69697,64.733
0.69013,64.342
0.67937,63.95
0.66471,63.559
0.64809,62.973
0.62854,62.777
0.60606,62.386
0.5826,61.995
0.56207,61.408
0.54154,61.017
0.52004,60.626
0.49756,60.039
0.47703,59.648
0.45748,59.257
0.44086,58.67
0.42522,58.279
0.41251,57.692
0.40078,57.301
0.39101,56.715
0.38221,56.323
0.37634,55.932
0.37146,55.346
0.36657,55.15
0.36266,54.759
0.35875,54.563
0.35484,54.563
0.35093,54.563
0.348,55.15
0.34506,56.128
0.34213,58.475
0.33822,62.19
0.33529,67.471
0.33138,73.533
0.32845,80.183
0.32649,86.636
0.32356,92.503
0.32063,97.979
0.31672,102.67
0.31378,106.39
0.31085,109.13
0.30694,110.89
0.30401,111.67
0.30108,111.67
0.29814,110.89
0.29423,109.52
0.29228,107.56
0.29032,105.41
0.28739,102.67
0.28446,99.544
0.28152,96.219
0.27761,92.503
0.2737,88.788
0.27077,85.072
0.26686,81.552
0.26393,78.618
0.261,76.076
0.25709,73.729
0.25415,72.164
0.2522,70.6
0.25122,69.426
0.24927,68.644
0.25024,68.057
0.25415,67.666
0.26295,67.275
0.27859,67.08
0.30205,66.884
0.33236,66.688
0.37048,66.688
0.41349,66.688
0.45748,66.493
0.49658,66.493
0.53177,66.493
0.56696,66.297
0.6002,66.102
0.62952,65.906
0.652,65.711
0.6696,65.319
0.68133,64.928
0.68719,64.537
0.68915,64.146
0.68524,63.755
0.67742,63.364
0.66569,62.973
0.652,62.582
0.63734,62.19
0.61877,61.799
0.59726,61.408
0.57478,61.017
0.55034,60.626
0.52688,60.235
0.5044,59.844
0.48289,59.452
0.46237,58.866
0.44477,58.279
0.42913,57.888
0.41642,57.301
0.40567,56.91
0.39589,56.519
0.38612,55.932
0.3783,55.541
0.37146,55.15
0.36559,54.759
0.35973,54.368
0.35582,54.172
0.35191,53.977
0.348,53.977
0.34506,54.172
0.34213,54.759
0.34018,55.737
0.33822,58.083
0.33529,61.604
0.33333,66.493
0.3304,72.36
0.32747,78.422
0.32356,84.289
0.32063,89.765
0.31769,94.85
0.31378,98.957
0.31085,102.48
0.30792,105.02
0.30596,106.58
0.30401,107.17
0.30205,107.17
0.29912,106.39
0.29619,104.82
0.29326,102.87
0.29032,100.52
0.28641,97.784
0.28348,94.655
0.28055,91.134
0.27664,87.419
0.2737,83.898
0.26979,80.574
0.26784,77.445
0.26588,74.902
0.26393,72.751
0.261,70.795
0.25806,69.426
0.25513,68.253
0.25318,67.471
0.2522,66.688
0.25318,66.102
0.25806,65.711
0.26784,65.515
0.28543,65.319
0.30499,65.124
0.32845,65.124
0.3607,65.124
0.39883,64.928
0.43988,64.928
0.48289,64.928
0.52297,64.733
0.56109,64.733
0.59335,64.537
0.62072,64.342
0.64223,63.95
0.65787,63.559
0.66764,63.168
0.67253,62.973
0.67155,62.582
0.66862,62.19
0.6608,61.799
0.64907,61.408
0.63441,61.213
0.61681,60.821
0.59629,60.626
0.57478,60.235
0.5523,59.844
0.52981,59.452
0.50733,59.061
0.48778,58.67
0.47116,58.279
0.45455,57.692
0.43793,57.301
0.42326,56.91
0.41056,56.323
0.39883,55.932
0.38905,55.346
0.38123,55.15
0.37341,54.759
0.36755,54.368
0.36168,53.977
0.35875,53.585
0.35582,53.39
0.35191,53.194
0.34897,53.39
0.34604,53.781
0.34311,54.563
0.34018,56.519
0.33822,59.648
0.33529,64.146
0.33236,69.818
0.3304,76.076
0.32747,82.334
0.32454,88.201
0.32258,93.481
0.3216,97.979
0.31965,101.89
0.31672,104.82
0.31378,106.98
0.31183,107.95
0.3089,108.34
0.30596,107.76
0.30303,106.58
0.3001,105.02
0.29717,102.67
0.29423,100.13
0.29228,97.197
0.29032,93.677
0.28837,90.157
0.28543,86.441
0.28152,82.725
0.27859,79.4
0.27566,76.271
0.27273,73.729
0.26979,71.773
0.26686,70.013
0.26393,68.84
0.26197,67.666
0.261,66.884
0.26197,66.297
0.26491,65.906
0.27273,65.711
0.28641,65.515
0.30694,65.319
0.33627,65.319
0.37341,65.124
0.41642,65.124
0.46334,65.124
0.51124,64.928
0.55816,64.928
0.60215,64.733
0.63636,64.537
0.66276,64.537
0.68817,64.146
0.7087,63.95
0.72434,63.559
0.73412,63.168
0.73803,62.777
0.73705,62.386
0.73118,61.995
0.72043,61.604
0.70577,61.408
0.68622,61.017
0.66471,60.821
0.64321,60.43
0.6217,60.039
0.59726,59.648
0.57185,59.257
0.54643,58.866
0.52199,58.475
0.50049,58.083
0.47996,57.497
0.46139,57.106
0.44575,56.715
0.43206,56.323
0.42033,55.737
0.41056,55.346
0.40371,55.15
0.39589,54.563
0.39003,54.172
0.38416,53.781
0.37928,53.585
0.37537,53.585
0.37146,53.585
0.36755,53.781
0.36364,54.563
0.3607,56.128
0.35777,58.866
0.35386,63.168
0.35191,68.84
0.34995,74.902
0.34702,81.356
0.34409,87.419
0.34018,92.894
0.33724,97.784
0.33333,101.89
0.3304,105.02
0.32747,107.37
0.32454,108.74
0.32063,109.13
0.31769,108.93
0.31574,107.95
0.31378,106.39
0.31085,104.43
0.30792,102.09
0.30499,99.348
0.30108,96.219
0.29717,92.699
0.29423,88.983
0.29032,85.267
0.28739,81.747
0.28348,78.618
0.28055,75.88
0.27664,73.533
0.27468,71.773
0.27273,70.209
0.27077,69.035
0.26784,68.057
0.26686,67.471
0.26784,66.884
0.27468,66.493
0.28641,66.297
0.30694,66.102
0.33529,65.906
0.37243,65.906
0.41544,65.906
0.45552,65.906
0.4956,65.711
0.53959,65.711
0.58358,65.515
0.62463,65.515
0.6608,65.319
0.69208,64.928
0.71554,64.733
0.73314,64.537
0.74487,64.146
0.75073,63.755
0.75073,63.364
0.74585,62.973
0.73803,62.582
0.7263,62.386
0.70968,61.995
0.69013,61.604
0.66862,61.213
0.64418,61.017
0.61779,60.43
0.59238,60.039
0.56598,59.648
0.54154,59.257
0.51808,58.67
0.49658,58.279
0.47996,57.692
0.4653,57.301
0.45064,56.91
0.43793,56.519
0.42717,55.932
0.41642,55.541
0.40762,55.15
0.40078,54.759
0.39394,54.368
0.38807,54.172
0.38319,53.977
0.37928,53.977
0.37537,54.172
0.37341,54.954
0.37146,56.519
0.36852,59.452
0.36559,63.95
0.36266,69.622
0.35875,76.271
0.35582,82.921
0.35191,89.179
0.34897,95.046
0.34604,100.13
0.34213,104.43
0.3392,107.95
0.33724,110.3
0.33529,111.67
0.33236,112.26
0.32942,112.06
0.32649,111.28
0.32356,109.91
0.31965,107.95
0.31574,105.61
0.31183,103.06
0.3089,100.13
0.30499,96.806
0.30108,93.09
0.29717,89.374
0.29423,85.854
0.29228,82.529
0.28935,79.596
0.28641,77.054
0.2825,74.902
0.27957,73.338
0.27664,71.969
0.2737,70.795
0.27273,70.013
0.27468,69.426
0.28152,69.035
0.29521,68.84
0.31281,68.644
0.33627,68.644
0.3695,68.449
0.41056,68.449
0.45846,68.449
0.50831,68.449
0.55816,68.449
0.60606,68.449
0.65005,68.253
0.68719,68.253
0.71848,67.862
0.74291,67.666
0.76149,67.275
0.77126,67.08
0.77615,66.688
0.77713,66.102
0.77419,65.906
0.76735,65.515
0.75562,64.928
0.73998,64.537
0.72141,64.342
0.6999,63.95
0.67546,63.559
0.65005,63.168
0.62366,62.777
0.6002,62.386
0.57869,61.799
0.55718,61.408
0.53568,61.017
0.51515,60.43
0.49756,60.039
0.48094,59.648
0.46725,59.257
0.45455,58.866
0.44477,58.279
0.43597,58.083
0.42913,57.497
0.42326,57.301
0.41935,56.91
0.41544,56.715
0.41251,56.715
0.40958,56.91
0.40665,57.888
0.40371,59.648
0.40176,62.973
0.39883,67.862
0.39687,73.924
0.39394,80.769
0.39101,87.419
0.38807,93.872
0.38514,99.544
0.38319,104.63
0.38123,108.93
0.3783,112.06
0.37537,114.21
0.37341,115.38
0.37048,115.58
0.36755,114.99
0.36559,114.02
0.36266,112.45
0.35973,110.5
0.35679,108.34
0.35386,105.8
0.35191,102.87
0.34995,99.544
0.34702,96.024
0.34311,92.308
0.34018,88.592
0.33724,85.072
0.33431,82.138
0.33138,79.4
0.32845,77.054
0.32454,75.293
0.3216,73.729
0.31965,72.751
0.31965,71.773
0.32258,71.186
0.32942,70.6
0.34213,70.404
0.36266,70.209
0.39198,70.013
0.42815,70.013
0.47214,70.013
0.52004,70.013
0.56891,69.818
0.61681,69.818
0.6608,69.622
0.69501,69.426
0.72239,69.035
0.7478,68.84
0.76931,68.253
0.78592,67.862
0.78201,67.471
0.76735,66.884
0.75758,66.493
0.74878,65.906
0.739,65.515
0.7263,65.124
0.71065,64.537
0.69306,64.146
0.67449,63.755
0.65494,63.364
0.63343,62.973
0.61095,62.582
0.58749,61.995
0.56403,61.604
0.54252,61.017
0.52199,60.626
0.50244,60.039
0.48583,59.648
0.47116,59.061
0.45846,58.67
0.44868,58.279
0.43988,57.692
0.43206,57.301
0.42522,56.91
0.41838,56.519
0.41349,56.128
0.40762,55.932
0.40274,55.737
0.39883,55.932
0.39394,56.519
0.39003,57.692
0.38514,60.235
0.38123,64.537
0.37732,70.209
0.37341,76.858
0.36852,83.898
0.36364,90.548
0.35875,96.806
0.35386,102.48
0.34897,107.17
0.34409,110.89
0.34018,113.43
0.33529,114.8
0.3304,115.58
0.32649,115.19
0.32258,114.41
0.31965,112.84
0.31574,110.89
0.31183,108.74
0.30792,106
0.30303,103.06
0.29912,99.739
0.29521,96.219
0.29032,92.308
0.28641,88.592
0.28348,84.876
0.27957,81.747
0.27566,78.814
0.2737,76.467
0.27175,74.511
0.26882,72.947
0.26588,71.773
0.26295,70.795
0.26295,70.013
0.26686,69.622
0.27566,69.231
0.29228,69.035
0.31574,68.84
0.348,68.84
0.38612,68.644
0.42326,68.644
0.45943,68.449
0.50147,68.449
0.54252,68.449
0.58162,68.253
0.61681,68.057
0.64614,67.666
0.6696,67.471
0.68622,67.08
0.69795,66.493
0.70479,66.102
0.70577,65.711
0.70283,65.319
0.69599,64.733
0.68719,64.342
0.67351,63.95
0.65787,63.559
0.63832,63.168
0.61681,62.777
0.59433,62.386
0.56989,61.995
0.54545,61.604
0.52199,61.213
0.49951,60.626
0.47801,60.235
0.46041,59.648
0.44575,59.257
0.43109,58.67
0.4174,58.279
0.40567,57.692
0.39589,57.106
0.3871,56.715
0.37928,56.323
0.37243,55.932
0.36755,55.541
0.36266,55.346
0.35777,55.15
0.35386,54.954
0.35093,55.15
0.34897,55.541
0.34604,56.715
0.34311,59.061
0.3392,62.777
0.33627,68.057
0.33236,74.12
0.32942,80.574
0.32551,86.832
0.3216,92.699
0.31769,97.979
0.31378,102.48
0.31183,106
0.3089,108.54
0.30694,110.1
0.30303,110.69
0.3001,110.5
0.29717,109.71
0.29326,108.15
0.29032,106.19
0.28641,103.85
0.28348,101.11
0.27957,97.979
0.27664,94.459
0.27273,90.743
0.26979,87.027
0.26882,83.507
0.26588,80.183
0.26295,77.249
0.26002,74.902
0.25709,72.751
0.25415,71.186
0.25122,69.818
0.24927,68.84
0.24731,68.057
0.24829,67.471
0.2522,67.08
0.26002,66.884
0.27175,66.688
0.2913,66.493
0.31867,66.297
0.35288,66.297
0.39198,66.297
0.43597,66.297
0.47996,66.102
0.52199,66.102
0.56207,65.906
0.59629,65.711
0.62463,65.515
0.64712,65.319
0.66178,64.928
0.67058,64.537
0.67644,64.146
0.6784,63.755
0.67644,63.364
0.6696,62.973
0.65885,62.777
0.64516,62.386
0.62757,61.995
0.60802,61.604
0.58651,61.408
0.56305,61.017
0.54252,60.43
0.52199,60.039
0.50147,59.648
0.47996,59.257
0.46041,58.866
0.44184,58.279
0.4262,57.888
0.41153,57.497
0.39883,56.91
0.38807,56.519
0.3783,56.128
0.37048,55.541
0.36461,55.15
0.35973,54.759
0.35484,54.368
0.35093,54.172
0.34702,53.977
0.34409,54.172
0.34115,54.368
0.33822,55.15
0.33529,56.519
0.33236,59.257
0.32942,63.168
0.32649,68.644
0.32356,74.707
0.3216,80.965
0.31965,87.027
0.31672,92.503
0.31378,97.393
0.31085,101.5
0.30792,104.63
0.30499,106.98
0.30303,108.34
0.3001,108.74
0.29717,108.34
0.29423,107.37
0.29228,105.61
0.29032,103.65
0.28837,101.11
0.28543,97.979
0.28348,94.655
0.28055,91.134
0.27664,87.223
0.2737,83.507
0.27077,80.183
0.26784,77.249
0.26491,74.707
0.26197,72.555
0.25806,70.795
0.25513,69.426
0.25415,68.253
0.25318,67.471
0.2522,66.884
0.25318,66.493
0.25709,66.102
0.26686,65.906
0.2825,65.711
0.30596,65.711
0.33627,65.711
0.37341,65.711
0.41447,65.711
0.45846,65.515
0.49658,65.515
0.52981,65.319
0.565,65.124
0.59726,64.928
0.62561,64.733
0.64907,64.537
0.66569,64.146
0.67742,63.755
0.68328,63.559
0.68426,63.168
0.68035,62.777
0.67253,62.386
0.65982,61.995
0.64614,61.604
0.62952,61.408
0.60997,61.017
0.58847,60.626
0.565,60.235
0.54154,59.844
0.51808,59.452
0.4956,59.061
0.4741,58.67
0.45552,58.279
0.43793,57.692
0.42326,57.301
0.41251,56.91
0.40371,56.323
0.39394,55.932
0.38612,55.541
0.37928,55.15
0.37341,54.759
0.36755,54.368
0.36266,53.977
0.35875,53.781
0.35582,53.781
0.35191,54.172
0.34897,54.759
0.34604,56.128
0.34409,58.866
0.34311,62.973
0.34018,68.449
0.33724,74.707
0.33529,80.965
0.33236,86.832
0.32942,92.503
0.32649,97.393
0.32356,101.5
0.32063,104.63
0.31769,106.98
0.31476,108.34
0.31281,108.74
0.31085,108.54
0.3089,107.56
0.30596,106
0.30401,104.04
0.30108,101.5
0.29814,98.761
0.29423,95.632
0.2913,91.917
0.28837,88.396
0.28543,84.681
0.28152,81.16
0.27859,78.031
0.27664,75.293
0.27468,73.142
0.27273,71.186
0.26979,69.818
0.26686,68.644
0.26393,67.666
0.26295,67.08
0.26393,66.493
0.26784,66.102
0.27761,65.906
0.29423,65.711
0.31769,65.711
0.34409,65.711
0.37243,65.711
0.40958,65.515
0.45064,65.515
0.49365,65.515
0.53568,65.319
0.57478,65.124
0.60899,64.928
0.63734,64.733
0.6608,64.537
0.67742,64.342
0.68915,63.95
0.69501,63.559
0.69599,63.168
0.69208,62.777
0.68524,62.386
0.67449,61.995
0.65982,61.799
0.64223,61.408
0.6217,61.017
0.6002,60.626
0.57674,60.235
0.55327,59.844
0.52981,59.648
0.50733,59.061
0.48778,58.67
0.47116,58.279
0.45455,57.888
0.43891,57.301
0.42522,56.91
0.41251,56.519
0.40176,56.128
0.39198,55.737
0.38416,55.346
0.37732,54.759
0.37146,54.368
0.36657,54.172
0.36266,53.977
0.35973,53.781
0.35679,54.172
0.35386,54.954
0.35191,56.519
0.34897,59.257
0.34604,63.755
0.34311,69.426
0.34018,75.88
0.33724,82.529
0.33431,88.788
0.33138,94.459
0.32747,99.544
0.32551,103.85
0.32356,107.17
0.3216,109.52
0.31867,110.89
0.31574,111.67
0.31281,111.47
0.30987,110.5
0.30694,108.93
0.30499,107.17
0.30205,104.82
0.29814,102.09
0.29521,99.153
0.29228,95.632
0.28935,92.112
0.28739,88.201
0.28543,84.485
0.2825,81.16
0.27859,78.031
0.27566,75.489
0.27273,73.338
0.26979,71.773
0.26686,70.404
0.26393,69.231
0.26295,68.449
0.26393,67.666
0.26784,67.275
0.27664,67.08
0.2913,66.884
0.31281,66.688
0.34311,66.688
0.38025,66.688
0.42229,66.688
0.46725,66.493
0.5132,66.493
0.55718,66.493
0.59726,66.297
0.63245,66.102
0.65787,65.906
0.67742,65.711
0.69404,65.319
0.70674,64.928
0.71457,64.537
0.71848,64.146
0.71652,63.755
0.71163,63.364
0.70186,62.973
0.68719,62.777
0.67058,62.386
0.65005,61.995
0.62854,61.604
0.60704,61.213
0.58651,61.017
0.56305,60.626
0.53959,60.039
0.51711,59.648
0.4956,59.257
0.47605,58.866
0.45748,58.475
0.44184,58.083
0.42815,57.497
0.41544,57.106
0.40567,56.715
0.39785,56.323
0.39101,55.932
0.38514,55.541
0.37928,55.346
0.37439,54.954
0.37048,54.954
0.36657,55.15
0.36266,55.737
0.35973,57.106
0.35679,59.844
0.35386,64.146
0.34995,69.818
0.34702,76.271
0.34506,82.921
0.34311,89.374
0.34018,95.241
0.33724,100.52
0.33431,105.02
0.3304,108.54
0.32747,111.28
0.32454,112.84
0.3216,113.43
0.31769,113.43
0.31476,112.65
0.31183,111.28
0.30987,109.71
0.30792,107.56
0.30596,105.02
0.30303,102.28
0.3001,98.957
0.29717,95.632
0.29423,91.917
0.29032,88.201
0.28739,84.681
0.28446,81.552
0.28152,78.814
0.27859,76.662
0.27566,74.707
0.2737,73.142
0.27273,71.969
0.27077,71.186
0.27175,70.404
0.27566,70.013
0.28348,69.622
0.29912,69.426
0.3216,69.231
0.35288,69.035
0.39003,69.035
0.43304,69.035
0.47801,69.035
0.51808,69.035
0.55425,69.035
0.59238,68.84
0.62757,68.644
0.65982,68.253
0.68524,68.057
0.70577,67.666
0.72141,67.471
0.73021,67.08
0.73509,66.688
0.73509,66.102
0.73021,65.906
0.72239,65.515
0.71065,65.124
0.69697,64.733
0.68035,64.342
0.66178,63.95
0.64027,63.559
0.61681,63.168
0.59335,62.777
0.56989,62.19
0.54741,61.799
0.52688,61.408
0.50733,61.017
0.48974,60.43
0.47507,60.039
0.46334,59.648
0.45161,59.257
0.44184,58.67
0.43304,58.279
0.42522,57.888
0.41935,57.497
0.41349,57.106
0.40958,56.91
0.40567,56.715
0.40274,56.715
0.3998,57.301
0.39687,58.67
0.39394,61.408
0.39198,65.711
0.39003,71.382
0.3871,78.227
0.38416,85.267
0.38025,91.917
0.37537,97.979
0.37048,103.65
0.36755,108.34
0.36364,111.86
0.35973,114.41
0.35679,115.97
0.35386,116.56
0.35191,116.36
0.34897,115.58
0.34604,114.21
0.34311,112.65
0.34018,110.5
0.33724,108.15
0.33333,105.41
0.3304,102.28
0.32649,98.957
0.32356,95.241
0.32063,91.525
0.31672,87.81
0.31476,84.485
0.31183,81.356
0.30987,78.618
0.30694,76.467
0.30303,74.707
0.3001,73.338
0.29814,72.164
0.29717,71.382
0.30108,70.6
0.30987,70.209
0.32551,70.013
0.34897,69.818
0.37537,69.622
0.40567,69.622
0.44575,69.426
0.48974,69.426
0.53666,69.231
0.58162,69.035
0.62366,68.84
0.66178,68.644
0.69306,68.253
0.71848,68.057
0.73803,67.666
0.75171,67.275
0.76051,66.688
0.76246,66.102
0.76149,65.711
0.7566,65.319
0.74878,64.733
0.73705,64.342
0.72141,63.95
0.70381,63.559
0.68231,62.973
0.65885,62.582
0.63343,62.19
0.60704,61.799
0.58162,61.408
0.55816,61.017
0.53763,60.626
0.51613,60.039
0.4956,59.648
0.47703,59.257
0.45943,58.67
0.44379,58.279
0.43109,57.692
0.41935,57.301
0.40958,56.91
0.40078,56.519
0.39296,55.932
0.3871,55.541
0.38123,55.346
0.37732,55.15
0.37243,55.15
0.36755,55.541
0.36364,56.519
0.35875,58.67
0.35484,62.386
0.35093,67.666
0.34604,74.316
0.34213,81.16
0.33724,88.201
0.33236,94.459
0.32845,100.33
0.32551,105.22
0.3216,109.32
0.31769,112.06
0.31378,113.82
0.30987,114.8
0.30596,114.8
0.30205,114.02
0.29619,112.84
0.29228,111.08
0.28837,108.93
0.2825,106.58
0.27957,103.65
0.27761,100.52
0.27468,97.001
0.26882,93.481
0.26491,89.57
0.261,85.854
0.25611,82.529
0.2522,79.4
0.24829,76.858
0.24536,74.707
0.24242,72.947
0.24145,71.578
0.2434,70.6
0.24927,69.622
0.26002,69.035
0.27957,68.644
0.30694,68.449
0.34213,68.057
0.38416,68.057
0.43109,67.862
0.47996,67.666
0.52688,67.666
0.57087,67.666
0.60606,67.471
0.63343,67.275
0.65885,67.08
0.68035,66.884
0.69697,66.688
0.70772,66.297
0.71359,65.906
0.71457,65.515
0.71163,65.124
0.70381,64.537
0.69208,64.146
0.67742,63.755
0.65885,63.364
0.64027,62.973
0.61975,62.582
0.59726,62.19
0.57283,61.799
0.54839,61.408
0.52297,61.017
0.49951,60.626
0.47703,60.039
0.4565,59.648
0.43793,59.257
0.42229,58.866
0.40762,58.279
0.39687,57.888
0.38807,57.301
0.37928,56.91
0.37146,56.519
0.36461,55.932
0.35875,55.541
0.35386,55.15
0.34897,54.954
0.34506,54.563
0.34115,54.368
0.33822,54.368
0.33431,54.759
0.33138,55.346
0.32845,57.106
0.32649,60.039
0.32356,64.537
0.31965,70.6
0.31574,76.858
0.31183,83.507
0.3089,89.57
0.30499,95.046
0.30108,99.935
0.29717,104.24
0.29423,107.17
0.29032,109.32
0.28837,110.5
0.28641,110.89
0.28348,110.5
0.28055,109.32
0.27761,107.76
0.27273,105.61
0.26882,103.26
0.26491,100.33
0.25806,97.197
0.25513,93.677
0.25122,89.961
0.24731,86.05
0.24633,82.725
0.2434,79.596
0.24047,76.662
0.23754,74.316
0.23656,72.36
0.23656,70.795
0.24145,69.622
0.25122,68.644
0.26882,67.862
0.29326,67.275
0.32649,66.884
0.35973,66.688
0.39492,66.493
0.43695,66.297
0.48192,66.297
0.5259,66.102
0.56696,66.102
0.60411,66.102
0.63441,65.906
0.65885,65.906
0.67742,65.711
0.69013,65.515
0.69697,65.319
0.69892,64.928
0.69697,64.733
0.69013,64.342
0.67937,63.95
0.66569,63.559
0.64809,63.168
0.62757,62.777
0.60508,62.386
0.58065,61.995
0.55621,61.604
0.53079,61.408
0.50733,61.017
0.48485,60.626
0.4653,60.235
0.44868,59.844
0.43304,59.452
0.4174,58.866
0.40371,58.475
0.39198,58.083
0.38221,57.497
0.37341,57.106
0.36559,56.715
0.35875,56.323
0.35386,55.737
0.34897,55.346
0.34506,54.954
0.34213,54.563
0.34018,54.172
0.33822,53.977
0.33529,53.977
0.33236,53.977
0.32942,54.563
0.32649,55.737
0.32258,58.083
0.31965,61.799
0.31574,66.884
0.31281,72.947
0.3089,79.4
0.30694,85.658
0.30499,91.33
0.30205,96.61
0.3001,100.91
0.29717,104.43
0.29423,106.98
0.2913,108.74
0.28837,109.52
0.28543,109.32
0.28152,108.74
0.27859,107.37
0.27566,105.61
0.27566,103.46
0.27761,100.72
0.27859,97.784
0.27761,94.263
0.27566,90.743
0.27273,87.027
0.26979,83.312
0.26686,79.987
0.26393,77.249
0.261,74.707
0.25806,72.751
0.25806,70.991
0.26002,69.622
0.26491,68.644
0.27468,67.862
0.2913,67.275
0.31574,66.884
0.34702,66.493
0.38514,66.297
0.4262,66.102
0.47019,65.906
0.51222,65.906
0.55327,65.906
0.58847,65.711
0.61975,65.711
0.64516,65.515
0.66178,65.515
0.67351,65.319
0.68231,64.928
0.68622,64.733
0.68719,64.537
0.68328,64.146
0.67546,63.755
0.66373,63.364
0.64809,62.973
0.6305,62.777
0.60997,62.386
0.58749,61.995
0.56794,61.604
0.54839,61.213
0.52688,60.821
0.50635,60.43
0.48583,60.039
0.46628,59.844
0.44868,59.452
0.43402,58.866
0.42033,58.475
0.4086,58.083
0.39785,57.497
0.38905,57.106
0.38221,56.715
0.37634,56.323
0.37243,55.932
0.36755,55.346
0.36364,54.954
0.35973,54.563
0.35679,54.172
0.35386,53.977
0.35093,53.781
0.348,53.781
0.34506,53.977
0.34213,54.954
0.3392,56.715
0.33627,60.039
0.33431,64.733
0.33236,70.795
0.32942,77.445
0.32551,83.898
0.32258,90.157
0.31965,95.632
0.31672,100.72
0.31378,104.63
0.31085,107.76
0.30792,109.91
0.30499,111.08
0.30205,111.47
0.3001,111.08
0.29814,110.1
0.29619,108.54
0.29326,106.58
0.29032,104.24
0.28739,101.5
0.28348,98.37
0.28055,95.046
0.27761,91.134
0.27468,87.419
0.27175,83.703
0.26784,80.378
0.26588,77.445
0.26491,74.902
0.26295,72.751
0.26295,71.186
0.26686,69.818
0.27566,68.84
0.2913,68.057
0.31378,67.471
0.34409,67.08
0.38123,66.884
0.42326,66.688
0.46823,66.493
0.50733,66.493
0.54154,66.297
0.57771,66.297
0.61193,66.297
0.64223,66.297
0.66667,66.102
0.68524,65.906
0.69892,65.906
0.70674,65.711
0.70968,65.319
0.70772,64.928
0.70186,64.537
0.69208,64.342
0.68035,63.95
0.66569,63.559
0.64809,63.168
0.62659,62.777
0.60411,62.386
0.58065,61.995
0.55621,61.604
0.53177,61.408
0.50929,61.017
0.48778,60.626
0.46823,60.039
0.45064,59.648
0.43695,59.257
0.42522,58.866
0.41447,58.279
0.40371,57.888
0.39492,57.497
0.3871,57.106
0.38025,56.715
0.37537,56.323
0.37048,55.737
0.36559,55.346
0.36266,54.954
0.35875,54.563
0.35582,54.368
0.35386,54.172
0.35191,54.368
0.34897,54.759
0.34604,56.128
0.34311,58.67
0.34018,62.777
0.33724,68.253
0.33333,74.707
0.3304,81.356
0.32747,87.81
0.32356,93.872
0.32063,99.153
0.31867,103.85
0.31672,107.37
0.31476,110.1
0.31183,111.67
0.30792,112.45
0.30499,112.45
0.30205,111.86
0.29912,110.5
0.29619,108.93
0.29326,106.78
0.28935,104.43
0.28641,101.5
0.28348,98.37
0.28055,94.85
0.27957,91.134
0.27664,87.419
0.2737,83.703
0.27077,80.378
0.26784,77.445
0.26491,75.098
0.26393,73.142
0.26588,71.578
0.27273,70.209
0.28543,69.231
0.30596,68.449
0.32942,67.862
0.35679,67.471
0.39296,67.275
