0.72434,69.035
0.71848,68.644
0.70968,68.057
0.69795,67.666
0.68231,67.08
0.66471,66.688
0.64418,66.102
0.6217,65.711
0.59824,65.319
0.57283,64.733
0.54839,64.342
0.52395,63.755
0.50147,63.364
0.48192,62.777
0.4653,62.386
0.44868,61.799
0.43304,61.213
0.41935,60.626
0.40665,60.235
0.39687,59.648
0.38807,59.257
0.38025,58.67
0.37341,58.279
0.36755,57.888
0.36266,57.497
0.35973,57.301
0.35679,57.106
0.35288,57.301
0.34897,57.888
0.34604,59.452
0.34311,62.386
0.33822,67.275
0.33431,73.729
0.33138,81.552
0.32747,89.374
0.32356,97.001
0.31965,103.85
0.31476,109.71
0.31085,114.41
0.30694,117.73
0.30303,119.69
0.29912,120.67
0.29619,120.47
0.29228,119.49
0.28739,117.93
0.28348,115.78
0.27957,113.23
0.27664,110.69
0.27077,107.76
0.26784,104.63
0.26491,101.3
0.26197,97.588
0.25806,93.677
0.25415,89.57
0.25024,85.854
0.24633,82.334
0.24242,79.205
0.23851,76.858
0.23558,74.902
0.2346,73.142
0.23656,71.969
0.24145,71.186
0.25122,70.6
0.26784,70.209
0.29326,70.013
0.32551,70.013
0.36559,70.013
0.41056,70.013
0.45552,70.013
0.50049,70.013
0.54252,70.013
0.57967,70.013
0.6129,70.013
0.6393,69.818
0.65787,69.818
0.67058,69.622
0.68035,69.231
0.68622,68.84
0.68817,68.449
0.68622,68.057
0.68133,67.666
0.67253,67.275
0.6608,66.688
0.64614,66.297
0.62854,65.906
0.60899,65.319
0.59042,64.928
0.57185,64.537
0.55034,63.95
0.52884,63.559
0.50831,63.168
0.48778,62.582
0.46921,62.19
0.45161,61.604
0.43597,61.213
0.42326,60.626
0.41153,60.039
0.40176,59.648
0.39296,59.257
0.3871,58.67
0.38221,58.279
0.37732,57.692
0.37243,57.301
0.36852,56.91
0.36461,56.715
0.36168,56.323
0.35875,56.323
0.35582,56.715
0.35288,57.497
0.34995,59.257
0.34702,62.777
0.34409,68.253
0.34213,75.489
0.3392,83.507
0.33627,91.33
0.33333,98.761
0.32942,105.22
0.32649,110.89
0.32258,115.19
0.31867,118.12
0.31574,119.88
0.31183,120.67
0.3089,120.27
0.30499,119.1
0.30205,117.34
0.3001,115.38
0.29717,112.84
0.29423,110.3
0.29032,107.37
0.28739,104.24
0.28348,100.72
0.28055,97.001
0.27664,93.09
0.27273,88.983
0.26979,85.267
0.26588,81.943
0.26393,79.009
0.26197,76.467
0.26002,74.511
0.25904,72.947
0.261,71.773
0.26686,70.991
0.27859,70.404
0.29717,70.013
0.32454,69.818
0.35875,69.818
0.39883,69.818
0.44282,69.818
0.48778,69.818
0.5259,70.013
0.55914,70.013
0.59335,70.013
0.62463,69.818
0.65103,69.818
0.67253,69.622
0.68817,69.231
0.69892,69.035
0.70479,68.644
0.70674,68.057
0.70381,67.666
0.69795,67.275
0.68915,66.688
0.67742,66.102
0.66276,65.711
0.64516,65.319
0.62561,64.928
0.60508,64.537
0.5826,63.95
0.55914,63.559
0.53666,63.168
0.51515,62.777
0.49462,62.19
0.47507,61.799
0.45846,61.408
0.44477,60.821
0.43304,60.235
0.42229,59.844
0.41251,59.452
0.40371,58.866
0.39687,58.475
0.39003,58.083
0.38416,57.497
0.37928,57.106
0.37537,56.715
0.37146,56.323
0.36755,56.128
0.36559,55.932
0.36364,56.128
0.3607,56.91
0.35777,58.67
0.35386,61.995
0.35093,67.471
0.34702,74.902
0.34311,82.921
0.3392,91.134
0.33529,98.566
0.33138,105.41
0.32747,111.08
0.32356,115.58
0.32063,118.9
0.31867,120.67
0.31574,121.45
0.31281,121.45
0.3089,120.47
0.30596,118.9
0.30205,116.95
0.29912,114.8
0.29521,112.26
0.2913,109.32
0.28739,106.39
0.28446,103.06
0.28152,99.544
0.27957,95.632
0.27664,91.721
0.2737,87.81
0.26979,84.289
0.26588,81.16
0.26295,78.227
0.25904,76.076
0.25806,74.316
0.26002,72.947
0.26588,71.969
0.27859,71.186
0.29912,70.6
0.32258,70.404
0.35093,70.209
0.3871,70.209
0.43011,70.209
0.47507,70.209
0.52102,70.209
0.56403,70.209
0.60313,70.209
0.63734,70.209
0.66569,70.209
0.68719,70.013
0.70381,69.818
0.71359,69.426
0.71848,69.231
0.72043,68.84
0.71848,68.253
0.71457,67.862
0.70577,67.275
0.69501,66.884
0.68035,66.297
0.66373,65.906
0.64418,65.319
0.62366,64.928
0.6002,64.537
0.57771,64.146
0.55621,63.755
0.53763,63.168
0.51711,62.777
0.49756,62.19
0.47898,61.799
0.46237,61.213
0.44673,60.821
0.43402,60.235
0.42229,59.844
0.41251,59.257
0.40371,58.866
0.39687,58.279
0.39101,57.888
0.3871,57.497
0.38221,56.91
0.3783,56.715
0.37537,56.323
0.37146,56.323
0.36755,56.519
0.36461,57.301
0.3607,59.257
0.35679,62.973
0.35386,68.644
0.34995,76.076
0.34702,84.289
0.34409,92.503
0.34115,100.13
0.33724,106.98
0.33333,112.84
0.32942,117.34
0.32551,120.47
0.3216,122.43
0.31769,123.21
0.31476,123.01
0.31085,122.03
0.30694,120.47
0.30303,118.51
0.30108,116.36
0.29814,113.82
0.29521,111.28
0.29228,108.34
0.28837,105.22
0.28446,101.89
0.28055,97.979
0.27761,94.263
0.2737,90.352
0.26979,86.636
0.26588,83.312
0.26295,80.378
0.261,78.031
0.261,76.076
0.26197,74.707
0.26784,73.533
0.27859,72.751
0.29814,72.36
0.32454,72.164
0.35973,71.969
0.40078,71.969
0.44673,71.969
0.49365,71.969
0.53959,71.969
0.5826,71.969
0.61681,72.164
0.64418,72.164
0.6696,71.969
0.6911,71.969
0.7087,71.578
0.72043,71.382
0.72825,70.991
0.73216,70.6
0.73118,70.013
0.7263,69.622
0.71848,69.035
0.70772,68.644
0.69697,68.057
0.68622,67.666
0.67058,67.08
0.65103,66.688
0.62854,66.297
0.60508,65.906
0.58162,65.319
0.55816,64.928
0.5347,64.537
0.5132,63.95
0.49365,63.559
0.47605,62.973
0.46041,62.582
0.44868,61.995
0.43891,61.604
0.42913,61.213
0.42131,60.626
0.41349,60.235
0.40762,59.844
0.40274,59.452
0.39785,58.866
0.39394,58.67
0.39003,58.475
0.3871,58.279
0.38319,58.67
0.38123,59.844
0.3783,62.582
0.37537,67.08
0.37243,73.533
0.36852,81.552
0.36559,90.157
0.36168,98.175
0.35777,105.61
0.35386,112.26
0.34995,117.73
0.34702,121.64
0.34311,124.19
0.3392,125.55
0.33627,125.75
0.33431,125.16
0.33138,123.79
0.32845,122.03
0.32551,119.88
0.3216,117.73
0.31867,115.19
0.31476,112.65
0.31183,109.71
0.3089,106.58
0.30499,103.06
0.30205,99.544
0.3001,95.632
0.29814,91.917
0.29521,88.201
0.29228,84.876
0.28837,82.138
0.28641,79.987
0.28641,78.031
0.28935,76.662
0.29814,75.489
0.31476,74.707
0.3392,74.12
0.37243,73.729
0.41153,73.533
0.45064,73.338
0.48876,73.142
0.53275,73.142
0.57771,73.142
0.61975,73.142
0.65787,73.142
0.69013,72.947
0.71652,72.751
0.73705,72.555
0.75171,72.164
0.76051,71.773
0.7654,71.382
0.7654,70.795
0.76149,70.404
0.75562,69.818
0.74682,69.231
0.73509,68.644
0.72043,68.057
0.70283,67.471
0.68328,66.884
0.66178,66.297
0.63832,65.906
0.61486,65.515
0.5914,64.928
0.56891,64.537
0.54839,63.95
0.53079,63.364
0.5132,62.973
0.4956,62.386
0.48094,61.799
0.46725,61.408
0.45455,60.821
0.44477,60.235
0.435,59.844
0.42717,59.452
0.42131,58.866
0.41544,58.475
0.41056,58.083
0.40665,57.692
0.40274,57.497
0.39883,57.497
0.39394,57.888
0.39003,59.061
0.38514,61.799
0.38025,66.493
0.37537,73.338
0.37048,81.552
0.36461,90.157
0.35973,98.37
0.35386,106
0.34995,112.45
0.34604,117.73
0.34115,121.45
0.33627,123.99
0.33138,125.16
0.32649,125.16
0.3216,124.38
0.31672,123.01
0.31183,121.06
0.30694,118.71
0.30205,116.36
0.29717,113.62
0.29326,110.89
0.29032,107.76
0.28641,104.24
0.2825,100.72
0.27761,96.61
0.2737,92.699
0.26979,88.788
0.26491,85.267
0.261,82.138
0.25611,79.4
0.25318,77.249
0.25318,75.489
0.25709,74.12
0.26491,73.142
0.27761,72.36
0.29912,71.969
0.3304,71.773
0.36852,71.578
0.41251,71.578
0.46041,71.578
0.50929,71.578
0.55621,71.578
0.59824,71.578
0.63539,71.578
0.66667,71.382
0.68817,71.382
0.70283,70.991
0.71457,70.795
0.72239,70.404
0.72727,70.013
0.72727,69.426
0.72336,68.84
0.71554,68.253
0.70577,67.862
0.69208,67.275
0.67546,66.688
0.65689,66.297
0.63734,65.711
0.61877,65.319
0.59629,64.928
0.57283,64.342
0.54936,63.95
0.5259,63.364
0.50342,62.973
0.48192,62.386
0.46237,61.995
0.44575,61.408
0.43011,60.821
0.4174,60.43
0.40665,59.844
0.39785,59.452
0.39101,58.866
0.38514,58.475
0.37928,57.888
0.37439,57.497
0.3695,57.106
0.36559,56.715
0.3607,56.519
0.35679,56.519
0.35386,56.715
0.34995,57.497
0.34506,59.257
0.34213,62.973
0.3392,68.449
0.33529,75.685
0.33138,83.703
0.32747,91.721
0.32258,98.957
0.31867,105.41
0.31476,110.89
0.30987,115.19
0.30596,118.12
0.30205,119.69
0.29717,120.27
0.29326,119.88
0.29032,118.71
0.28739,116.95
0.28446,114.8
0.28055,112.45
0.27664,109.71
0.27273,106.78
0.26882,103.46
0.26491,99.935
0.261,96.219
0.25709,92.112
0.25415,88.201
0.25024,84.485
0.24731,81.16
0.24536,78.227
0.2434,75.88
0.24047,73.924
0.23851,72.36
0.23949,71.382
0.24536,70.6
0.25709,70.013
0.27664,69.622
0.30401,69.426
0.3392,69.426
0.38123,69.426
0.42717,69.426
0.46823,69.426
0.50538,69.426
0.54643,69.622
0.58456,69.622
0.61877,69.426
0.64712,69.231
0.6696,69.035
0.68622,68.84
0.69697,68.644
0.70283,68.253
0.70479,67.666
0.70088,67.275
0.69501,66.688
0.68524,66.297
0.67253,65.711
0.65689,65.124
0.63832,64.733
0.61779,64.342
0.59531,63.755
0.57185,63.364
0.54839,62.973
0.52493,62.582
0.50147,62.19
0.47996,61.799
0.46041,61.213
0.44477,60.821
0.43109,60.235
0.41838,59.844
0.40665,59.257
0.39589,58.866
0.3871,58.279
0.38025,57.888
0.37537,57.497
0.37146,56.91
0.36755,56.519
0.36364,56.128
0.35973,55.737
0.35777,55.541
0.35582,55.541
0.35386,55.541
0.35093,56.128
0.348,57.692
0.34506,60.43
0.34213,65.319
0.33822,71.773
0.33431,79.4
0.3304,87.027
0.32747,94.263
0.32356,100.91
0.31965,106.58
0.31672,111.08
0.31476,114.41
0.31183,116.36
0.30792,117.34
0.30499,117.34
0.30205,116.36
0.29814,114.8
0.29521,112.84
0.2913,110.5
0.28837,107.76
0.28446,104.82
0.28152,101.69
0.27957,98.175
0.27761,94.459
0.27468,90.548
0.27175,86.636
0.26882,82.921
0.26491,79.791
0.26197,77.054
0.25904,74.707
0.25611,72.751
0.25415,71.382
0.25415,70.404
0.25904,69.426
0.26882,69.035
0.28152,68.644
0.3001,68.449
0.32747,68.449
0.36168,68.449
0.40176,68.449
0.44477,68.449
0.48876,68.449
0.53079,68.449
0.56989,68.449
0.60313,68.449
0.63148,68.449
0.65396,68.253
0.66862,67.862
0.6784,67.666
0.68426,67.275
0.68719,66.884
0.68622,66.297
0.68231,65.906
0.67351,65.515
0.66276,64.928
0.64809,64.537
0.63148,64.146
0.61193,63.559
0.59042,63.168
0.56891,62.777
0.54936,62.386
0.53079,61.995
0.51026,61.604
0.49071,61.017
0.47214,60.626
0.45552,60.235
0.44086,59.648
0.42717,59.257
0.41544,58.67
0.40567,58.279
0.39785,57.888
0.39101,57.301
0.38514,56.91
0.38123,56.519
0.37732,55.932
0.37341,55.541
0.37048,55.346
0.36755,55.15
0.36461,54.954
0.3607,55.15
0.35777,55.737
0.35484,57.301
0.35191,60.235
0.348,65.124
0.34506,71.578
0.34213,79.205
0.34018,87.027
0.33724,94.068
0.33431,100.72
0.3304,106.19
0.32649,110.69
0.32356,114.02
0.31965,116.17
0.31672,117.14
0.31281,117.14
0.3089,116.17
0.30596,114.8
0.30303,112.65
0.30108,110.3
0.29814,107.76
0.29521,104.82
0.2913,101.69
0.28739,98.175
0.28446,94.655
0.28055,90.743
0.27761,86.832
0.27468,83.116
0.27077,79.791
0.26784,77.054
0.26393,74.707
0.26197,72.751
0.26197,71.382
0.26197,70.209
0.26491,69.426
0.2737,68.84
0.28837,68.644
0.30987,68.449
0.34018,68.253
0.37634,68.253
0.41838,68.253
0.46237,68.253
0.50635,68.449
0.5435,68.449
0.57478,68.449
0.60606,68.253
0.63441,68.253
0.65787,68.057
0.67546,67.862
0.68817,67.471
0.69697,67.08
0.6999,66.688
0.69892,66.297
0.69404,65.906
0.68524,65.319
0.67449,64.928
0.66178,64.537
0.64614,63.95
0.62757,63.559
0.60704,63.168
0.58456,62.777
0.56207,62.386
0.53959,61.995
0.51808,61.604
0.49756,61.213
0.47801,60.626
0.46139,60.235
0.44575,59.844
0.43402,59.257
0.42424,58.866
0.41447,58.279
0.40665,57.888
0.39883,57.497
0.39296,56.91
0.3871,56.519
0.38221,56.128
0.3783,55.737
0.37439,55.346
0.37146,55.15
0.36755,54.954
0.36559,55.15
0.36266,55.932
0.3607,57.692
0.35777,61.017
0.35386,66.297
0.35093,73.338
0.34702,81.16
0.34311,88.983
0.34018,96.415
0.33627,102.87
0.33236,108.54
0.32845,112.84
0.32551,115.97
0.32258,117.93
0.32063,118.71
0.31769,118.71
0.31476,117.73
0.31085,116.17
0.30792,114.21
0.30401,111.86
0.30108,109.32
0.29717,106.58
0.29423,103.46
0.29032,100.13
0.28739,96.415
0.28446,92.503
0.2825,88.788
0.27957,84.876
0.27664,81.356
0.27273,78.227
0.26979,75.88
0.26588,73.729
0.26393,72.164
0.26491,70.991
0.26979,70.013
0.27957,69.426
0.29814,69.035
0.32356,68.84
0.35093,68.644
0.38221,68.644
0.42131,68.644
0.46432,68.84
0.50929,68.84
0.5523,68.84
0.5914,68.84
0.62659,68.84
0.65494,68.644
0.6784,68.449
0.69599,68.253
0.70772,68.057
0.71359,67.666
0.71554,67.275
0.71457,66.884
0.70968,66.297
0.70186,65.906
0.6911,65.319
0.67742,64.928
0.6608,64.537
0.64125,64.146
0.62072,63.559
0.59824,63.168
0.57478,62.777
0.55132,62.386
0.53079,61.995
0.5132,61.604
0.49462,61.213
0.47605,60.626
0.45943,60.235
0.44477,59.844
0.43206,59.257
0.42131,58.866
0.41153,58.475
0.40371,58.083
0.39687,57.692
0.39101,57.106
0.3871,56.91
0.38416,56.519
0.38025,56.128
0.37732,55.932
0.37439,55.932
0.37048,56.323
0.36755,57.497
0.36461,59.844
0.3607,63.95
0.35777,70.013
0.35386,77.64
0.35093,85.658
0.34702,93.286
0.34506,100.33
0.34311,106.58
0.34115,111.86
0.33724,115.78
0.33333,118.51
0.3304,120.08
0.32649,120.47
0.32258,120.08
0.31867,118.9
0.31476,117.14
0.31183,115.19
0.30792,113.04
0.30499,110.5
0.30303,107.76
0.3001,104.82
0.29717,101.5
0.29423,97.979
0.29032,94.068
0.28739,90.352
0.28348,86.636
0.28055,83.312
0.27664,80.378
0.2737,78.031
0.27077,76.076
0.27077,74.511
0.27273,73.338
0.27957,72.555
0.2913,71.969
0.31183,71.578
0.3392,71.382
0.37537,71.382
0.4174,71.382
0.46432,71.382
0.5132,71.578
0.56012,71.578
0.60508,71.578
0.64418,71.578
0.67449,71.578
0.69697,71.382
0.7175,71.186
0.73412,70.795
0.74585,70.6
0.75367,70.209
0.7566,69.622
0.75464,69.231
0.74976,68.84
0.74096,68.253
0.72923,67.862
0.71359,67.471
0.69599,66.884
0.67742,66.493
0.65885,66.102
0.63734,65.711
0.61388,65.124
0.5914,64.733
0.56794,64.342
0.54643,63.95
0.5259,63.364
0.50733,62.973
0.49169,62.386
0.47703,61.995
0.46432,61.408
0.45552,61.017
0.4477,60.626
0.43988,60.039
0.43402,59.648
0.42815,59.257
0.42424,58.866
0.42033,58.475
0.41642,58.279
0.41349,58.083
0.40958,58.279
0.40665,58.866
0.40371,60.626
0.3998,64.342
0.39687,69.818
0.39492,77.249
0.39101,85.463
0.38807,93.677
0.38416,101.3
0.38025,108.15
0.37732,114.02
0.37341,118.51
0.3695,121.45
0.36559,123.21
0.36168,123.79
0.35777,123.6
0.35582,122.43
0.35288,120.86
0.34995,118.9
0.34702,116.75
0.34311,114.41
0.3392,111.86
0.33627,108.93
0.33236,105.8
0.32845,102.48
0.32454,98.957
0.32063,95.046
0.31672,91.33
0.31378,87.614
0.31085,84.485
0.3089,81.552
0.30596,79.205
0.30401,77.249
0.30401,75.88
0.3089,74.707
0.31867,73.729
0.33627,73.338
0.36168,72.947
0.39589,72.555
0.43597,72.555
0.48094,72.555
0.52199,72.555
0.56012,72.555
0.60117,72.555
0.64027,72.36
0.67546,72.164
0.70479,72.164
0.72923,71.773
0.74682,71.578
0.75953,71.186
0.76735,70.6
0.77028,70.209
0.76931,69.622
0.76442,69.035
0.7566,68.644
0.74585,68.057
0.73216,67.471
0.71652,67.08
0.69795,66.493
0.67644,66.102
0.65396,65.711
0.6305,65.124
0.60704,64.733
0.5826,64.342
0.55914,63.755
0.53763,63.364
0.51906,62.777
0.50342,62.386
0.4868,61.799
0.47214,61.213
0.45943,60.626
0.4477,60.039
0.43793,59.648
0.42913,59.257
0.42131,58.866
0.41544,58.279
0.40958,57.888
0.40371,57.692
0.3998,57.301
0.39589,57.301
0.39198,57.497
0.38807,58.279
0.38319,60.039
0.3783,63.755
0.37439,69.622
0.3695,76.858
0.36461,85.072
0.35973,93.286
0.35386,100.72
0.34897,107.37
0.34409,113.04
0.34018,117.14
0.33724,120.08
0.33333,121.64
0.32942,122.23
0.32551,121.84
0.32063,120.67
0.31672,118.9
0.31281,116.75
0.30792,114.41
0.30401,111.86
0.29912,108.93
0.29423,105.8
0.2913,102.48
0.28837,98.761
0.28543,95.046
0.28152,91.134
0.27761,87.419
0.2737,83.703
0.26979,80.769
0.26588,78.227
0.26197,76.076
0.25904,74.511
0.26002,73.142
0.26491,72.36
0.27664,71.773
0.29228,71.382
0.31281,71.186
0.34311,70.991
0.38221,70.991
0.4262,70.991
0.47312,70.991
0.52004,70.991
0.565,70.991
0.60606,70.991
0.64125,70.795
0.67058,70.6
0.69306,70.404
0.70772,70.209
0.71652,69.818
0.72239,69.426
0.72434,68.84
0.72239,68.449
0.7175,67.862
0.7087,67.471
0.69697,66.884
0.68231,66.493
0.66373,65.906
0.64418,65.515
0.6217,65.124
0.59824,64.537
0.57674,64.146
0.55621,63.755
0.5347,63.168
0.5132,62.777
0.49267,62.386
0.4741,61.799
0.4565,61.213
0.44184,60.821
0.42913,60.235
0.4174,59.844
0.40762,59.257
0.39883,58.866
0.39296,58.279
0.38807,57.888
0.38319,57.497
0.37928,57.106
0.37439,56.91
0.37048,56.715
0.36755,56.519
0.36364,56.715
0.35973,57.497
0.35679,59.061
0.35288,62.386
0.34897,67.275
0.34506,73.924
0.34213,81.552
0.3392,89.374
0.33529,96.61
0.33138,102.87
0.32747,108.34
0.32356,112.65
0.31965,115.78
0.31574,117.54
0.31281,118.12
0.3089,117.93
0.30499,116.95
0.30108,115.38
0.29814,113.23
0.29619,110.89
0.29326,108.15
0.28935,105.02
0.28543,101.69
0.28152,98.175
0.27761,94.459
0.27273,90.548
0.26588,86.636
0.261,83.116
0.25611,79.987
0.2522,77.445
0.24927,75.098
0.24731,73.338
0.24633,72.164
0.24633,70.991
0.24927,70.404
0.25806,69.818
0.27175,69.426
0.29423,69.426
0.32356,69.426
0.35973,69.426
0.40176,69.426
0.44575,69.426
0.48974,69.426
0.52688,69.426
0.55914,69.426
0.59042,69.426
0.61877,69.231
0.64223,69.035
0.6608,68.84
0.67351,68.449
0.68133,68.057
0.68426,67.666
0.68231,67.275
0.67742,66.688
0.66764,66.102
0.65494,65.711
0.64125,65.319
0.62561,64.733
0.60802,64.342
0.58749,63.95
0.565,63.559
0.54252,63.168
0.52102,62.777
0.49951,62.19
0.47898,61.799
0.45943,61.408
0.44282,60.821
0.42815,60.235
0.41642,59.844
0.40665,59.452
0.39785,58.866
0.38905,58.475
0.38221,57.888
0.37537,57.497
0.37048,57.106
0.36559,56.715
0.36168,56.323
0.35875,55.932
0.35582,55.932
0.35288,55.932
0.34995,56.323
0.34702,57.106
0.34506,59.257
0.34213,62.973
0.3392,68.449
0.33627,75.293
0.33236,82.921
0.32845,90.352
0.32551,97.001
0.3216,103.06
0.31769,108.15
0.31378,111.86
0.31085,114.6
0.30792,115.97
0.30596,116.36
0.30303,116.17
0.3001,114.99
0.29717,113.23
0.29423,111.08
0.29032,108.54
0.28641,105.61
0.28348,102.67
0.27957,99.348
0.27664,95.632
0.27273,91.917
0.27077,88.005
0.26882,84.289
0.26588,80.965
0.26295,78.031
0.26002,75.685
0.25611,73.729
0.25318,72.164
0.2522,70.991
0.2522,70.209
0.25709,69.622
0.26784,69.231
0.28543,69.035
0.31085,69.035
0.33822,69.035
0.36852,68.84
0.40665,68.84
0.44868,69.035
0.49169,69.035
0.53372,69.035
0.57185,69.035
0.60508,68.84
0.63343,68.84
0.65591,68.449
0.67155,68.253
0.68231,67.862
0.68719,67.471
0.68817,67.08
0.68524,66.688
0.67937,66.102
0.67058,65.711
0.65787,65.319
0.64223,64.733
0.62366,64.342
0.60313,63.95
0.58162,63.559
0.55914,63.168
0.53666,62.777
0.51515,62.386
0.4956,61.995
0.47898,61.408
0.46237,61.017
0.44673,60.626
0.43206,60.039
0.41935,59.648
0.4086,59.061
0.3998,58.67
0.39198,58.279
0.38514,57.692
0.37928,57.301
0.37537,56.91
0.37146,56.519
0.36852,56.128
0.36559,55.932
0.36266,55.737
0.35973,55.932
0.35679,56.519
0.35288,58.083
0.34995,61.017
0.34702,65.906
0.34409,72.36
0.34018,79.987
0.33724,87.81
0.33333,95.046
0.3304,101.5
0.32845,107.17
0.32551,111.86
0.3216,114.99
0.31867,117.14
0.31476,118.12
0.31183,118.12
0.30792,117.34
0.30499,115.97
0.30108,114.02
0.29814,111.67
0.29423,108.93
0.29228,106.19
0.29032,103.06
0.28739,99.544
0.28446,96.024
0.28152,91.917
0.27761,88.005
0.2737,84.289
0.27077,80.965
0.26686,78.227
0.26295,75.88
0.26002,73.924
0.25709,72.36
0.25709,71.382
0.26002,70.6
0.26588,70.013
0.27859,69.622
0.29814,69.622
0.32551,69.426
0.35973,69.426
0.3998,69.622
0.44379,69.622
0.48974,69.622
0.53372,69.818
0.5738,69.818
0.60997,69.622
0.63734,69.622
0.65787,69.426
0.67546,69.231
0.69013,68.84
0.6999,68.449
0.70479,68.057
0.70479,67.666
0.70088,67.275
0.69404,66.688
0.68231,66.297
0.66862,65.906
0.65103,65.319
0.63148,64.928
0.61193,64.537
0.59335,64.146
0.57185,63.755
0.54936,63.168
0.52688,62.777
0.50538,62.386
0.48485,61.799
0.46628,61.408
0.44966,60.821
0.43597,60.43
0.42326,59.844
0.41251,59.452
0.40469,59.061
0.39785,58.475
0.39198,58.083
0.38612,57.692
0.38123,57.106
0.37732,56.91
0.37243,56.519
0.3695,56.323
0.36559,56.519
0.36266,56.91
0.35973,58.083
0.35679,60.43
0.35288,64.733
0.35093,70.991
0.348,78.422
0.34506,86.441
0.34213,94.068
0.33822,100.91
0.33431,107.17
0.3304,112.06
0.32649,115.97
0.32258,118.51
0.31965,119.88
0.31574,120.08
0.31183,119.49
0.30987,118.32
0.30792,116.56
0.30499,114.41
0.30108,111.86
0.29814,109.32
0.29423,106.39
0.29032,103.06
0.28739,99.739
0.28348,96.024
0.27957,92.112
0.27566,88.201
0.27175,84.485
0.26882,81.356
0.26588,78.618
0.26393,76.467
0.26197,74.707
0.26002,73.338
0.261,72.164
0.26686,71.578
0.27761,70.991
0.29619,70.795
0.32258,70.6
0.35582,70.6
0.39589,70.6
0.43988,70.6
0.47996,70.6
0.52395,70.6
0.57478,70.6
0.62072,70.795
0.65885,70.6
0.6911,70.6
0.71554,70.404
0.73412,70.209
0.74682,69.818
0.75464,69.426
0.7566,69.035
0.75367,68.644
0.74682,68.253
0.73803,67.862
0.7263,67.275
0.71065,66.884
0.69208,66.493
0.67058,66.102
0.64712,65.711
0.62268,65.319
0.59824,64.928
0.57283,64.537
0.54936,63.95
0.5259,63.559
0.50538,63.168
0.48778,62.582
0.4741,62.19
0.46041,61.799
0.4477,61.408
0.43597,60.821
0.4262,60.43
0.41838,60.039
0.41056,59.648
0.40469,59.061
0.3998,58.67
0.39492,58.279
0.39101,58.279
0.38807,58.279
0.38514,58.475
0.38319,59.648
0.38025,61.995
0.37732,66.297
0.37341,72.555
0.37048,80.183
0.36657,88.396
0.36266,96.415
0.35973,103.85
0.35582,110.3
0.35191,115.58
0.348,119.49
0.34506,122.23
0.34311,123.79
0.34018,124.19
0.33627,123.79
0.33333,122.43
0.32942,120.86
0.32649,118.71
0.32258,116.36
0.31965,113.82
0.31574,111.28
0.31281,108.15
0.3089,105.02
0.30694,101.3
0.30499,97.588
0.30205,93.677
0.3001,89.961
0.29619,86.441
0.29326,83.507
0.28935,80.965
0.28641,79.009
0.28543,77.445
0.28641,76.271
0.29326,75.293
0.30499,74.707
0.32551,74.316
0.34995,74.12
0.3783,74.12
0.4174,74.12
0.46237,74.12
0.51124,74.316
0.56109,74.316
0.60802,74.316
0.65103,74.12
0.68915,74.12
0.72043,73.924
0.74487,73.729
0.76344,73.338
0.77419,72.947
0.77908,72.555
0.78201,72.164
0.78104,71.578
0.77615,70.991
0.76833,70.6
0.75758,70.013
0.74291,69.622
0.72532,69.231
0.70577,68.644
0.68426,68.253
0.6608,67.862
0.63636,67.471
0.61486,66.884
0.59433,66.297
0.57283,65.906
0.5523,65.319
0.53275,64.733
0.51515,64.342
0.49951,63.755
0.48583,63.168
0.47507,62.582
0.4653,61.995
0.4565,61.408
0.44966,61.017
0.44477,60.43
0.43988,59.844
0.43597,59.452
0.43206,59.257
0.42815,59.061
0.42424,59.452
0.42033,60.43
0.41642,62.777
0.41251,67.275
0.4086,73.729
0.40469,81.747
0.40078,90.157
0.39589,98.37
0.39296,105.61
0.38905,112.26
0.38514,117.73
0.38123,121.84
0.37732,124.38
0.37341,125.75
0.3695,125.95
0.36461,125.36
0.3607,123.99
0.35679,122.23
0.35191,120.08
0.348,117.73
0.34409,115.19
0.34115,112.65
0.33822,109.52
0.33333,106.39
0.32942,102.67
0.32551,98.761
0.32063,94.85
0.31672,90.939
0.31281,87.223
0.30792,84.094
0.30303,81.16
0.29912,79.009
0.29717,77.249
0.29717,75.88
0.30108,75.098
0.30987,74.316
0.32649,73.924
0.35191,73.533
0.38514,73.533
0.4262,73.533
0.47214,73.533
0.52102,73.533
0.56891,73.533
0.61388,73.533
0.65396,73.533
0.68524,73.338
0.70772,73.142
0.72825,72.751
0.74389,72.555
0.75562,72.164
0.76149,71.578
0.76442,71.186
0.76246,70.6
0.7566,70.013
0.74682,69.426
0.73412,68.84
0.71848,68.253
0.6999,67.862
0.68133,67.275
0.66178,66.884
0.6393,66.297
0.61584,65.906
0.59042,65.515
0.56598,65.124
0.54252,64.537
0.52004,63.95
0.49853,63.559
0.47996,62.973
0.46334,62.386
0.44966,61.799
0.43891,61.408
0.43011,60.821
0.42131,60.235
0.41349,59.844
0.40762,59.452
0.40176,59.061
0.39589,58.67
0.39101,58.279
0.3871,58.083
0.38221,58.083
0.3783,58.475
0.37439,59.844
0.3695,62.386
0.36657,66.688
0.36266,73.338
0.35875,81.16
0.35484,89.57
0.34995,97.588
0.34506,104.82
0.34018,111.28
0.33529,116.36
0.33138,120.27
0.32649,122.62
0.32258,123.99
0.31867,124.19
0.31574,123.4
0.31281,122.03
0.30987,120.08
0.30596,117.93
0.30205,115.19
0.29814,112.45
0.29423,109.52
0.29032,106.19
0.28543,102.67
0.28152,98.761
0.27761,94.85
0.2737,90.743
0.26979,87.027
0.26686,83.703
0.26491,80.769
0.26197,78.227
0.25904,76.467
0.25806,75.098
0.25806,73.924
0.26393,73.142
0.27468,72.555
0.29521,72.164
0.32356,72.164
0.35973,71.969
0.40371,71.969
0.44575,71.969
0.48583,71.969
0.53079,71.969
0.57576,71.969
0.61681,71.773
0.65396,71.773
0.68328,71.578
0.70772,71.382
0.72434,70.991
0.73607,70.6
0.74194,70.209
0.74291,69.818
0.739,69.231
0.73216,68.84
0.72336,68.253
0.70968,67.862
0.69404,67.275
0.67546,66.884
0.65396,66.297
0.6305,65.906
0.6002,65.515
0.56696,64.928
0.53861,64.537
0.5132,64.146
0.49071,63.559
0.47214,62.973
0.4565,62.386
0.44184,61.995
0.42717,61.408
0.41544,60.821
0.40371,60.43
0.39492,59.844
0.3871,59.452
0.38025,59.061
0.37439,58.475
0.3695,58.279
0.36559,57.888
0.36168,57.497
0.35875,57.497
0.35582,57.692
0.35288,58.279
0.34995,59.452
0.34604,62.19
0.34311,66.493
0.3392,72.555
0.33529,79.987
0.33138,87.614
0.32747,95.046
0.32356,101.69
0.31965,107.37
0.31769,112.06
0.31476,115.58
0.31183,117.73
0.3089,118.9
0.30499,118.9
0.30108,118.12
0.29717,116.56
0.29423,114.8
0.29032,112.26
0.28641,109.71
0.2825,106.78
0.27859,103.65
0.27664,100.13
0.27468,96.415
0.27175,92.308
0.26882,88.396
0.26491,84.681
0.26197,81.356
0.25806,78.618
0.25513,76.271
0.2522,74.316
0.24927,72.947
0.24829,71.969
0.25024,71.186
0.25709,70.6
0.26686,70.404
0.28152,70.209
0.30499,70.209
0.33627,70.209
0.37341,70.209
0.41544,70.209
0.45943,70.209
0.50342,70.404
0.54545,70.404
0.5826,70.209
0.61486,70.013
0.64125,69.818
0.65885,69.622
0.67058,69.231
0.67937,69.035
0.68426,68.644
0.68524,68.057
0.68231,67.666
0.67546,67.275
0.66471,66.688
0.65005,66.297
0.63343,65.906
0.61388,65.319
0.59335,64.928
0.57087,64.537
0.55034,64.146
0.53079,63.559
0.51026,63.168
0.48974,62.777
0.47019,62.19
0.45161,61.799
0.435,61.213
0.42131,60.821
0.4086,60.235
0.39883,59.844
0.39003,59.257
0.38221,58.866
0.37732,58.279
0.37341,57.888
0.36852,57.497
0.36559,57.106
0.36168,56.91
0.35875,56.715
0.35582,56.91
0.35288,57.301
0.34995,58.279
0.34702,60.626
0.34409,64.733
0.34018,70.6
0.33724,78.031
0.33431,85.854
0.33236,93.286
0.32942,100.33
0.32649,106.58
0.32258,111.67
0.31965,115.58
0.31574,118.12
0.31281,119.49
0.3089,119.88
0.30596,119.49
0.30205,118.12
0.29912,116.36
0.29619,114.02
0.29423,111.67
0.2913,108.74
0.28837,105.61
0.28543,102.28
0.28152,98.37
0.27761,94.459
0.27468,90.548
0.27077,86.636
0.26784,82.921
0.26491,79.987
0.261,77.249
0.25806,75.293
0.25611,73.533
0.25513,72.36
0.25611,71.578
0.26002,70.991
0.26882,70.6
0.28543,70.404
0.3089,70.404
0.34018,70.404
0.3783,70.404
0.42131,70.404
0.46725,70.6
0.5132,70.6
0.55132,70.6
0.58358,70.6
0.61486,70.6
0.64418,70.404
0.66764,70.013
0.68622,69.818
0.69892,69.426
0.70577,69.035
0.7087,68.644
0.70674,68.057
0.70088,67.666
0.69013,67.275
0.67742,66.688
0.66276,66.297
0.64614,65.906
0.62659,65.515
0.60508,64.928
0.58162,64.537
0.55816,64.146
0.5347,63.755
0.51222,63.168
0.49071,62.777
0.47116,62.386
0.45357,61.799
0.43793,61.213
0.4262,60.821
0.41642,60.235
0.40762,59.844
0.39883,59.452
0.39198,58.866
0.38612,58.475
0.38123,58.083
0.37634,57.692
0.37243,57.301
0.36852,57.106
0.36559,57.106
0.36266,57.692
0.35973,58.67
0.35679,61.213
0.35484,65.319
0.35191,71.382
0.34897,78.814
0.34604,86.832
0.34213,94.459
0.33822,101.5
0.33529,107.76
0.33138,112.84
0.32747,116.95
0.32454,119.49
0.32063,121.06
0.31769,121.45
0.31574,121.06
0.31281,119.69
0.30987,117.93
0.30596,115.78
0.30303,113.43
0.29912,110.69
0.29521,107.76
0.2913,104.63
0.28739,101.11
0.28446,97.393
0.28055,93.481
0.27664,89.374
0.27468,85.854
0.27273,82.529
0.26979,79.791
0.26686,77.445
0.26295,75.489
0.261,74.12
0.26197,73.142
0.26588,72.36
0.27566,71.773
0.29228,71.578
0.31769,71.382
0.34995,71.186
0.38319,71.186
0.41838,71.186
0.46041,71.186
0.50538,71.382
0.54936,71.382
0.59042,71.186
0.62659,71.186
0.65689,70.991
0.68133,70.795
0.6999,70.6
0.71261,70.404
0.71945,70.013
0.72239,69.426
0.72043,69.035
0.71457,68.644
0.70674,68.057
0.69501,67.666
0.68035,67.08
0.66276,66.688
0.64223,66.102
0.62072,65.711
0.59726,65.319
0.5738,64.928
0.55034,64.342
0.52688,63.95
0.50733,63.364
0.48974,62.973
0.47312,62.386
0.4565,61.799
0.44184,61.408
0.42913,60.821
0.41838,60.43
0.4086,59.844
0.40078,59.452
0.39394,59.061
0.38807,58.67
0.38221,58.279
0.3783,57.888
0.37537,57.692
0.37439,57.692
0.37439,58.083
0.37341,59.257
0.37048,61.408
0.36755,65.711
0.36461,72.164
0.3607,79.791
0.35679,88.201
0.35386,96.219
0.34995,103.46
0.34604,110.1
0.34311,115.38
0.34018,119.49
0.33724,122.43
0.33333,123.99
0.32942,124.58
0.32551,124.19
0.3216,123.01
0.31769,121.45
0.31378,119.49
0.30987,117.14
0.30596,114.8
0.30205,111.86
0.29912,108.93
0.29717,105.61
0.29326,101.89
0.29032,97.979
0.28641,94.068
0.2825,90.157
0.27859,86.441
0.27468,83.312
0.27077,80.574
0.26784,78.422
0.26588,76.662
0.26588,75.489
0.27077,74.511
0.27957,73.729
0.29326,73.338
0.31672,73.142
0.348,72.947
0.3871,72.947
0.43304,72.947
0.48192,72.947
0.53177,73.142
0.57967,73.142
0.62268,73.142
0.66178,73.142
0.69306,72.947
0.71652,72.751
0.73118,72.555
0.74389,72.36
0.75269,71.969
0.75758,71.578
0.75758,71.186
0.75464,70.6
0.74682,70.209
0.73509,69.622
0.72141,69.231
0.70381,68.644
0.68328,68.253
0.6608,67.862
0.6393,67.471
0.61877,66.884
0.59531,66.493
0.57087,65.906
0.54643,65.515
0.52395,64.928
0.50244,64.537
0.48387,64.146
0.46628,63.559
0.45161,62.973
0.43891,62.582
0.42815,62.19
0.42033,61.604
0.41349,61.213
0.40762,60.821
0.40176,60.43
0.39687,60.039
0.39296,59.844
0.38905,59.844
0.38514,60.039
0.38221,61.213
0.37928,63.559
0.37537,67.862
0.37243,74.12
0.36852,81.943
0.36559,90.352
0.36364,98.566
0.3607,106.19
0.35679,112.84
0.35386,118.51
0.34995,122.62
0.34604,125.55
0.34311,127.12
0.3392,127.51
0.33627,126.92
0.33236,125.75
0.32942,123.99
0.32649,121.84
0.32454,119.49
0.3216,117.14
0.31867,114.6
0.31574,111.67
0.31183,108.54
0.3089,105.02
0.30499,101.3
0.30205,97.393
0.29912,93.481
0.29521,89.765
0.29228,86.441
0.28837,83.703
0.28641,81.356
0.28543,79.596
0.28641,78.227
0.29032,77.249
0.29912,76.662
0.31574,76.076
0.34018,75.88
0.37341,75.685
0.41349,75.685
0.45943,75.685
0.50831,75.685
0.55718,75.88
0.59824,75.88
0.63343,75.88
0.66764,75.685
0.69892,75.489
0.72532,75.293
0.74487,74.902
0.75953,74.316
0.76833,73.924
0.77224,73.338
0.77224,72.555
0.76833,71.969
0.76149,71.382
0.75073,70.6
0.73803,70.013
0.72336,69.426
0.70479,69.035
0.68524,68.449
0.66276,68.057
0.6393,67.471
0.61486,67.08
0.5914,66.493
0.56794,66.102
0.54545,65.711
0.5259,65.124
0.50733,64.537
0.49267,64.146
0.47996,63.559
0.46823,62.973
0.45748,62.386
0.44868,61.799
0.44086,61.408
0.43402,60.821
0.42815,60.43
0.42326,60.039
0.41838,59.844
0.41447,59.648
0.40958,59.844
0.40567,60.626
0.40274,62.973
0.3998,66.884
0.39589,73.142
0.39101,80.965
0.3871,89.765
0.38221,98.37
0.37732,106.19
0.37243,113.43
0.36755,119.3
0.36266,123.79
0.35777,126.92
0.35288,128.49
0.34897,128.88
0.34604,128.49
0.34213,127.12
0.33822,125.55
0.33333,123.4
0.32942,121.06
0.32454,118.71
0.31965,115.97
0.31574,112.84
0.31085,109.52
0.30596,106
0.30108,102.28
0.29619,98.37
0.29326,94.263
0.29032,90.352
0.28641,86.832
0.28152,83.898
0.27761,81.356
0.2737,79.4
0.27175,77.836
0.27468,76.662
0.2825,75.88
0.29717,75.293
0.32063,74.902
0.35386,74.707
0.38807,74.707
0.42424,74.707
0.46823,74.707
0.51515,74.707
0.56305,74.511
0.60704,74.511
0.64516,74.316
0.6784,74.12
0.70479,73.924
0.72434,73.533
0.73803,73.142
0.74585,72.555
0.74878,72.164
0.7478,71.578
0.74291,70.991
0.73509,70.404
0.72434,69.818
0.71163,69.231
0.69501,68.84
0.67546,68.253
0.65494,67.666
0.63148,67.275
0.60704,66.884
0.5826,66.493
0.55718,66.102
0.53568,65.515
0.51613,64.928
0.49658,64.537
0.47703,63.95
0.46041,63.364
0.44477,62.973
0.43011,62.386
0.41838,61.799
0.4086,61.213
0.3998,60.626
0.39198,60.235
0.38514,59.844
0.38123,59.452
0.37732,59.061
0.37341,58.866
0.3695,58.67
0.36461,58.866
0.3607,59.844
0.35679,61.995
0.35288,65.906
0.34897,71.773
0.34409,79.4
0.34018,87.81
0.33529,96.024
0.33138,103.65
0.32747,110.3
0.32454,116.17
0.3216,120.47
0.31769,123.21
0.31378,124.97
0.30987,125.55
0.30596,124.97
0.30205,123.79
0.29423,122.03
0.28543,120.08
0.27859,117.73
0.2737,114.99
0.26979,112.26
0.26784,108.93
0.26393,105.61
0.26002,101.89
0.25611,97.979
0.2522,93.872
0.24927,89.961
0.24536,86.245
0.24145,83.116
0.23754,80.378
0.2346,78.227
0.23167,76.467
0.23167,75.098
0.2346,74.12
0.24047,73.338
0.25318,72.947
0.2737,72.751
0.30205,72.555
0.3392,72.36
0.38123,72.36
0.42717,72.36
0.47507,72.36
0.52102,72.36
0.56305,72.36
0.6002,72.164
0.62757,72.164
0.64809,71.969
0.66569,71.578
0.67937,71.186
0.68915,70.795
0.69404,70.404
0.69404,70.013
0.6911,69.426
0.68328,68.84
0.67253,68.449
0.65885,67.862
0.64223,67.471
0.62268,66.884
0.60313,66.493
0.58456,65.906
0.56207,65.515
0.53861,65.124
0.51515,64.537
0.49267,64.146
0.47116,63.755
0.45064,63.168
0.43206,62.777
0.41642,62.19
0.40176,61.604
0.39003,61.017
0.38025,60.626
0.37341,60.039
0.36657,59.648
0.35973,59.257
0.35386,58.67
0.34897,58.279
0.34409,58.083
0.34018,57.888
0.33724,57.888
0.33333,58.083
0.3304,58.866
0.32649,60.821
0.32356,64.537
0.32063,70.013
0.31867,77.249
0.31574,85.463
0.31183,93.286
0.3089,100.72
0.30499,107.17
0.30108,112.84
0.29717,117.14
0.29326,120.27
0.29032,122.03
0.28641,122.62
0.28348,122.23
0.28055,121.06
0.27859,119.3
0.27566,117.14
0.27273,114.8
0.26979,112.06
0.26588,108.93
0.26295,105.8
0.25904,102.09
0.25611,98.37
0.2522,94.263
0.24927,90.352
0.24536,86.441
0.24242,82.921
0.23949,79.987
0.23851,77.64
0.23558,75.685
0.23265,74.12
0.23167,73.142
0.23363,72.164
0.24047,71.773
0.25318,71.382
0.2737,71.186
0.30205,71.186
0.33822,71.186
0.38025,71.186
0.41935,71.186
0.45748,71.186
0.49951,71.186
0.54057,71.186
0.57869,71.186
0.61193,70.991
0.6393,70.795
0.6608,70.6
0.67644,70.209
0.68524,69.818
0.69013,69.426
0.69013,69.035
0.68524,68.449
0.6784,67.862
0.66764,67.471
0.65494,66.884
0.63832,66.493
0.61877,65.906
0.59726,65.515
0.57478,65.124
0.55132,64.537
0.52786,64.146
0.5044,63.755
0.48192,63.364
0.46139,62.777
0.44379,62.386
0.43011,61.799
0.41642,61.408
0.40274,60.821
0.39198,60.235
0.38221,59.844
0.37341,59.452
0.36657,58.866
0.3607,58.475
0.35484,58.083
0.35093,57.692
0.34702,57.301
0.34311,57.106
0.34018,57.106
0.33822,57.497
0.33529,58.475
0.33236,60.626
0.32942,64.537
0.32649,70.6
0.32356,78.031
0.31965,86.05
0.31672,93.872
0.31281,101.11
0.3089,107.56
0.30499,112.84
0.30303,116.95
0.3001,119.69
0.29717,121.25
0.29423,121.84
0.2913,121.45
0.28739,120.47
0.28446,118.71
0.28055,116.56
0.27761,114.21
0.2737,111.47
0.27077,108.54
0.26686,105.22
0.26295,101.69
0.261,97.979
0.25904,93.872
0.25611,89.961
0.25318,86.245
0.25024,82.725
0.24633,79.791
0.2434,77.445
0.23949,75.489
0.23754,73.924
0.23656,72.751
0.23949,71.969
0.24829,71.382
0.26002,70.991
0.27761,70.795
0.30401,70.6
0.3392,70.6
0.38025,70.6
0.42522,70.6
0.47214,70.6
0.51808,70.6
0.56109,70.6
0.59922,70.404
0.63148,70.404
0.65787,70.209
0.67546,69.818
0.68719,69.622
0.69501,69.231
0.6999,68.84
0.6999,68.253
0.69697,67.862
0.69013,67.275
0.67937,66.884
0.66471,66.297
0.64809,65.906
0.62854,65.319
0.60704,64.928
0.58358,64.537
0.56207,64.146
0.54154,63.559
0.52004,63.168
0.49756,62.777
0.47605,62.19
0.4565,61.799
0.43891,61.213
0.42229,60.821
0.4086,60.235
0.39687,59.844
0.38612,59.452
0.37732,59.061
0.37146,58.67
0.36559,58.279
0.3607,57.888
0.35582,57.497
0.35191,57.301
0.348,57.106
0.34409,57.301
0.34115,57.888
0.33724,59.257
0.33431,61.995
0.3304,66.688
0.32747,73.338
0.32356,81.16
0.3216,89.374
0.31867,97.001
0.31574,104.24
0.31281,110.3
0.3089,115.58
0.30499,119.3
0.30205,121.84
0.29814,123.21
0.29423,123.4
0.29032,122.82
0.28739,121.45
0.28348,119.69
0.28152,117.73
0.27859,115.19
0.27664,112.65
0.27273,109.71
0.26979,106.58
0.26686,103.06
0.26295,99.348
0.26002,95.437
0.25709,91.525
0.25318,87.614
0.25024,84.094
0.24731,81.16
0.24438,78.814
0.24242,76.858
0.24145,75.293
0.24829,74.12
0.26002,73.533
0.2737,72.947
0.29228,72.555
0.31769,72.555
0.35191,72.555
0.39394,72.555
0.44086,72.555
0.49071,72.555
0.54154,72.751
0.58358,72.751
0.61975,72.751
0.65591,72.555
0.68817,72.555
0.71554,72.36
0.73705,71.969
0.75171,71.578
0.76149,71.186
0.76637,70.795
0.76637,70.209
0.76246,69.818
0.75367,69.231
0.74194,68.84
0.72825,68.253
0.71261,67.862
0.69306,67.471
0.67155,66.884
0.64809,66.493
0.62366,66.102
0.59824,65.711
0.5738,65.124
0.54936,64.733
0.52786,64.342
0.50733,63.755
0.48974,63.168
0.47507,62.777
0.46334,62.19
0.45259,61.799
0.44282,61.408
0.43402,60.821
0.42717,60.43
0.42033,60.039
0.41544,59.648
0.41153,59.257
0.40762,59.061
0.40469,59.061
0.40176,59.257
0.39883,60.235
0.39687,62.582
0.39492,66.884
0.39198,73.338
0.38905,81.16
0.38612,89.765
0.38221,97.979
0.37928,105.61
0.37537,112.06
0.37243,117.73
0.36852,122.03
0.36559,124.77
0.36168,126.34
0.35973,126.73
0.35679,126.14
0.35484,124.77
0.35191,122.82
0.348,120.86
0.34506,118.32
0.34213,115.78
0.33822,113.23
0.33529,110.3
0.33138,106.98
0.32845,103.46
0.32454,99.739
0.3216,95.828
0.31965,91.917
0.31769,88.396
0.31476,85.072
0.31183,82.334
0.3089,79.987
0.30596,78.227
0.30499,76.662
0.30694,75.685
0.31574,74.902
0.33138,74.316
0.35484,73.924
0.38807,73.729
0.42131,73.729
0.45846,73.729
0.50244,73.533
0.55132,73.533
0.59922,73.533
0.64418,73.338
0.68426,73.142
0.71848,72.947
0.74487,72.555
0.7654,72.164
0.78006,71.773
0.78886,71.186
0.79277,70.6
0.79179,70.013
0.7869,69.426
0.77908,69.035
0.76931,68.449
0.75562,68.057
0.739,67.471
0.72043,67.08
0.69892,66.493
0.67546,66.102
0.65103,65.711
0.62659,65.124
0.60117,64.733
0.57967,64.146
0.56012,63.755
0.53959,63.168
0.52004,62.582
0.50244,61.995
0.48583,61.604
0.47116,61.017
0.45846,60.43
0.4477,60.039
0.43793,59.452
0.43011,59.061
0.42229,58.67
0.41544,58.279
0.41056,57.888
0.40665,57.692
0.40176,57.692
0.39687,58.083
0.39101,59.257
0.38612,61.995
0.38123,66.884
0.37634,73.729
0.37146,81.943
0.36657,90.548
0.3607,98.761
0.35582,106.19
0.35191,112.65
0.34897,117.93
0.34409,121.84
0.34018,124.38
0.33627,125.55
0.33138,125.75
0.32747,124.97
0.32258,123.6
0.31867,121.64
0.31378,119.49
0.30987,116.95
0.30596,114.41
0.30108,111.47
0.29814,108.34
0.29619,104.82
0.29228,101.11
0.28837,97.197
0.28446,93.286
0.28055,89.374
0.27664,85.658
0.27273,82.529
0.26784,79.791
0.26393,77.64
0.26197,75.88
0.261,74.511
0.26491,73.533
0.27175,72.947
0.28641,72.555
0.30987,72.164
0.34213,71.969
0.38221,71.969
0.42913,71.773
0.47996,71.773
0.53079,71.773
0.58065,71.773
0.62463,71.773
0.66373,71.578
0.69306,71.382
0.71359,71.186
0.73216,70.795
0.74585,70.404
0.75464,70.013
0.75855,69.426
0.75855,68.84
0.75367,68.253
0.74585,67.862
0.73509,67.275
0.71945,66.688
0.70186,66.297
0.68133,65.906
0.66178,65.319
0.64125,64.928
0.61779,64.537
0.59335,64.146
0.56794,63.559
0.5435,63.168
0.52004,62.582
0.49853,62.19
0.47801,61.604
0.46041,61.017
0.44477,60.626
0.43206,60.039
0.42131,59.648
0.41251,59.061
0.40469,58.67
0.39785,58.279
0.39101,57.692
0.38514,57.301
0.38025,56.91
0.37537,56.91
0.37146,56.715
0.36755,56.91
0.36364,57.888
0.35973,59.648
0.35582,63.364
0.35288,69.035
0.34995,76.467
0.34604,84.485
0.34213,92.503
0.33822,99.739
0.33333,106.19
0.32942,111.67
0.32454,115.78
0.32063,118.71
0.31672,120.27
0.31281,120.86
0.3089,120.47
0.30694,119.3
0.30401,117.54
0.30108,115.38
0.29814,113.04
0.29423,110.3
0.2913,107.37
0.28739,104.04
0.28348,100.52
0.28055,96.806
0.27664,92.894
0.27273,88.788
0.26882,85.072
0.26588,81.552
0.26295,78.814
0.261,76.467
0.25806,74.511
0.25513,72.947
0.25415,71.969
0.25513,70.991
0.261,70.6
0.27273,70.209
0.29326,70.013
0.32258,69.818
0.35973,69.818
0.40371,69.818
0.44477,70.013
0.48485,70.013
0.52981,70.013
0.57478,70.013
0.61584,69.818
0.65298,69.818
0.68231,69.426
0.70577,69.231
0.72336,68.84
0.72336,68.449
0.71261,68.057
0.70479,67.471
0.69697,67.08
0.68915,66.493
0.6784,66.102
0.66569,65.515
0.65005,65.124
0.63148,64.537
0.61193,64.146
0.58944,63.755
0.56696,63.364
0.5435,62.973
0.52102,62.582
0.49853,61.995
0.47801,61.604
0.46139,61.213
0.4477,60.626
0.43304,60.039
0.42033,59.648
0.4086,59.257
0.39883,58.67
0.39101,58.279
0.38319,57.692
0.37732,57.301
0.37146,56.91
0.36657,56.519
0.36266,56.128
0.35973,55.932
0.35679,55.932
0.35484,56.128
0.35191,56.91
0.34897,58.67
0.34604,61.995
0.34311,67.471
0.34018,74.511
0.33627,82.334
0.33333,90.157
0.32942,97.197
0.32551,103.85
0.32258,109.32
0.31965,113.62
0.31769,116.75
0.31476,118.51
0.31183,119.1
0.3089,118.9
0.30596,117.93
0.30205,116.17
0.29912,114.02
0.29619,111.47
0.29326,108.74
0.28935,105.8
0.28641,102.67
0.28348,98.957
0.28152,95.241
0.27957,91.33
0.27664,87.419
0.2737,83.703
0.27077,80.378
0.26784,77.836
0.26491,75.489
0.261,73.533
0.25904,72.164
0.25709,70.991
0.25806,70.404
0.26393,69.818
0.27273,69.426
0.28641,69.231
0.3089,69.231
0.3392,69.231
0.37634,69.231
0.41838,69.231
0.46432,69.231
0.50929,69.231
0.55327,69.231
0.59238,69.035
0.62659,69.035
0.65396,68.84
0.67546,68.449
0.68915,68.253
0.69697,67.862
0.70186,67.471
0.70381,66.884
0.70088,66.493
0.69501,65.906
0.68524,65.515
0.67253,65.124
0.65591,64.733
0.63734,64.342
0.61681,63.755
0.59433,63.364
0.5738,62.973
0.55425,62.582
0.53372,62.19
0.51222,61.604
0.49169,61.213
0.47312,60.821
0.45552,60.235
0.43988,59.844
0.42717,59.257
0.41544,58.866
0.40469,58.279
0.39687,57.888
0.38905,57.497
0.38416,56.91
0.37928,56.519
0.37537,56.128
0.37146,55.932
0.36852,55.737
0.36461,55.737
0.36168,56.128
0.35875,57.106
0.35582,59.452
0.35288,63.559
0.34897,69.426
0.34604,76.662
0.34311,84.485
0.34018,92.112
0.33724,98.957
0.33431,105.02
0.3304,110.1
0.32649,114.02
0.32356,116.75
0.31965,118.12
0.31672,118.51
0.31378,117.93
0.30987,116.75
0.30694,114.99
0.30401,112.84
0.30205,110.3
0.3001,107.56
0.29717,104.63
0.29326,101.3
0.29032,97.784
0.28739,93.872
0.28348,90.157
0.28055,86.245
0.27761,82.725
0.2737,79.596
0.27077,76.858
0.26784,74.707
0.26588,73.142
0.26491,71.773
0.26393,70.795
0.26588,70.209
0.27175,69.622
0.2825,69.426
0.30205,69.231
0.32845,69.035
0.36168,69.035
0.40176,69.035
0.44575,69.231
0.49169,69.231
0.52981,69.231
0.56403,69.035
0.59824,69.035
0.6305,68.84
0.65689,68.644
0.6784,68.449
0.69306,68.057
0.70381,67.666
0.7087,67.275
0.7087,66.688
0.70577,66.297
0.69795,65.906
0.68719,65.319
0.67449,64.928
0.65982,64.537
0.64125,64.146
0.6217,63.559
0.6002,63.168
0.57674,62.777
0.55425,62.386
0.53177,61.799
0.51026,61.408
0.48974,60.821
0.47116,60.43
0.45455,59.844
0.44184,59.452
0.43109,59.061
0.42033,58.475
0.41056,58.083
0.40274,57.497
0.39492,57.106
0.38905,56.715
0.38416,56.323
0.37928,55.932
0.37537,55.737
0.37146,55.541
0.36852,55.737
0.36559,56.519
0.36266,58.279
0.3607,61.604
0.35777,67.08
0.35484,74.316
0.35191,82.334
0.34897,90.352
0.34506,97.588
0.34115,104.24
0.33724,109.91
0.33431,114.41
0.3304,117.73
0.32649,119.69
0.32454,120.67
0.3216,120.67
0.31965,119.69
0.31672,118.12
0.31281,116.36
0.30987,114.02
0.30596,111.47
0.30303,108.74
0.29912,105.61
0.29619,102.48
0.29228,98.761
0.28837,95.046
0.28543,91.134
0.2825,87.223
0.28152,83.703
0.27859,80.574
0.27566,78.031
0.27175,75.685
0.26882,73.924
0.26686,72.751
0.26784,71.773
0.27175,70.991
0.2825,70.6
0.3001,70.209
0.32551,70.013
0.35288,70.013
0.38416,70.013
0.42424,70.013
0.46921,70.013
0.51515,69.818
0.56012,69.818
0.60117,69.818
0.63734,69.818
0.66764,69.622
0.6911,69.426
0.70968,69.231
0.72239,68.84
0.72923,68.449
0.73118,68.057
0.72825,67.666
0.72336,67.275
0.71554,66.688
0.70381,66.297
0.68915,65.906
0.67155,65.515
0.652,65.124
0.6305,64.733
0.60704,64.342
0.58358,63.95
0.56012,63.364
0.53861,62.973
0.52004,62.582
0.50049,61.995
0.48289,61.604
0.46628,61.017
0.45161,60.626
0.43793,60.039
0.4262,59.648
0.41544,59.257
0.40665,58.866
0.3998,58.475
0.39296,58.083
0.3871,57.692
0.38221,57.301
0.37928,57.106
0.37537,57.301
0.37243,57.692
0.36852,59.061
0.36559,61.799
0.36168,66.493
0.35875,73.142
0.35484,80.965
0.35093,88.983
0.348,96.806
0.34409,103.65
0.34115,109.91
0.3392,114.8
0.33627,118.51
0.33236,121.06
0.32942,122.43
0.32551,122.43
0.32258,121.84
0.31867,120.67
0.31574,118.71
0.31281,116.56
0.3089,114.41
0.30596,111.86
0.30303,108.93
0.3001,106
0.29814,102.67
0.29521,99.153
0.29228,95.437
0.28935,91.525
0.28641,87.81
0.28348,84.485
0.28055,81.552
0.27664,79.205
0.2737,77.249
0.27175,75.685
0.27273,74.511
0.27566,73.729
0.2825,73.142
0.29521,72.751
0.31672,72.555
0.34604,72.555
0.38319,72.555
0.4262,72.555
0.47312,72.555
0.52199,72.555
0.56891,72.555
0.6129,72.555
0.65103,72.555
0.68426,72.36
0.70674,72.164
0.72239,71.773
0.73607,71.382
0.74585,70.991
0.75073,70.6
0.75171,70.013
0.74878,69.426
0.74291,69.035
0.73314,68.449
0.71945,68.057
0.70381,67.471
0.68524,67.08
0.66667,66.688
0.64712,66.297
0.62561,65.906
0.60313,65.319
0.57967,64.928
0.55718,64.537
0.53666,63.95
0.51613,63.559
0.49853,62.973
0.48192,62.582
0.46823,61.995
0.4565,61.408
0.44575,61.017
0.43793,60.626
0.43206,60.039
0.4262,59.648
0.42033,59.257
0.41642,58.67
0.41251,58.475
0.4086,58.279
0.40469,58.279
0.40176,59.061
0.39883,61.213
0.39492,65.319
0.39198,71.382
0.38905,79.4
0.38612,87.81
0.38221,96.219
0.37928,103.85
0.37537,110.5
0.37146,116.17
0.36755,120.47
0.36364,123.21
0.35973,124.77
0.35582,125.16
0.35191,124.58
0.348,123.21
0.34506,121.45
0.34311,119.49
0.3392,117.14
0.33627,114.6
0.33236,111.86
0.32942,108.93
0.32551,105.61
0.3216,102.09
0.31769,98.37
0.31378,94.459
0.30987,90.548
0.30694,87.027
0.30303,83.703
0.3001,80.965
0.29717,78.814
0.29423,76.858
0.29228,75.489
0.29228,74.511
0.29717,73.729
0.30792,73.338
0.32551,72.947
0.35288,72.751
0.38807,72.751
0.42913,72.751
0.47605,72.555
0.51711,72.555
0.55523,72.555
0.59629,72.555
0.63441,72.36
0.66862,72.164
0.69697,71.773
0.71848,71.578
0.73412,70.991
0.74487,70.6
0.74976,70.013
0.75073,69.622
0.7478,69.035
0.74096,68.449
0.73118,67.862
0.71945,67.471
0.70479,66.884
0.68719,66.493
0.66764,65.906
0.64516,65.515
0.6217,65.124
0.59824,64.537
0.5738,64.146
0.55034,63.559
0.52688,62.973
0.50635,62.582
0.48876,61.995
0.4741,61.408
0.45943,61.017
0.44575,60.43
0.43304,59.844
0.42326,59.452
0.41349,58.866
0.40567,58.475
0.3998,58.083
0.39394,57.692
0.38807,57.301
0.38416,57.106
0.37928,57.106
0.37537,57.497
0.37243,58.475
0.36852,61.017
0.36461,65.319
0.3607,71.578
0.35679,79.205
0.35191,87.419
0.34702,95.241
0.34311,102.28
0.33822,108.54
0.33333,113.62
0.32942,117.54
0.32551,120.08
0.32258,121.25
0.31965,121.64
0.31574,121.06
0.31183,119.69
0.30792,117.93
0.30401,115.58
0.3001,113.23
0.29521,110.3
0.2913,107.37
0.28739,104.24
0.28348,100.72
0.27957,97.001
0.27664,93.09
0.27468,88.983
0.27273,85.267
0.26882,81.943
0.26588,79.205
0.26295,76.858
0.25904,75.098
0.25611,73.533
0.25513,72.555
0.25709,71.773
0.26295,71.186
0.27664,70.795
0.29326,70.6
0.31574,70.6
0.348,70.404
0.3871,70.404
0.43206,70.6
0.47898,70.404
0.5259,70.404
0.56989,70.404
0.60997,70.209
0.64321,70.013
0.67058,69.818
0.6911,69.426
0.70479,69.035
0.71261,68.644
0.71554,68.253
0.71554,67.666
0.71163,67.275
0.70479,66.688
0.69404,66.102
0.68133,65.711
0.66471,65.319
0.64516,64.928
0.62366,64.342
0.60117,63.95
0.57771,63.559
0.55621,62.973
0.53666,62.582
0.51613,62.19
0.49462,61.604
0.47507,61.213
0.4565,60.626
0.44086,60.039
0.4262,59.648
0.41349,59.061
0.40371,58.67
0.39492,58.083
0.3871,57.692
0.38025,57.106
0.37634,56.91
0.37243,56.519
0.36852,56.128
0.36461,55.932
0.36168,56.128
0.35777,56.519
0.35484,57.301
0.35093,59.452
0.348,63.168
0.34311,68.84
0.33822,76.076
0.33431,83.703
0.3304,91.134
0.32845,97.979
0.32454,104.04
0.32063,109.13
0.31672,113.04
0.31281,115.78
0.3089,117.14
0.30596,117.54
0.30205,116.95
0.29912,115.78
0.29521,113.82
0.2913,111.67
0.28837,109.13
0.28543,106.39
0.28348,103.26
0.28055,99.935
0.27761,96.219
0.2737,92.308
0.26979,88.396
0.26686,84.681
0.26295,81.16
0.26002,78.227
0.25709,75.88
0.25318,73.729
0.25024,72.164
0.24829,70.991
0.24829,70.209
0.24927,69.622
0.25415,69.231
0.26393,69.035
0.28055,68.84
0.30596,68.84
0.33822,68.84
0.37732,68.84
0.42131,68.84
0.46725,68.84
0.51222,68.84
0.55523,68.84
0.58944,68.84
0.61681,68.644
0.64223,68.449
0.66373,68.057
0.67937,67.666
0.69013,67.471
0.69599,66.884
0.69697,66.493
0.69404,65.906
0.68719,65.515
0.67644,64.928
0.66178,64.537
0.64614,64.146
0.62952,63.755
0.60997,63.364
0.58749,62.973
0.565,62.582
0.54154,61.995
0.51906,61.604
0.49658,61.213
0.47703,60.821
0.45846,60.235
0.44184,59.844
0.42717,59.257
0.41447,58.67
0.40469,58.279
0.39687,57.888
0.39003,57.301
0.38319,56.91
0.37732,56.519
0.37243,56.128
0.36852,55.737
0.36461,55.541
0.36168,55.346
0.35777,55.346
0.35484,55.932
0.35191,57.106
0.34995,59.452
0.348,63.559
0.34506,69.622
0.34213,76.858
0.3392,84.485
0.33627,91.721
0.33236,98.175
0.32845,104.04
0.32551,108.74
0.3216,112.26
0.31867,114.8
0.31476,115.97
0.31281,116.17
0.31085,115.58
0.30792,114.21
0.30499,112.45
0.30108,110.3
0.29717,107.76
0.29423,104.82
0.29032,101.69
0.28739,98.175
0.28348,94.459
0.27957,90.548
0.27664,86.636
0.27273,82.921
0.27077,79.596
0.26882,76.858
0.26686,74.511
0.26393,72.751
0.26002,71.186
0.25806,70.209
0.25709,69.231
0.25806,68.84
0.26393,68.449
0.27664,68.253
0.29619,68.253
0.32356,68.253
0.35288,68.253
0.38514,68.253
0.42522,68.449
0.46921,68.449
0.51417,68.449
0.55718,68.253
0.59629,68.253
0.62952,68.057
0.65787,67.862
0.67937,67.471
0.69501,67.275
0.70479,66.688
0.7087,66.297
0.7087,65.906
0.70479,65.515
0.69697,64.928
0.68622,64.537
0.67155,64.146
0.65494,63.755
0.63539,63.168
0.6129,62.777
0.59042,62.386
0.56598,61.995
0.54252,61.604
0.51906,61.213
0.49951,60.626
0.48289,60.235
0.4653,59.648
0.44966,59.257
0.435,58.67
0.42229,58.279
0.41153,57.888
0.40176,57.497
0.39394,57.106
0.3871,56.715
0.38123,56.323
0.37634,55.932
0.37243,55.737
0.3695,55.541
0.36657,55.541
0.36461,55.737
0.36168,56.519
0.35875,58.279
0.35582,61.604
0.35191,66.688
0.34897,73.533
0.34604,81.356
0.34213,88.983
0.33822,96.024
0.33431,102.48
0.33138,107.76
0.32942,112.06
0.32649,115.19
0.32258,117.14
0.31965,117.93
0.31574,117.93
0.31183,116.95
0.3089,115.38
0.30499,113.43
0.30108,111.08
0.29717,108.34
0.29423,105.61
0.29032,102.48
0.28837,98.957
0.28641,95.241
0.28348,91.33
0.28055,87.614
0.27664,83.898
0.2737,80.769
0.27077,78.227
0.26686,76.076
0.26393,74.316
0.261,72.947
0.25904,71.969
0.26002,71.186
0.26393,70.795
0.27175,70.6
0.28543,70.6
0.30694,70.6
0.33627,70.6
0.37341,70.795
0.41544,70.795
0.46237,70.991
0.50929,70.991
0.55523,70.991
0.59726,70.991
0.63441,70.991
0.66569,70.795
0.68719,70.404
0.70283,70.013
0.71457,69.622
0.72336,69.231
0.7263,68.84
0.7263,68.253
0.72141,67.862
0.71359,67.471
0.70088,66.884
0.68622,66.493
0.66764,66.102
0.64712,65.711
0.62757,65.319
0.60802,64.928
0.58651,64.537
0.56403,63.95
0.54154,63.559
0.52004,62.973
0.50049,62.582
0.48289,62.19
0.46823,61.604
0.45455,61.213
0.44282,60.821
0.43304,60.235
0.42522,59.844
0.41838,59.452
0.41447,59.061
0.40958,58.67
0.40567,58.279
0.40274,58.083
0.3998,58.083
0.39687,58.279
0.39394,59.257
0.39101,61.213
0.38905,64.928
0.38612,70.6
0.38416,78.031
0.38123,86.05
0.37928,93.872
0.37732,101.3
0.37439,107.76
0.37146,113.43
0.36755,117.73
0.36461,120.67
0.36168,122.23
0.35875,122.82
0.35582,122.43
0.35386,121.06
0.35093,119.49
0.348,117.34
0.34506,114.8
0.34311,112.26
0.34018,109.52
0.3392,106.39
0.33822,103.06
0.33627,99.544
0.33333,95.828
0.3304,91.917
0.32747,88.201
0.32454,84.876
0.32063,81.943
0.31769,79.4
0.31476,77.445
0.31281,75.88
0.31183,74.707
0.31183,73.729
0.31574,73.142
0.32551,72.751
0.34115,72.555
0.36559,72.36
0.39883,72.36
0.43793,72.36
0.48289,72.36
0.53079,72.36
0.57869,72.36
0.61779,72.164
0.65103,71.969
0.68426,71.773
0.71359,71.382
0.73803,70.991
0.75562,70.6
0.76833,70.013
0.77517,69.622
0.77713,69.035
0.77517,68.449
0.76931,67.862
0.75953,67.471
0.7478,67.08
0.73412,66.493
0.71652,66.102
0.69697,65.711
0.67546,65.319
0.652,64.733
0.62757,64.342
0.60313,63.95
0.57967,63.364
0.55718,62.973
0.53568,62.386
0.51711,61.799
0.49951,61.408
0.48485,60.821
0.47312,60.235
0.46237,59.648
0.45161,59.257
0.44282,58.67
0.435,58.279
0.42717,57.888
0.42131,57.497
0.41544,57.301
0.41056,57.106
0.40567,57.106
0.40078,57.692
0.39589,59.061
0.39296,62.19
0.38807,67.275
0.38416,74.316
0.37928,82.529
0.37341,90.743
0.36852,98.37
0.36364,105.41
0.35875,111.28
0.35386,116.17
0.34897,119.49
0.34506,121.64
0.34115,122.43
0.33822,122.43
0.33529,121.45
0.33138,119.88
0.32747,117.93
0.32258,115.58
0.31867,113.04
0.31476,110.3
0.31085,107.17
0.30596,103.85
0.30205,100.33
0.29717,96.415
0.29326,92.503
0.29032,88.592
0.28739,84.876
0.28446,81.747
0.28055,79.009
0.27566,76.662
0.27175,75.098
0.26882,73.729
0.26686,72.751
0.26882,71.969
0.27566,71.578
0.29032,71.186
0.31281,71.186
0.3392,70.991
0.3695,71.186
0.4086,71.186
0.45455,71.186
0.50342,71.186
0.5523,71.186
0.59726,71.186
0.63734,70.991
0.67155,70.6
0.69892,70.404
0.72043,70.013
0.73412,69.622
0.74291,69.231
0.74585,68.84
0.74487,68.253
0.74096,67.666
0.73314,67.275
0.72239,66.688
0.70772,66.102
0.6911,65.711
0.67155,65.319
0.64907,64.733
0.62561,64.342
0.60117,63.95
0.57576,63.364
0.55327,62.973
0.53372,62.582
0.51222,61.995
0.49267,61.408
0.4741,60.821
0.45748,60.43
0.44282,59.844
0.43011,59.257
0.41935,58.866
0.41056,58.279
0.40274,57.888
0.39687,57.497
0.39101,57.106
0.3871,56.715
0.38319,56.519
0.38025,56.519
0.37634,56.715
0.37243,57.301
0.3695,58.67
0.36559,61.604
0.36168,66.493
0.35875,73.338
0.35484,80.769
0.34995,88.592
0.34604,95.632
0.34311,102.09
0.34018,107.76
0.33627,112.26
0.33236,115.38
0.32845,117.34
0.32454,118.12
0.32063,117.93
0.31672,117.14
0.31281,115.58
0.3089,113.43
0.30499,111.08
0.30108,108.54
0.29717,105.61
0.29423,102.48
0.29228,98.957
0.28935,95.046
0.28543,91.33
0.28152,87.419
0.27761,83.898
0.2737,80.574
0.26979,77.836
0.26686,75.685
0.26295,73.729
0.25904,72.36
0.25709,71.382
0.25709,70.6
0.26002,70.013
0.26588,69.622
0.27859,69.426
0.29814,69.426
0.32649,69.231
0.36266,69.231
0.40469,69.231
0.45064,69.426
0.49853,69.426
0.54448,69.231
0.58847,69.231
0.62659,69.035
0.65494,69.035
0.67644,68.84
0.69501,68.449
0.7087,68.057
0.7175,67.666
0.72239,67.08
0.72239,66.688
0.7175,66.102
0.70968,65.711
0.69697,65.319
0.68133,64.733
0.66276,64.537
0.64418,63.95
0.62561,63.559
0.60313,63.168
0.57967,62.777
0.55621,62.19
0.53275,61.799
0.51026,61.408
0.48974,60.821
0.47019,60.235
0.45357,59.844
0.43891,59.257
0.42522,58.866
0.41447,58.279
0.40665,57.888
0.3998,57.497
0.39296,57.106
0.3871,56.715
0.38221,56.323
0.3783,55.932
0.37439,55.737
0.37048,55.737
0.36755,56.128
0.36461,56.91
0.36168,58.866
0.35777,62.386
0.35582,67.862
0.35386,74.707
0.35093,82.334
0.34702,89.765
0.34311,96.61
0.34018,102.87
0.33627,108.15
0.33236,112.06
0.32942,114.99
0.32551,116.56
0.32258,117.14
0.31867,116.95
0.31476,115.78
0.31281,114.02
0.31085,111.86
0.30792,109.32
0.30401,106.58
0.30108,103.46
0.29717,100.13
0.29423,96.61
0.29032,92.699
0.28641,88.983
0.28348,85.072
0.27957,81.747
0.27566,78.814
0.2737,76.271
0.27175,74.12
0.26882,72.555
0.26588,71.382
0.26393,70.404
0.26393,69.622
0.26686,69.231
0.27566,69.035
0.2913,69.035
0.31476,68.84
0.34311,68.84
0.37732,68.84
0.41838,68.84
0.4565,68.84
0.49267,68.84
0.53275,68.84
0.57185,68.84
0.60704,68.644
0.63832,68.449
0.66276,68.057
0.68133,67.666
0.69404,67.275
0.70186,66.884
0.70479,66.297
0.70283,65.906
0.69697,65.515
0.68817,64.928
0.67644,64.537
0.6608,64.146
0.64321,63.755
0.62366,63.168
0.60117,62.973
0.57869,62.386
0.55523,61.995
0.53275,61.604
0.51026,61.017
0.48974,60.626
0.47312,60.039
0.45846,59.648
0.44379,59.257
0.43011,58.866
0.41838,58.475
0.40762,58.083
0.39883,57.497
0.39198,57.106
0.38514,56.91
0.38025,56.519
0.37537,56.128
0.37146,55.932
0.36755,55.932
0.36461,56.128
0.36266,56.91
0.35973,58.279
0.35679,61.408
0.35386,66.297
0.35093,72.947
0.348,80.378
0.34409,87.81
0.34115,95.046
0.33724,101.3
0.33333,106.98
0.32942,111.47
0.32649,114.8
0.32454,116.75
0.3216,117.73
0.31769,117.54
0.31476,116.75
0.31085,115.19
0.30792,113.23
0.30401,111.08
0.30108,108.54
0.29717,105.61
0.29423,102.67
0.29032,99.153
0.28739,95.632
0.28446,91.721
0.28348,88.005
0.28055,84.485
0.27761,81.356
0.27468,78.814
0.27175,76.662
0.26784,74.902
0.26491,73.338
0.26295,72.36
0.26295,71.773
0.26588,71.186
0.27273,70.991
0.28446,70.795
0.3001,70.795
0.32551,70.795
0.35777,70.795
0.39687,70.795
0.44086,70.795
0.4868,70.991
0.53177,70.991
0.5738,70.795
0.61193,70.795
0.64516,70.6
0.67155,70.404
0.69208,70.013
0.70479,69.622
0.71163,69.231
0.71554,68.84
0.71652,68.253
0.71261,67.862
0.70577,67.471
0.69599,67.08
0.68231,66.493
0.66569,66.102
0.64614,65.906
0.62561,65.319
0.60313,64.928
0.5826,64.537
0.56403,64.146
0.5435,63.755
0.52297,63.168
0.50342,62.777
0.48583,62.19
0.47019,61.799
0.4565,61.408
0.44379,60.821
0.43402,60.43
0.42522,60.039
0.41838,59.648
0.41153,59.061
0.40665,58.67
0.40371,58.475
0.40078,58.279
0.39687,58.083
0.39492,58.279
0.39198,59.061
0.39003,61.213
0.3871,64.928
0.38416,70.6
0.38221,78.227
0.37928,86.441
0.37634,94.459
0.37439,101.69
0.37146,108.34
0.3695,114.02
0.36657,118.51
0.36364,121.45
0.3607,123.01
0.35777,123.6
0.35484,123.01
0.35191,122.03
0.34897,120.27
0.34604,118.12
0.34311,115.78
0.34018,113.23
0.33724,110.3
0.33529,107.37
0.33333,104.24
0.3304,100.72
0.32747,97.001
0.32454,93.09
0.3216,89.374
0.31867,85.854
0.31476,82.725
0.31183,80.183
0.3089,78.227
0.30596,76.467
0.30401,75.293
0.30401,74.316
0.30694,73.729
0.31378,73.338
0.32747,73.142
0.34897,72.947
0.3783,72.947
0.41544,72.751
0.45748,72.751
0.50342,72.751
0.55034,72.751
0.59433,72.555
0.63441,72.36
0.66569,72.164
0.68915,71.969
0.71163,71.578
0.72923,70.991
0.74194,70.6
0.74976,70.209
0.75269,69.622
0.75269,69.035
0.7478,68.644
0.73998,68.057
0.72825,67.471
0.71359,67.08
0.69892,66.688
0.68231,66.102
0.66276,65.711
0.64125,65.319
0.61877,64.733
0.59531,64.342
0.57185,63.755
0.54936,63.168
0.52884,62.777
0.50929,62.19
0.49071,61.604
0.47507,61.213
0.46139,60.626
0.45064,60.039
0.44184,59.648
0.43304,59.257
0.42522,58.67
0.41838,58.279
0.41251,57.888
0.40665,57.692
0.40176,57.497
0.39687,57.692
0.39198,58.279
0.3871,60.039
0.38221,63.559
0.3783,69.035
0.37537,76.467
0.37048,84.485
0.36657,92.699
0.36168,100.33
0.35679,106.98
0.35191,112.65
0.34702,117.14
0.34213,120.47
0.33724,122.23
0.33333,123.01
0.32845,122.62
0.32454,121.64
0.3216,120.08
0.31867,117.93
0.31476,115.78
0.31085,113.23
0.30694,110.5
0.30303,107.56
0.29814,104.43
0.29423,100.91
0.29032,97.001
0.28641,93.09
0.28152,89.179
0.27761,85.658
0.27468,82.529
0.27273,79.791
0.26882,77.445
0.26588,75.685
0.26295,74.316
0.261,73.338
0.26295,72.555
0.26882,72.164
0.2825,71.773
0.30303,71.578
0.33236,71.578
0.3695,71.578
0.41153,71.578
0.45161,71.578
0.48974,71.382
0.53177,71.382
0.57283,71.382
0.60997,71.186
0.64223,70.991
0.66862,70.6
0.68915,70.404
0.70283,70.013
0.71163,69.426
0.71554,69.035
0.71554,68.449
0.71163,68.057
0.70479,67.471
0.69404,67.08
0.68133,66.493
0.66373,66.102
0.64321,65.711
0.62072,65.124
0.59824,64.733
0.57478,64.342
0.55034,63.755
0.52688,63.168
0.5044,62.777
0.48485,62.19
0.46823,61.604
0.45064,61.017
0.435,60.626
0.42033,60.039
0.4086,59.648
0.39785,59.061
0.38807,58.67
0.38025,58.279
0.37341,57.692
0.36755,57.301
0.36266,57.106
0.35875,56.91
0.35484,56.91
0.35288,57.301
0.34897,58.279
0.34604,60.235
0.34213,64.146
0.3392,70.013
0.33529,77.249
0.33138,85.072
0.32747,92.894
0.32356,99.935
0.31965,106.19
0.31574,111.47
0.31281,115.38
0.30987,118.12
0.30694,119.69
0.30303,120.27
0.3001,119.69
0.29619,118.51
0.29228,116.75
0.28935,114.8
0.28543,112.26
0.28152,109.52
0.27761,106.58
0.2737,103.46
0.26979,99.739
0.26686,96.024
0.26491,92.112
0.26197,88.201
0.25904,84.681
0.25611,81.356
0.2522,78.814
0.24829,76.662
0.24536,74.707
0.24145,73.338
0.23949,72.164
0.23949,71.382
0.2434,70.991
0.25122,70.6
0.26295,70.6
0.28348,70.404
0.31183,70.404
0.348,70.209
0.38905,70.209
0.435,70.209
0.48094,70.209
0.5259,70.209
0.56696,70.209
0.60313,70.013
0.63343,69.818
0.65787,69.426
0.67351,69.231
0.68328,68.84
0.69013,68.449
0.69306,67.862
0.69208,67.471
0.68719,66.884
0.67937,66.297
0.66764,65.906
0.65298,65.515
0.63539,65.124
0.61486,64.733
0.59335,64.342
0.57283,63.755
0.55327,63.364
0.53177,62.777
0.50929,62.386
0.48778,61.799
0.46823,61.408
0.44966,60.821
0.43304,60.43
0.41838,59.844
0.40567,59.452
0.39492,58.866
0.38612,58.475
0.3783,58.083
0.37243,57.692
0.36755,57.106
0.36266,56.91
0.35875,56.715
0.35484,56.519
0.35093,56.91
0.348,57.497
0.34506,59.257
0.34213,62.386
0.33822,67.471
0.33529,74.316
0.33236,81.943
0.32942,89.374
0.32649,96.415
0.32356,102.67
0.32063,108.15
0.31672,112.45
0.31281,115.58
0.3089,117.34
0.30596,118.12
0.30205,117.93
0.29912,116.95
0.29521,115.38
0.29228,113.43
0.28837,111.28
0.28543,108.74
0.28348,105.61
0.28055,102.48
0.27761,98.957
0.27468,95.241
0.27077,91.525
0.26686,87.614
0.26393,83.898
0.26002,80.574
0.25709,77.836
0.25318,75.489
0.24927,73.729
0.24731,72.36
0.24633,71.382
0.24536,70.6
0.24731,70.209
0.25318,69.818
0.26491,69.622
0.28348,69.426
0.31085,69.426
0.34506,69.426
0.38514,69.426
0.42913,69.426
0.4741,69.426
0.51906,69.426
0.55523,69.426
0.58553,69.231
0.61486,69.231
0.64027,69.035
0.6608,68.644
0.67644,68.253
0.68719,67.666
0.69208,67.275
0.69208,66.884
0.68915,66.493
0.68133,65.906
0.6696,65.515
0.65689,65.124
0.64223,64.733
0.62366,64.342
0.60313,63.95
0.58162,63.364
0.55816,62.973
0.5347,62.582
0.51222,62.19
0.49071,61.604
0.47019,61.213
0.45161,60.626
0.435,60.235
0.42033,59.648
0.40958,59.257
0.3998,58.866
0.39101,58.279
0.38319,57.888
0.37634,57.497
0.37048,57.106
0.36559,56.91
0.3607,56.715
0.35679,56.715
0.35386,56.91
0.35093,57.692
0.348,59.452
0.34506,62.777
0.34311,68.057
0.34018,74.902
0.33724,82.725
0.33431,90.352
0.3304,97.588
0.32649,104.24
0.32356,109.71
0.31965,114.21
0.31574,117.34
0.31281,119.3
0.3089,120.08
0.30596,119.88
0.30303,119.1
0.30108,117.54
0.29814,115.58
0.29521,113.23
0.29228,110.69
0.28837,107.95
0.28543,104.82
0.28152,101.5
0.27761,97.784
0.27468,93.872
0.27077,89.961
0.26784,86.245
0.26491,82.725
0.26295,79.791
0.261,77.445
0.25709,75.489
0.25415,73.924
0.25122,72.751
0.25024,71.969
0.2522,71.186
0.25904,70.795
0.27273,70.6
0.29326,70.6
0.3216,70.404
0.35288,70.404
0.38612,70.404
0.42717,70.404
0.47214,70.404
0.51808,70.404
0.56109,70.404
0.6002,70.209
0.63441,70.013
0.66276,69.818
0.68426,69.426
0.70088,69.035
0.71065,68.644
0.71652,68.253
0.71652,67.862
0.71261,67.471
0.70674,66.884
0.69697,66.493
0.68328,65.906
0.66764,65.515
0.64907,65.124
0.62757,64.733
0.60508,64.342
0.58162,63.95
0.55816,63.364
0.5347,62.973
0.51417,62.386
0.49658,61.799
0.47801,61.213
0.46139,60.821
0.44477,60.43
0.43109,59.844
0.41838,59.452
0.4086,58.866
0.39883,58.475
0.39198,57.888
0.38514,57.497
0.38319,57.106
0.38514,56.91
0.38416,56.91
0.38221,57.301
0.38025,58.279
0.37732,60.43
0.37439,64.342
0.37048,70.209
0.36755,77.64
0.36364,85.658
0.3607,93.481
0.35679,100.72
0.35288,107.17
0.34897,112.65
0.34604,116.95
0.34409,119.88
0.34018,121.64
0.33724,122.43
0.33333,122.23
0.32942,121.06
0.32649,119.49
0.32258,117.73
0.31867,115.38
0.31476,113.04
0.31085,110.3
0.30694,107.17
0.30303,103.85
0.3001,100.33
0.29717,96.415
0.29423,92.503
0.2913,88.592
0.28739,85.072
0.28348,81.943
0.27957,79.4
0.27566,77.249
0.27175,75.489
0.26882,74.12
0.26882,73.142
0.27175,72.36
0.27859,71.969
0.2913,71.578
0.31183,71.382
0.34115,71.186
0.3783,71.186
0.42131,71.186
0.46921,71.186
0.51906,71.186
0.56696,70.991
0.61095,70.991
0.65103,70.795
0.68426,70.6
0.71065,70.404
0.72923,70.209
0.74096,69.818
0.74976,69.426
0.75562,69.035
0.7566,68.644
0.75464,68.253
0.7478,67.666
0.73803,67.275
0.72434,66.884
0.70674,66.493
0.68719,66.102
0.66569,65.711
0.64418,65.319
0.62268,64.733
0.59922,64.342
0.57478,63.95
0.55132,63.364
0.52786,62.973
0.50635,62.386
0.4868,61.995
0.47019,61.408
0.45455,61.017
0.44086,60.626
0.43011,60.039
0.41935,59.648
0.41251,59.257
0.40567,58.866
0.3998,58.475
0.39394,58.279
0.38905,58.475
0.38514,58.866
0.38025,60.235
0.37634,62.973
0.37243,67.862
0.36852,74.707
0.36461,82.725
0.36168,90.939
0.35875,98.761
0.35582,106
0.35288,112.45
0.34897,117.73
0.34604,121.45
0.34213,123.99
0.3392,125.55
0.33529,125.75
0.33138,125.36
0.32845,123.99
0.32454,122.43
0.32063,120.47
0.31672,118.12
0.31476,115.78
0.31183,113.04
0.3089,110.3
0.30596,106.98
0.30303,103.46
0.29912,99.739
0.29619,95.828
0.29228,91.917
0.28935,88.201
0.28641,85.072
0.2825,82.334
0.27859,80.183
0.27664,78.422
0.27566,77.054
0.27664,76.076
0.28055,75.293
0.29032,74.902
0.30694,74.511
0.33236,74.511
0.36657,74.511
0.40762,74.511
0.45455,74.511
0.5044,74.511
0.55425,74.511
0.60117,74.316
0.6393,74.316
0.6696,74.12
0.69892,73.924
0.72434,73.533
0.74487,73.142
0.75953,72.751
0.76931,72.164
0.77419,71.773
0.77419,71.382
0.77028,70.795
0.76344,70.404
0.75269,69.818
0.73998,69.426
0.72532,69.035
0.70772,68.449
0.68817,68.057
0.66569,67.471
0.64125,67.08
0.61779,66.688
0.59335,66.102
0.56989,65.711
0.54741,65.124
0.52688,64.733
0.50831,64.146
0.49169,63.559
0.47898,63.168
0.46823,62.582
0.45846,62.19
0.44868,61.799
0.44184,61.408
0.435,61.017
0.42913,60.626
0.42424,60.43
0.41935,60.626
0.41544,61.213
0.41153,62.973
0.40762,66.688
0.40371,72.36
0.40176,79.791
0.39785,88.201
0.39492,96.61
0.39101,104.24
0.3871,111.28
0.38221,117.34
0.3783,122.03
0.37439,125.36
0.37048,127.31
0.36657,128.1
0.36266,127.9
0.35875,127.12
0.35484,125.55
0.35288,123.79
0.34897,121.64
0.34604,119.3
0.34213,116.75
0.33822,113.82
0.33431,110.69
0.3304,107.17
0.32649,103.46
0.32258,99.544
0.31867,95.437
0.31476,91.525
0.31183,88.005
0.30987,84.876
0.30596,82.138
0.30205,79.987
0.29912,78.227
0.29717,77.054
0.29814,76.076
0.30401,75.489
0.31672,75.098
0.33822,74.902
0.36755,74.707
0.40469,74.707
0.44184,74.707
0.47898,74.511
0.52297,74.511
0.56891,74.511
0.6129,74.316
0.65298,74.12
0.68719,73.924
0.71554,73.533
0.73803,73.142
0.75367,72.555
0.76344,72.164
0.76931,71.578
0.77028,70.991
0.76735,70.404
0.76051,69.818
0.75073,69.426
0.739,68.84
0.72434,68.449
0.70577,67.862
0.68524,67.471
0.66276,66.884
0.6393,66.493
0.61486,65.906
0.58944,65.515
0.565,64.928
0.5435,64.537
0.52395,63.95
0.50538,63.364
0.4868,62.973
0.46921,62.386
0.45455,61.799
0.44086,61.408
0.43011,60.821
0.42033,60.235
0.41251,59.844
0.40567,59.452
0.39883,59.061
0.39394,58.866
0.39003,59.061
0.38612,59.648
0.38221,61.213
0.37732,64.537
0.37341,70.013
0.36852,77.445
0.36364,85.854
0.35973,94.263
0.35484,102.28
0.34995,109.52
0.34506,115.78
0.34018,120.67
0.33627,123.99
0.33333,126.14
0.32942,127.12
0.32551,126.92
0.3216,125.95
0.31281,124.38
0.30205,122.43
0.29423,120.47
0.28837,117.93
0.28348,115.38
0.27957,112.45
0.27468,109.32
0.27077,105.61
0.26784,101.89
0.26491,97.979
0.26197,93.872
0.25904,89.961
0.25513,86.441
0.25122,83.507
0.24731,80.965
0.2434,78.814
0.24047,77.054
0.23851,75.88
0.24047,74.902
0.24633,74.12
0.25611,73.729
0.27175,73.533
0.29717,73.338
0.3304,73.338
0.37146,73.338
0.4174,73.142
0.46628,73.142
0.51417,73.142
0.56012,72.947
0.60117,72.947
0.63539,72.751
0.66373,72.36
0.68524,71.969
0.6999,71.578
0.70772,71.186
0.71261,70.6
0.71457,70.209
0.71261,69.622
0.70674,69.035
0.69795,68.644
0.68622,68.057
0.67058,67.666
0.65298,67.08
0.63343,66.688
0.61095,66.102
0.59042,65.711
0.56989,65.319
0.54741,64.733
0.52395,64.342
0.50147,63.755
0.47996,63.168
0.45943,62.777
0.44184,62.19
0.42522,61.604
0.41153,61.213
0.39883,60.626
0.38905,60.039
0.38025,59.648
0.37341,59.257
0.36755,58.866
0.36266,58.475
0.35777,58.279
0.35288,58.279
0.34897,58.67
0.34506,59.648
0.34115,61.995
0.33724,65.906
0.33333,71.969
0.3304,79.4
0.32649,87.419
0.32356,95.046
0.32063,102.28
0.31672,108.74
0.31281,114.02
0.3089,117.93
0.30499,120.67
0.30108,122.23
0.29717,122.62
0.29326,122.23
0.28935,121.06
0.28543,119.49
0.28152,117.34
0.27761,114.8
0.27468,112.06
0.27273,109.13
0.26979,105.61
0.26686,102.09
0.26295,98.37
0.25904,94.263
0.25513,90.352
0.2522,86.636
0.24829,83.116
0.24438,80.378
0.24047,78.031
0.23656,76.076
0.2346,74.511
0.23363,73.338
0.23363,72.555
0.23558,72.164
0.2434,71.773
0.25709,71.382
0.27859,71.382
0.30792,71.186
0.34506,71.186
0.38807,71.186
0.43402,71.186
0.48192,70.991
0.52688,70.991
0.56403,70.991
0.59335,70.795
0.62268,70.6
0.64712,70.404
0.66764,70.013
0.68133,69.622
0.6911,69.231
0.69501,68.644
0.69501,68.253
0.69013,67.666
0.68231,67.275
0.67058,66.884
0.65689,66.297
0.64223,65.906
0.62366,65.515
0.60215,65.124
0.57869,64.537
0.55523,64.146
0.53079,63.755
0.50733,63.168
0.48485,62.582
0.46334,62.19
0.44379,61.604
0.42717,61.213
0.41153,60.626
0.3998,60.039
0.39003,59.648
0.38123,59.257
0.37341,58.67
0.36559,58.279
0.35973,57.888
0.35484,57.497
0.34995,57.301
0.34604,57.301
0.34213,57.497
0.3392,58.475
0.33529,60.626
0.33333,64.342
0.33138,70.013
0.32845,77.249
0.32551,85.267
0.32258,92.894
0.31867,100.13
0.31476,106.78
0.31183,112.26
0.30792,116.36
0.30401,119.49
0.30108,121.25
0.29717,122.03
0.29423,121.64
0.2913,120.67
0.28935,118.9
0.28739,116.95
0.28348,114.6
0.28055,111.86
0.27761,108.93
0.2737,105.61
0.26979,102.09
0.26588,98.37
0.26197,94.459
0.25904,90.352
0.25513,86.441
0.2522,83.116
0.25024,80.183
0.24731,77.64
0.24438,75.685
0.24145,74.12
0.23851,72.947
0.23754,72.164
0.23949,71.578
0.24633,71.186
0.26002,70.795
0.28055,70.795
0.31085,70.6
0.34213,70.6
0.37634,70.6
0.41838,70.6
0.46432,70.6
0.51124,70.6
0.55523,70.404
0.59531,70.404
0.62952,70.209
0.65787,69.818
0.67937,69.622
0.69404,69.035
0.70381,68.644
0.7087,68.253
0.7087,67.666
0.70479,67.275
0.69795,66.688
0.68719,66.297
0.67351,65.711
0.65689,65.319
0.63734,64.928
0.61584,64.537
0.59238,63.95
0.56794,63.559
0.54252,62.973
0.51906,62.582
0.49756,62.19
0.47898,61.604
0.46041,61.017
0.44282,60.626
0.4262,60.039
0.41153,59.648
0.39883,59.061
0.38807,58.67
0.37928,58.279
0.37146,57.692
0.36461,57.301
0.35875,56.91
0.35484,56.715
0.35093,56.519
0.348,56.715
0.34506,57.497
0.34213,59.452
0.3392,62.973
0.33529,68.253
0.33236,75.489
0.32845,83.312
0.32551,91.33
0.3216,98.761
0.31769,105.41
0.31476,111.08
0.31183,115.58
0.3089,118.71
0.30596,120.67
0.30205,121.45
0.29912,121.25
0.29521,120.27
0.2913,118.71
0.28837,116.75
0.28446,114.41
0.28055,111.86
0.27664,109.13
0.2737,106
0.26979,102.67
0.26686,98.957
0.26491,95.046
0.26197,91.134
0.25806,87.419
0.25513,83.898
0.25122,80.769
0.24731,78.227
0.2434,76.271
0.23949,74.511
0.23656,73.338
0.23558,72.36
0.24145,71.578
0.25318,71.186
0.26686,70.991
0.28641,70.991
0.31378,70.795
0.34897,70.991
0.39101,70.991
0.43891,70.991
0.48876,70.991
0.53763,70.991
0.58456,70.991
0.62659,70.991
0.66276,70.795
0.69208,70.6
0.71163,70.209
0.72532,69.818
0.73509,69.426
0.74096,69.035
0.74291,68.644
0.74096,68.057
0.73509,67.666
0.72532,67.275
0.71163,66.884
0.69501,66.297
0.67449,65.906
0.65298,65.515
0.63148,65.124
0.60997,64.733
0.58651,64.342
0.56207,63.95
0.53861,63.364
0.51515,62.973
0.49365,62.582
0.4741,61.995
0.4565,61.604
0.44086,61.213
0.42815,60.626
0.4174,60.235
0.40762,59.844
0.40078,59.257
0.39492,58.866
0.39003,58.475
0.38514,58.279
0.38123,58.279
0.3783,58.475
0.37537,59.452
0.37243,61.799
0.3695,65.711
0.36657,71.969
0.36364,79.596
0.3607,87.614
0.35777,95.828
0.35582,103.26
0.35288,109.91
0.34897,115.58
0.34604,119.88
0.34213,123.01
0.3392,124.58
0.33627,125.16
0.33236,124.77
0.32942,123.6
0.32649,122.03
0.32356,120.08
0.32063,117.93
0.31867,115.38
0.31672,112.65
0.31476,109.71
0.31183,106.58
0.3089,103.06
0.30596,99.348
0.30303,95.437
0.3001,91.721
0.29717,88.005
0.29423,84.876
0.2913,82.138
0.28837,79.791
0.28641,78.031
0.28543,76.662
0.28446,75.489
0.28641,74.707
0.29326,74.316
0.30694,73.924
0.32747,73.924
0.35777,73.729
0.39687,73.924
0.44184,73.924
0.49071,73.924
0.54154,73.924
0.59042,73.729
0.6305,73.533
0.66276,73.338
0.69501,72.947
0.72336,72.555
0.74585,71.969
0.76246,71.382
0.77419,70.795
0.78104,70.209
0.78201,69.622
0.78006,69.035
0.77322,68.449
0.76344,68.057
0.75073,67.471
0.73705,67.08
0.71945,66.688
0.6999,66.297
0.67742,65.906
0.65396,65.515
0.62952,64.928
0.60508,64.537
0.58065,63.95
0.55718,63.364
0.53666,62.777
0.51711,62.19
0.49951,61.604
0.48583,61.017
0.4741,60.43
0.46334,60.039
0.45357,59.452
0.44477,59.061
0.43793,58.475
0.43109,58.083
0.4262,57.692
0.42131,57.692
0.41642,57.692
0.41251,58.67
0.40762,60.626
0.40469,64.537
0.40078,70.795
0.39687,78.422
0.39198,87.027
0.3871,95.241
0.38221,102.87
0.37732,109.71
0.37243,115.38
0.36657,119.88
0.36168,123.01
0.35679,124.77
0.35191,125.36
0.34897,124.97
0.34506,123.79
0.34115,122.23
0.33724,120.08
0.33236,117.93
0.32747,115.38
0.32258,112.65
0.31867,109.71
0.31378,106.58
0.3089,103.06
0.30401,99.153
0.29912,95.241
0.29423,91.33
0.29032,87.614
0.28739,84.289
0.28348,81.356
0.27859,79.009
0.2737,76.858
0.26979,75.293
0.26686,74.12
0.26686,73.338
0.27273,72.751
0.28446,72.164
0.30596,71.969
0.33627,71.773
0.36852,71.773
0.40469,71.578
0.44868,71.578
0.49756,71.578
0.54643,71.382
0.59335,71.382
0.63441,71.186
0.67058,70.795
0.6999,70.6
0.72141,70.209
0.73803,69.818
0.7478,69.231
0.75269,68.84
0.75171,68.449
0.7478,67.862
0.74194,67.471
0.73216,66.884
0.71945,66.297
0.70381,65.906
0.68524,65.319
0.66373,64.928
0.64125,64.537
0.61681,64.146
0.5914,63.559
0.56598,63.168
0.5435,62.582
0.52297,62.19
0.50244,61.604
0.48289,61.213
0.46432,60.626
0.4477,60.039
0.43304,59.648
0.42033,59.061
0.4086,58.67
0.39883,58.083
0.39101,57.692
0.38416,57.301
0.3783,56.91
0.37341,56.715
0.37048,56.715
0.36657,56.91
0.36266,57.692
0.35875,59.844
0.35484,63.755
0.35093,69.622
0.34702,77.249
0.34311,85.267
0.3392,93.286
0.33529,100.72
0.33138,107.17
0.32747,112.65
0.32454,116.95
0.3216,119.88
0.31769,121.45
0.31378,122.03
0.30987,121.64
0.30596,120.47
0.30205,118.71
0.29814,116.56
0.29423,114.21
0.2913,111.47
0.28739,108.54
0.28348,105.22
0.28055,101.69
0.27761,97.979
0.27468,94.068
0.27175,90.157
0.26784,86.441
0.26393,82.921
0.26002,79.987
0.25611,77.445
0.2522,75.489
0.24829,73.729
0.24536,72.555
0.24438,71.578
0.24536,70.991
0.25122,70.6
0.26197,70.209
0.28152,70.013
0.30987,70.013
0.34604,69.818
0.39003,69.818
0.43891,69.818
0.48876,69.818
0.53861,69.818
0.58553,69.622
0.62659,69.426
0.66178,69.231
0.68622,69.035
0.70381,68.644
0.71848,68.253
0.72923,67.862
0.73509,67.471
0.72727,66.884
0.71163,66.493
0.69892,65.906
0.68524,65.515
0.67058,64.928
0.65396,64.537
0.63441,64.146
0.61584,63.559
0.59726,63.168
0.57576,62.777
0.55327,62.386
0.53079,61.799
0.50831,61.408
0.4868,60.821
0.46725,60.43
0.44966,59.844
0.43402,59.452
0.42033,58.866
0.40762,58.475
0.39785,57.888
0.39003,57.497
0.38416,56.91
0.3783,56.519
0.37243,56.128
0.36755,55.737
0.36364,55.541
0.35973,55.541
0.35582,55.932
0.35288,56.91
0.34995,58.866
0.34604,62.777
0.34311,68.449
0.34115,75.293
0.33822,82.921
0.33529,90.352
0.33236,97.197
0.32942,103.06
0.32551,108.34
0.32258,112.26
0.31867,114.99
0.31574,116.36
0.31183,116.95
0.3089,116.36
0.30596,115.19
0.30205,113.43
0.3001,111.28
0.29814,108.74
0.29521,105.8
0.29228,102.87
0.28935,99.544
0.28641,95.828
0.2825,91.917
0.27957,88.201
0.27566,84.485
0.27273,81.16
0.26882,78.227
0.26588,75.685
0.26393,73.533
0.26197,71.969
0.25904,70.795
0.25611,69.818
0.25415,69.035
0.25513,68.644
0.26002,68.253
0.27077,68.057
0.28935,67.862
0.31476,67.862
0.348,67.862
0.38807,67.666
0.43109,67.666
0.47019,67.666
0.50538,67.666
0.5435,67.471
0.57869,67.471
0.61095,67.275
0.63734,67.08
0.65787,66.688
0.67253,66.297
0.68133,65.906
0.68622,65.515
0.68622,64.928
0.68231,64.537
0.67546,64.146
0.66569,63.755
0.652,63.364
0.63636,62.973
0.61779,62.582
0.59726,61.995
0.57576,61.604
0.55327,61.213
0.53079,60.821
0.50831,60.43
0.48778,59.844
0.46823,59.452
0.45064,58.866
0.43695,58.475
0.42522,58.083
0.41349,57.497
0.40274,56.91
0.39394,56.519
0.38612,56.128
0.37928,55.737
0.37341,55.346
0.36852,54.954
0.36364,54.563
0.35973,54.368
0.35679,54.563
0.35386,55.15
0.35191,56.519
0.34995,59.257
0.34702,63.95
0.34409,70.404
0.34115,77.836
0.33822,85.463
0.33529,92.699
0.33236,99.348
0.32942,105.22
0.32551,110.1
0.32258,113.62
0.31965,115.97
0.31769,117.14
0.31574,117.34
0.31281,116.56
0.30987,114.99
0.30694,113.04
0.30303,110.89
0.3001,108.15
0.29717,105.22
0.29423,102.09
0.2913,98.761
0.28739,95.046
0.28446,91.134
0.28152,87.419
0.27957,83.703
0.27664,80.378
0.2737,77.64
0.27077,75.293
0.26784,73.338
0.26393,71.773
0.261,70.6
0.25904,69.818
0.25806,69.231
0.261,69.035
0.26979,68.84
0.28152,68.84
0.29912,68.84
0.32551,68.84
0.35973,68.84
0.40078,69.035
0.44477,69.035
0.49071,69.035
0.53568,69.035
0.57674,69.035
0.61388,68.84
0.64418,68.644
0.66862,68.449
0.68719,68.057
0.69892,67.666
0.70381,67.275
0.70674,66.884
0.70577,66.297
0.70186,65.906
0.69306,65.515
0.68231,65.124
0.66764,64.733
0.65005,64.342
0.6305,63.95
0.60899,63.559
0.58651,63.168
0.565,62.777
0.54545,62.386
0.52493,61.799
0.5044,61.408
0.48485,61.017
0.46725,60.43
0.45064,60.039
0.43695,59.648
0.42522,59.257
0.41447,58.67
0.40665,58.279
0.39883,57.888
0.39296,57.497
0.38905,57.106
0.38514,56.91
0.38221,56.715
0.37928,56.715
0.37634,57.301
0.37439,58.67
0.37146,61.408
0.3695,66.297
0.36657,72.947
0.36461,80.574
0.36168,88.396
0.35875,95.632
0.35679,102.28
0.35484,108.15
0.35191,113.04
0.34897,116.56
0.34604,118.9
0.34409,120.08
0.34115,120.08
0.33822,119.49
0.33529,118.12
0.33333,116.17
0.3304,114.02
0.32747,111.67
0.32551,108.93
0.32258,106.19
0.3216,103.06
0.31867,99.544
0.31672,96.024
0.31378,92.112
0.31183,88.592
0.3089,85.072
0.30596,81.943
0.30303,79.4
0.3001,77.249
0.29717,75.489
0.29521,74.316
0.29423,73.338
0.29423,72.555
0.29717,72.164
0.30401,71.773
0.31672,71.578
0.33724,71.578
0.36559,71.578
0.40078,71.578
0.44184,71.578
0.48583,71.382
0.53079,71.382
0.57478,70.991
0.61388,70.795
0.64516,70.6
0.66862,70.013
0.69013,69.622
0.7087,69.035
0.72239,68.644
0.73021,68.253
0.73509,67.666
0.73509,67.275
0.73118,66.884
0.72336,66.297
0.71261,65.906
0.6999,65.515
0.68524,65.124
0.66862,64.733
0.65005,64.342
0.62952,63.755
0.60802,63.364
0.58553,62.777
0.56403,62.386
0.5435,61.799
0.52297,61.213
0.50538,60.626
0.48876,60.039
0.47507,59.648
0.46237,59.061
0.45357,58.475
0.44575,58.083
0.43793,57.692
0.43109,57.106
0.42522,56.715
0.42033,56.519
0.41544,56.323
0.41056,56.128
0.40665,56.519
0.40176,57.692
0.39785,60.235
0.39394,64.928
0.39003,71.382
0.3871,79.205
0.38319,87.419
0.37928,95.241
0.37439,102.48
0.37048,108.74
0.36559,114.02
0.36168,117.93
0.35777,120.47
0.35288,121.84
0.34897,122.03
0.34506,121.25
0.34018,119.88
0.33724,118.12
0.33333,115.97
0.32942,113.62
0.32551,111.08
0.3216,108.34
0.31672,105.22
0.31183,101.89
0.30694,98.175
0.30303,94.263
0.29814,90.352
0.29423,86.636
0.29032,83.312
0.28641,80.378
0.28446,78.031
0.28055,75.88
0.27664,74.316
0.27273,72.947
0.27077,72.164
0.27077,71.382
0.27664,70.795
0.28837,70.6
0.3089,70.404
0.33724,70.404
0.37341,70.209
0.41642,70.209
0.4565,70.209
0.49462,70.209
0.53666,70.209
0.57771,70.013
0.61584,69.818
0.64907,69.622
0.6784,69.231
0.6999,68.84
0.71261,68.449
0.72043,67.862
0.72336,67.471
0.72336,66.884
0.71848,66.297
0.71163,65.906
0.70186,65.515
0.68915,64.928
0.67351,64.537
0.65591,64.146
0.63539,63.559
0.6129,63.168
0.59042,62.777
0.56598,62.19
0.54252,61.799
0.52004,61.408
0.49853,60.821
0.47996,60.235
0.46432,59.844
0.44966,59.257
0.435,58.866
0.42229,58.279
0.41153,57.888
0.40176,57.497
0.39394,56.91
0.3871,56.519
0.38123,56.128
0.37537,55.737
0.37146,55.541
0.36755,55.541
0.36461,55.932
0.36168,57.106
0.35875,59.648
0.35582,63.755
0.35191,70.013
0.348,77.445
0.34409,85.072
0.34018,92.503
0.33627,99.348
0.33236,105.41
0.32845,110.3
0.32454,114.21
0.32258,116.56
0.31867,117.93
0.31574,118.12
0.31183,117.54
0.30792,116.17
0.30499,114.21
0.30108,111.86
0.29717,109.32
0.29423,106.58
0.29032,103.46
0.28641,100.13
0.2825,96.61
0.28055,92.894
0.27761,88.983
0.27566,85.267
0.27175,81.747
0.26882,78.814
0.26491,76.271
0.26197,74.316
0.25806,72.555
0.25513,71.382
0.2522,70.404
0.25122,69.622
0.2522,69.231
0.25806,68.84
0.26784,68.644
0.28446,68.449
0.30987,68.449
0.34311,68.449
0.38221,68.449
0.42717,68.449
0.47312,68.253
0.51906,68.253
0.56109,68.253
0.59922,68.057
0.63148,67.666
0.65689,67.471
0.67449,67.08
0.68524,66.688
0.69306,66.297
0.69795,65.906
0.69795,65.319
0.69404,64.928
0.68719,64.537
0.67644,64.146
0.66276,63.559
0.64516,63.168
0.62659,62.777
0.60508,62.386
0.58456,61.995
0.565,61.408
0.5435,61.017
0.52102,60.626
0.49951,60.039
0.47898,59.648
0.46041,59.257
0.44379,58.67
0.42815,58.279
0.41544,57.692
0.40371,57.301
0.39394,56.91
0.38612,56.323
0.38025,55.932
0.37537,55.541
0.37048,55.15
0.36657,54.954
0.36266,54.954
0.35875,54.954
0.35582,55.541
0.35288,56.91
0.34995,59.844
0.34702,64.342
0.34311,70.6
0.34018,77.836
0.33822,85.267
0.33529,92.308
0.33236,98.761
0.32942,104.24
0.32649,108.74
0.32258,112.06
0.31965,114.21
0.31574,115.19
0.31281,115.19
0.3089,114.41
0.30499,113.04
0.30108,111.08
0.29912,108.74
0.29717,106
0.29521,103.06
0.29228,99.739
0.28935,96.219
0.28641,92.503
0.2825,88.788
0.27957,84.876
0.27566,81.356
0.27175,78.422
0.26784,75.88
0.26588,73.729
0.26197,71.969
0.25904,70.6
0.25709,69.622
0.25611,68.84
0.25513,68.253
0.25709,67.862
0.26393,67.666
0.27566,67.471
0.29619,67.471
0.33529,67.471
0.38905,67.471
0.43891,67.471
0.47703,67.471
0.51124,67.471
0.55425,67.471
0.59238,67.275
0.62463,67.08
0.65103,66.884
0.67155,66.493
0.68426,66.102
0.69208,65.906
0.69697,65.319
0.69599,64.928
0.6911,64.537
0.68231,64.146
0.67155,63.559
0.65787,63.168
0.64125,62.777
0.62268,62.386
0.60117,61.995
0.57869,61.604
0.55621,61.213
0.53275,60.821
0.51613,60.43
0.49756,59.844
0.47507,59.452
0.45552,59.061
0.43891,58.475
0.42717,58.083
0.41642,57.497
0.40762,57.106
0.39883,56.715
0.39101,56.323
0.38416,55.932
0.3783,55.346
0.37341,55.15
0.3695,54.759
0.36657,54.563
0.36266,54.563
0.35973,54.759
0.35777,55.737
0.35582,57.692
0.35386,61.408
0.35093,67.08
0.348,73.924
0.34506,81.356
0.34311,88.592
0.34115,95.241
0.3392,101.3
0.33529,106.39
0.33236,110.3
0.32845,113.04
0.32551,114.6
0.32258,115.19
0.32063,114.8
0.31867,113.62
0.31476,111.86
0.31183,109.71
0.3089,107.17
0.30499,104.63
0.30108,101.69
0.29814,98.37
0.29423,94.85
0.29032,91.134
0.28739,87.419
0.28446,83.703
0.2825,80.378
0.27957,77.64
0.27664,75.098
0.27273,73.338
0.26979,71.773
0.26588,70.6
0.26393,69.622
0.26491,69.035
0.26979,68.644
0.28055,68.253
0.29912,68.253
0.32551,68.057
0.35484,68.057
0.3871,68.253
0.42815,68.253
0.4741,68.253
0.52102,68.253
0.56696,68.449
0.60802,68.253
0.64516,68.253
0.67449,68.057
0.69892,67.666
0.71554,67.471
0.72727,67.08
0.73216,66.688
0.73216,66.297
0.72923,65.906
0.72336,65.515
0.71359,65.124
0.6999,64.733
0.68328,64.342
0.66373,63.95
0.64223,63.559
0.61877,63.168
0.59531,62.777
0.57087,62.386
0.54936,61.995
0.53079,61.604
0.51124,61.213
0.49169,60.821
0.4741,60.235
0.45846,59.844
0.44477,59.452
0.43304,59.061
0.42229,58.67
0.41447,58.279
0.40665,57.888
0.40078,57.497
0.39589,57.106
0.39198,56.91
0.38905,56.715
0.38612,56.715
0.38319,56.91
0.38123,58.083
0.3783,60.235
0.37537,64.342
0.37243,70.404
0.37048,77.64
0.36755,85.463
0.36461,93.09
0.3607,99.935
0.35875,106.19
0.35679,111.47
0.35386,115.38
0.35093,118.12
0.348,119.49
0.34506,120.08
0.34213,119.49
0.3392,118.12
0.33627,116.36
0.33333,114.41
0.3304,112.06
0.32747,109.52
0.32454,106.58
0.32258,103.65
0.32063,100.13
0.31867,96.61
0.31574,92.894
0.31281,89.179
0.31085,85.854
0.30792,82.725
0.30499,79.987
0.30205,77.64
0.29912,75.88
0.29619,74.511
0.29521,73.533
0.29717,72.751
0.30205,72.164
0.31183,71.969
0.32942,71.969
0.35484,71.969
0.38807,71.969
0.42815,71.969
0.4741,72.164
0.52297,72.164
0.57087,71.969
0.61681,71.969
0.65787,71.773
0.69306,71.578
0.71848,71.186
0.73705,70.6
0.75269,70.209
0.76442,69.622
0.77126,69.035
0.77322,68.449
0.77224,67.862
0.76637,67.275
0.7566,66.884
0.74389,66.297
0.72825,65.906
0.70968,65.515
0.6911,65.124
0.67155,64.537
0.65005,64.146
0.62659,63.755
0.60411,63.364
0.58065,62.973
0.55914,62.386
0.53861,61.799
0.52102,61.408
0.5044,60.821
0.48974,60.235
0.47801,59.648
0.46725,59.257
0.45943,58.67
0.45259,58.279
0.44673,57.692
0.44086,57.301
0.43597,56.91
0.43206,56.715
0.42815,56.715
0.42424,56.91
0.42033,58.083
0.41642,60.43
0.41153,64.928
0.40762,71.186
0.40371,78.814
0.40078,87.027
0.39589,94.85
0.39198,102.09
0.3871,108.34
0.38221,113.62
0.37732,117.54
0.37243,120.08
0.36755,121.45
0.36266,121.64
0.35875,121.06
0.35386,119.69
0.34897,117.93
0.34604,115.78
0.34311,113.23
0.3392,110.5
0.33431,107.76
0.32942,104.63
0.32551,101.3
0.32063,97.588
0.31574,93.677
0.31085,89.961
0.30596,86.245
0.30108,82.921
0.29717,80.183
0.29326,77.836
0.29032,75.88
0.28739,74.316
0.28446,73.142
0.28348,72.164
0.28739,71.578
0.29717,71.186
0.31476,70.991
0.34115,70.795
0.37537,70.795
0.4174,70.795
0.46432,70.795
0.5132,70.795
0.55425,70.6
0.5914,70.6
0.62854,70.6
0.66178,70.209
0.69013,70.013
0.71261,69.622
0.72923,69.231
0.73998,68.84
0.74585,68.449
0.74585,67.862
0.74291,67.275
0.73509,66.884
0.72532,66.297
0.71359,65.711
0.69795,65.319
0.67937,64.928
0.65885,64.537
0.63636,64.146
0.6129,63.559
0.58749,63.168
0.56305,62.777
0.53959,62.19
0.51711,61.799
0.4956,61.408
0.47605,60.821
0.46139,60.235
0.44868,59.844
0.43597,59.257
0.42522,58.67
0.41544,58.279
0.40665,57.888
0.3998,57.301
0.39394,56.91
0.38807,56.715
0.38319,56.323
0.37928,56.128
0.37537,56.128
0.37243,56.715
0.37048,58.083
0.36755,60.821
0.36364,65.515
0.35973,71.969
0.35582,79.596
0.35191,87.419
0.348,95.046
0.34311,101.69
0.3392,107.76
0.33529,112.65
0.3304,116.36
0.32649,118.51
0.32356,119.69
0.3216,119.69
0.31769,118.9
0.31476,117.34
0.31183,115.38
0.30792,113.23
0.30499,110.5
0.30108,107.76
0.29717,104.63
0.29326,101.3
0.28935,97.784
0.28543,94.068
0.27957,90.352
0.27273,86.441
0.26686,82.921
0.26295,79.987
0.25806,77.445
0.25415,75.293
0.25122,73.533
0.24829,72.164
0.24633,71.382
0.24829,70.6
0.25415,70.013
0.26686,69.818
0.28739,69.622
0.31183,69.426
0.34018,69.426
0.3783,69.426
0.42229,69.426
0.46921,69.426
0.51613,69.426
0.56012,69.231
0.59922,69.231
0.63245,69.035
0.65982,68.84
0.68035,68.449
0.69404,68.057
0.70186,67.666
0.70479,67.08
0.70479,66.688
0.70088,66.102
0.69404,65.711
0.68328,65.319
0.6696,64.928
0.65298,64.537
0.63343,63.95
0.61193,63.559
0.58944,63.168
0.56598,62.777
0.54448,62.386
0.52395,61.799
0.50342,61.408
0.48289,61.017
0.46334,60.43
0.44477,60.039
0.42913,59.452
0.41544,59.061
0.40274,58.475
0.39296,58.083
0.38416,57.497
0.37634,57.106
0.37048,56.715
0.36559,56.323
0.36168,55.932
0.35875,55.737
0.35484,55.541
0.35191,55.737
0.34897,56.323
0.34506,57.692
0.34213,60.43
0.3392,64.928
0.33529,71.186
0.33236,78.227
0.32845,85.658
0.32551,92.699
0.32258,98.957
0.31965,104.43
0.31672,108.93
0.31281,112.26
0.30987,114.41
0.30596,115.38
0.30303,115.38
0.3001,114.6
0.29619,113.04
0.29326,111.08
0.28935,108.74
0.28641,106.19
0.28348,103.26
0.28152,99.935
0.27859,96.61
0.27566,92.894
0.27273,88.983
0.26882,85.267
0.26588,81.943
0.26197,78.814
0.25904,76.271
0.25513,74.12
0.2522,72.36
0.24829,70.991
0.24731,70.013
0.24633,69.231
0.24829,68.84
0.25318,68.449
0.26393,68.253
0.28152,68.253
0.30792,68.057
0.34115,68.057
0.38025,68.057
0.42424,67.862
0.47019,67.862
0.51417,67.862
0.55621,67.862
0.58944,67.666
0.61486,67.471
0.6393,67.275
0.65885,66.884
0.67351,66.493
0.68328,66.297
0.68817,65.906
0.68817,65.515
0.68328,64.928
0.67546,64.537
0.66471,64.146
0.64907,63.755
0.63343,63.364
0.61681,62.973
0.59726,62.582
0.57478,62.19
0.5523,61.799
0.52884,61.408
0.50733,61.017
0.48583,60.626
0.46628,60.039
0.4477,59.648
0.43206,59.061
0.41838,58.67
0.40665,58.279
0.39687,57.692
0.39003,57.301
0.38319,56.715
0.37634,56.323
0.37146,55.932
0.36657,55.541
0.36168,55.346
0.35777,55.15
0.35484,55.15
0.35191,55.541
0.34897,56.715
0.34604,59.061
0.34311,63.168
0.34115,69.035
0.3392,76.076
0.33627,83.703
0.33236,90.939
0.32942,97.588
0.32649,103.46
0.32258,108.54
0.31965,112.26
0.31672,114.8
0.31378,116.17
0.31085,116.56
0.30694,115.97
0.30499,114.8
0.30303,113.04
0.3001,110.89
0.29717,108.34
0.29423,105.61
0.2913,102.67
0.28739,99.348
0.28446,95.632
0.28055,91.917
0.27761,88.201
0.2737,84.485
0.27077,81.16
0.26882,78.227
0.26686,75.685
0.26393,73.533
0.261,71.969
0.25806,70.6
0.25513,69.818
0.25611,69.035
0.26002,68.644
0.26979,68.449
0.28641,68.253
0.31183,68.057
0.34506,68.057
0.38416,68.057
0.42229,68.057
0.46041,68.057
0.50244,68.057
0.54545,68.057
0.58553,68.057
0.6217,67.862
0.65103,67.666
0.67546,67.471
0.69306,67.08
0.70479,66.688
0.71163,66.102
0.71359,65.906
0.71065,65.319
0.70479,64.928
0.69501,64.537
0.67449,64.146
0.65787,63.559
0.63832,63.168
0.60508,62.777
0.58162,62.386
0.55718,61.995
0.53372,61.604
0.50049,61.213
0.47996,60.626
0.46432,60.235
0.44184,59.844
0.42815,59.257
0.41544,58.866
0.40469,58.279
0.39589,57.888
0.38807,57.497
0.38123,56.91
0.37634,56.715
0.37146,56.128
0.36657,55.737
0.36364,55.541
0.36168,55.346
0.35875,55.346
0.35582,55.737
0.35191,56.715
0.34897,58.67
0.34604,62.386
0.34311,68.057
0.3392,75.098
0.33627,82.725
0.33236,90.157
0.32942,97.001
0.32551,103.26
0.32258,108.74
0.32063,112.84
0.31769,115.58
0.31476,117.34
0.31085,117.73
0.30792,117.34
0.30401,116.36
0.30108,114.6
0.29717,112.65
0.29326,110.3
0.28935,107.76
0.28641,105.02
0.28348,101.89
0.28152,98.566
0.27957,95.046
0.27664,91.33
0.27273,87.614
0.26979,84.094
0.26588,80.965
0.26295,78.422
0.25904,76.271
0.25709,74.511
0.25709,73.142
0.261,72.164
0.26784,71.382
0.28055,70.795
0.30108,70.6
0.32942,70.6
0.36559,70.404
0.43109,70.404
0.48094,70.404
0.53568,70.404
0.61193,70.404
0.65298,70.6
0.68622,70.6
0.71359,70.6
0.73118,70.404
0.74194,70.209
0.74976,70.013
0.75367,69.622
0.75073,69.231
0.74487,68.84
0.73509,68.449
0.71359,67.862
0.69501,67.471
0.67449,67.08
0.652,66.688
0.6305,66.297
0.60899,65.906
0.58651,65.515
0.56305,65.124
0.54057,64.733
0.51906,64.342
0.49951,63.95
0.48289,63.364
0.46725,62.973
0.45455,62.386
0.44282,61.995
0.43402,61.408
0.4262,61.213
0.42033,60.626
0.41544,60.235
0.41056,59.844
0.40665,59.257
0.40371,58.866
0.3998,58.475
0.39687,58.279
0.39394,58.083
0.39101,58.083
0.38807,58.475
0.38514,59.844
0.38221,62.386
0.38025,66.884
0.37732,73.338
0.37537,81.16
0.37146,89.179
0.36852,97.001
0.36559,104.04
0.36266,110.1
0.35875,115.38
0.35582,119.3
0.35288,121.84
0.34995,123.21
0.34702,123.21
0.34409,122.62
0.34115,121.25
0.3392,119.49
0.33627,117.54
0.33333,114.99
0.3304,112.45
0.32747,109.71
0.32454,106.58
0.3216,103.26
0.31867,99.739
0.31574,96.024
0.31183,92.112
0.3089,88.396
0.30596,85.072
0.30499,82.138
0.30596,79.791
0.30987,77.836
0.31965,76.271
0.33724,75.098
0.36266,74.12
0.39687,73.533
0.43891,73.142
0.48583,72.947
0.53568,72.751
0.58456,72.751
0.63148,72.751
0.66764,72.751
0.69697,72.751
0.72434,72.555
0.7478,72.36
0.76637,72.164
0.77908,71.969
0.7869,71.578
0.78983,71.186
0.78788,70.795
0.78201,70.209
0.77224,69.818
0.75953,69.231
0.74487,68.84
0.72923,68.253
0.70968,67.666
0.68817,67.275
0.66471,66.884
0.6393,66.297
0.61486,65.906
0.58944,65.515
0.56598,65.124
0.5435,64.537
0.52297,64.146
0.5044,63.559
0.48778,62.973
0.47507,62.582
0.46432,61.995
0.45357,61.408
0.44477,60.821
0.43597,60.43
0.42913,59.844
0.42229,59.452
0.41642,58.866
0.41056,58.475
0.40567,58.083
0.40078,57.692
0.39589,57.497
0.39101,57.497
0.3871,57.692
0.38319,58.866
0.3783,61.213
0.37341,65.319
0.36755,71.773
0.36266,79.4
0.35777,87.614
0.35191,95.437
0.348,102.67
0.34311,109.13
0.33822,114.41
0.33431,118.32
0.3304,121.06
0.32747,122.43
0.32356,122.62
0.31965,122.03
0.31574,120.86
0.31085,119.1
0.30694,116.95
0.30205,114.6
0.29717,112.06
0.29326,109.32
0.28837,106.19
0.28446,102.67
0.28152,99.153
0.27859,95.241
0.27468,91.33
0.27077,87.614
0.26686,84.289
0.26393,81.356
0.26295,78.814
0.26588,76.858
0.27468,75.098
0.29228,73.924
0.31769,72.947
0.35288,72.36
0.39492,71.969
0.43597,71.773
0.47605,71.578
0.52199,71.382
0.56794,71.382
0.61193,71.382
0.65005,71.186
0.68231,71.186
0.70772,71.186
0.7263,70.991
0.739,70.795
0.74585,70.6
0.74878,70.404
0.74682,70.013
0.74096,69.426
0.73216,69.035
0.72043,68.644
0.70577,68.057
0.68817,67.471
0.66764,67.08
0.64516,66.493
0.6217,66.102
0.59629,65.711
0.57087,65.319
0.54643,64.733
0.52297,64.342
0.50244,63.95
0.48485,63.559
0.46823,62.973
0.45161,62.582
0.43695,61.995
0.42424,61.408
0.41349,61.017
0.40469,60.43
0.39687,59.844
0.39003,59.452
0.38416,58.866
0.37928,58.475
0.37537,58.083
0.37146,57.692
0.36852,57.301
0.36461,56.91
0.3607,56.91
0.35777,57.106
0.35386,57.692
0.34995,59.257
0.34506,62.19
0.34115,67.275
0.33724,73.924
0.33333,81.552
0.32942,89.374
0.32649,96.806
0.32356,103.46
0.32063,109.32
0.31672,113.82
0.31281,117.14
0.3089,119.3
0.30596,120.27
0.30205,120.08
0.29814,119.3
0.29423,117.93
0.2913,115.97
0.28739,113.62
0.28446,111.28
0.28152,108.54
0.27859,105.41
0.27566,101.89
0.27175,98.175
0.26784,94.459
0.26491,90.548
0.261,86.832
0.25709,83.312
0.25415,80.378
0.25318,77.836
0.25415,75.685
0.26002,74.12
0.26979,72.947
0.28739,71.969
0.31378,71.382
0.34897,70.795
0.39101,70.6
0.43891,70.6
0.48778,70.404
0.53763,70.404
0.58358,70.404
0.62561,70.404
0.6608,70.404
0.68915,70.209
0.7087,70.209
0.72141,70.013
0.73118,69.818
0.73705,69.622
0.739,69.231
0.73607,68.84
0.72923,68.449
0.71945,68.057
0.70479,67.666
0.68719,67.08
0.66764,66.688
0.64516,66.102
0.62366,65.711
0.59531,65.319
0.56305,64.928
0.5347,64.342
0.51026,63.95
0.48778,63.559
0.46725,62.973
0.44966,62.582
0.43402,62.19
0.42033,61.604
0.4086,61.213
0.39883,60.626
0.39003,60.235
0.38416,59.648
0.3783,59.257
0.37341,58.67
0.3695,58.279
0.36559,57.888
0.36168,57.497
0.35777,57.106
0.35484,56.91
0.35191,56.715
0.34897,56.91
0.34506,57.301
0.34213,58.67
0.3392,61.408
0.33724,65.711
0.33431,71.969
0.3304,79.205
0.32747,86.832
0.32356,94.068
0.31965,100.72
0.31672,106.39
0.31281,111.28
0.30987,114.8
0.30694,116.95
0.30303,118.12
0.3001,118.12
0.29814,117.54
0.29619,116.17
0.29326,114.41
0.29032,112.06
0.28739,109.52
0.28348,106.78
0.28055,103.85
0.27664,100.52
0.2737,96.806
0.26979,93.09
0.26686,88.983
0.26295,85.267
0.261,81.943
0.26002,79.205
0.25904,76.662
0.25904,74.902
0.26295,73.338
0.27175,72.164
0.28739,71.186
0.31085,70.6
0.34213,70.209
0.38025,70.013
0.42229,69.818
0.46725,69.818
0.51222,69.622
0.54936,69.622
0.58065,69.622
0.61095,69.622
0.63832,69.622
0.6608,69.622
0.6784,69.426
0.69013,69.231
0.69697,69.035
0.69892,68.84
0.69599,68.449
0.69013,68.057
0.68035,67.666
0.66862,67.275
0.65494,66.688
0.63832,66.102
0.61877,65.711
0.59726,65.319
0.57478,64.928
0.55132,64.537
0.52786,64.146
0.50635,63.755
0.48583,63.168
0.46628,62.777
0.44868,62.386
0.43402,61.799
0.42229,61.408
0.41251,60.821
0.40274,60.235
0.39492,59.844
0.3871,59.452
0.38123,58.866
0.37634,58.475
0.37146,57.888
0.36755,57.497
0.36364,57.106
0.3607,56.715
0.35777,56.519
0.35484,56.519
0.35288,56.519
0.34995,57.106
0.34702,58.67
0.34409,61.799
0.34115,66.688
0.33822,73.533
0.33431,81.16
0.33138,88.983
0.32747,96.219
0.32454,102.87
0.32063,108.74
0.31769,113.43
0.31476,116.75
0.31281,118.9
0.31085,119.88
0.30792,120.08
0.30401,119.3
0.30108,117.93
0.29717,116.17
0.29423,113.82
0.29032,111.47
0.28641,108.74
0.28348,105.8
0.27957,102.67
0.27761,98.957
0.27566,95.241
0.27273,91.33
0.26882,87.614
0.26588,84.094
0.26295,81.16
0.261,78.422
0.26197,76.467
0.26686,74.707
0.27761,73.533
0.29619,72.555
0.32258,71.969
0.35679,71.382
0.39198,71.186
0.42717,70.991
0.46921,70.991
0.51417,70.991
0.55718,70.991
0.59726,70.991
0.63245,71.186
0.66178,71.186
0.68426,70.991
0.70088,70.991
0.71163,70.795
0.71848,70.6
0.71945,70.404
0.71652,70.209
0.71065,69.818
0.70186,69.426
0.68915,68.84
0.67449,68.449
0.65689,68.057
0.63636,67.471
0.61486,67.275
0.5914,66.688
0.56794,66.297
0.54448,65.906
0.52199,65.515
0.50244,65.124
0.48583,64.537
0.46823,64.146
0.45259,63.755
0.43793,63.364
0.4262,62.973
0.41544,62.386
0.40567,61.995
0.39785,61.408
0.39198,61.017
0.38612,60.626
0.38221,60.235
0.3783,59.844
0.37537,59.452
0.37341,59.061
0.37048,58.67
0.36755,58.67
0.36461,58.866
0.36168,59.844
0.35875,61.799
0.35582,65.711
0.35288,71.773
0.34995,79.205
0.34702,87.223
0.34409,95.046
0.34115,102.48
0.3392,108.93
0.33627,114.6
0.33333,118.9
0.3304,121.84
0.32747,123.6
0.32551,123.99
0.32258,123.79
0.31965,122.62
0.31672,121.25
0.31378,119.3
0.31085,117.34
0.30792,114.8
0.30694,112.45
0.30499,109.52
0.30205,106.39
0.29912,102.87
0.29619,99.153
0.29326,95.241
0.29032,91.33
0.28739,87.81
0.28543,84.681
0.28446,82.138
0.28739,79.791
0.29423,78.227
0.30499,76.858
0.32356,75.88
0.34995,75.293
0.38514,74.902
0.4262,74.511
0.47116,74.511
0.51808,74.316
0.56403,74.511
0.60606,74.511
0.64418,74.511
0.67546,74.511
0.70088,74.316
0.71848,74.12
0.72923,73.924
0.73705,73.729
0.74194,73.338
0.74389,72.947
0.74096,72.36
0.73509,71.773
0.7263,71.186
0.71457,70.6
0.6999,70.013
0.68231,69.426
0.66178,68.84
0.64223,68.253
0.62366,67.862
0.60215,67.275
0.57967,66.884
0.55718,66.493
0.53568,66.102
0.51613,65.711
0.49853,65.319
0.48192,64.733
0.46823,64.342
0.4565,63.755
0.44575,63.168
0.43695,62.582
0.43011,61.995
0.42522,61.604
0.41935,61.017
0.41544,60.43
0.41056,60.039
0.40665,59.648
0.40274,59.257
0.39785,58.866
0.39198,58.866
0.3871,59.257
0.38221,60.43
0.37732,62.973
0.37341,67.862
0.37048,74.707
0.36657,82.725
0.36168,91.33
0.35679,99.544
0.35191,106.98
0.348,113.62
0.34311,118.9
0.33822,122.82
0.33431,125.36
0.3304,126.73
0.32649,126.92
0.3216,126.14
0.31867,124.77
0.31574,123.01
0.31183,121.06
0.30792,118.71
0.30401,116.17
0.29912,113.43
0.29521,110.5
0.29032,107.17
0.28641,103.46
0.28152,99.544
0.27664,95.632
0.27273,91.721
0.26882,88.005
0.26686,84.876
0.26588,82.138
0.26784,79.791
0.27468,78.031
0.28935,76.662
0.31183,75.489
0.34409,74.902
0.38319,74.316
0.42815,73.924
0.47605,73.729
0.52395,73.533
0.56989,73.533
0.60606,73.533
0.63539,73.338
0.66276,73.338
0.68524,73.338
0.70381,73.142
0.71652,72.751
0.72434,72.555
0.72727,72.164
0.72532,71.773
0.72043,71.382
0.71261,70.795
0.70088,70.404
0.68817,69.818
0.67351,69.231
0.65591,68.84
0.63539,68.253
0.6129,67.862
0.58944,67.471
0.565,66.884
0.54154,66.493
0.51808,65.906
0.4956,65.515
0.4741,64.928
0.45552,64.537
0.43891,64.146
0.4262,63.559
0.41544,62.973
0.40469,62.582
0.39492,61.995
0.3871,61.408
0.38025,61.017
0.37341,60.43
0.36852,60.039
0.36364,59.648
0.35973,59.061
0.35582,58.67
0.35191,58.475
0.34897,58.475
0.34604,58.67
0.34213,59.452
0.3392,61.408
0.33529,65.124
0.3304,70.991
0.32649,78.422
0.32258,86.636
0.31867,94.655
0.31476,102.28
0.31085,108.93
0.30694,114.6
0.30303,118.9
0.3001,121.84
0.29814,123.6
0.29521,124.19
0.29228,123.79
0.28837,122.62
0.28446,121.06
0.28055,119.1
0.27664,116.75
0.27273,114.21
0.26882,111.28
0.26588,108.15
0.26197,104.82
0.25904,101.11
0.25709,97.197
0.25513,93.286
0.25122,89.374
0.24829,85.854
0.24438,82.725
0.2434,79.987
0.24438,77.836
0.25024,76.076
0.26393,74.902
0.28446,73.924
0.31476,73.142
0.35191,72.751
0.38905,72.36
0.42717,72.164
0.47116,72.164
0.51711,72.164
0.56109,72.164
0.6002,72.164
0.63343,71.969
0.6608,71.969
0.68133,71.773
0.69599,71.578
0.70577,71.382
0.70968,71.186
0.70968,70.795
0.70577,70.404
0.69892,70.013
0.68817,69.426
0.67546,69.035
0.65982,68.644
0.64125,68.057
0.61975,67.666
0.59726,67.08
0.5738,66.688
0.54936,66.102
0.52493,65.711
0.50147,65.319
0.48192,64.733
0.46432,64.342
0.44673,63.755
0.43109,63.364
0.41642,62.777
0.40371,62.19
0.39296,61.799
0.38319,61.213
0.37537,60.821
0.36852,60.235
0.36266,59.844
0.35777,59.452
0.35386,58.866
0.35093,58.475
0.348,58.083
0.34506,57.888
0.34213,57.692
0.3392,57.888
0.33627,58.475
0.33236,59.844
0.32845,62.973
0.32551,67.666
0.3216,74.316
0.31769,81.943
0.31476,89.961
0.31281,97.393
0.30987,104.24
0.30596,110.1
0.30303,114.8
0.29912,118.32
0.29619,120.47
0.29228,121.45
0.28837,121.64
0.28543,120.86
0.28152,119.49
0.27859,117.54
0.27468,115.38
0.27175,112.84
0.26979,110.1
0.26686,106.98
0.26393,103.46
0.26002,99.544
0.25709,95.632
0.25318,91.525
0.25024,87.614
0.24633,83.898
0.2434,80.965
0.24145,78.227
0.24242,76.271
0.24633,74.511
0.25513,73.338
0.26979,72.36
0.29326,71.773
0.32454,71.382
0.36266,71.186
0.40665,70.991
0.45357,70.991
0.50147,70.991
0.54643,70.991
0.58749,70.991
0.62268,70.991
0.65103,70.991
0.67155,70.991
0.68524,70.795
0.69599,70.6
0.70283,70.404
0.70479,70.013
0.70381,69.622
0.69795,69.231
0.68915,68.84
0.67644,68.253
0.65982,67.862
0.64125,67.471
0.61975,67.08
0.59922,66.493
0.57869,66.102
0.55523,65.711
0.53177,65.319
0.50831,64.733
0.48583,64.342
0.46432,63.95
0.44575,63.559
0.42913,62.973
0.41447,62.386
0.40176,61.995
0.39198,61.408
0.38319,61.017
0.37634,60.43
0.37146,60.039
0.36657,59.648
0.36168,59.061
0.35777,58.67
0.35386,58.279
0.35093,57.888
0.348,57.497
0.34409,57.497
0.34115,57.692
0.33822,58.279
0.33529,59.844
0.33333,62.777
0.3304,67.666
0.32845,74.511
0.32454,82.138
0.3216,89.961
0.31769,97.393
0.31476,104.04
0.31085,110.1
0.30792,114.8
0.30401,118.32
0.30108,120.47
0.29814,121.64
0.29423,121.64
0.29228,120.86
0.29228,119.49
0.29423,117.73
0.29326,115.58
0.29032,113.23
0.28739,110.3
0.28446,107.17
0.28055,103.85
0.27664,100.13
0.2737,96.219
0.26979,92.112
0.26588,88.396
0.26393,84.681
0.26197,81.747
0.26002,79.205
0.26002,77.054
0.26393,75.293
0.27273,73.924
0.28935,72.947
0.31476,72.164
0.348,71.773
0.38807,71.382
0.43402,71.186
0.48289,70.991
0.53079,70.991
0.57087,70.991
0.60508,70.991
0.63832,70.991
0.66764,70.795
0.69208,70.795
0.71065,70.6
0.72434,70.6
0.73216,70.404
0.73412,70.013
0.73314,69.622
0.72727,69.231
0.7175,68.84
0.70577,68.449
0.6911,67.862
0.67351,67.471
0.65298,66.884
0.6305,66.493
0.60704,66.102
0.58162,65.711
0.55718,65.319
0.53275,64.928
0.50929,64.537
0.48778,63.95
0.46823,63.364
0.45064,62.973
0.43695,62.386
0.4262,61.995
0.41544,61.408
0.40567,61.017
0.39785,60.43
0.39003,60.039
0.38416,59.648
0.3783,59.061
0.37341,58.67
0.3695,58.279
0.36559,57.888
0.36266,57.497
0.35973,57.497
0.35777,57.497
0.35484,58.279
0.35191,59.844
0.348,63.168
0.34506,68.253
0.34115,75.293
0.33724,83.312
0.33431,91.33
0.3304,98.761
0.32747,105.61
0.32356,111.86
0.31965,116.56
0.31769,120.08
0.31574,122.43
0.31281,123.4
0.30987,123.6
0.30596,122.82
0.30303,121.25
0.29912,119.49
0.29521,117.34
0.2913,114.99
0.28837,112.26
0.28446,109.32
0.28055,106
0.27859,102.48
0.27664,98.566
0.2737,94.459
0.26979,90.352
0.26588,86.636
0.26295,83.116
0.261,80.378
0.261,78.031
0.26491,76.076
0.27566,74.511
0.29423,73.338
0.32063,72.555
0.35679,71.969
0.39296,71.578
0.43109,71.382
0.47605,71.382
0.52395,71.382
0.57087,71.382
0.61388,71.382
0.652,71.382
0.68328,71.186
0.7087,71.186
0.72727,71.186
0.73998,70.991
0.7478,70.795
0.74976,70.404
0.74682,70.013
0.74194,69.622
0.73314,69.231
0.72141,68.644
0.70577,68.253
0.68719,67.666
0.66667,67.275
0.64321,66.884
0.61877,66.297
0.59238,65.906
0.56696,65.515
0.54154,65.124
0.52004,64.537
0.50049,64.146
0.48094,63.559
0.46334,63.168
0.44673,62.777
0.43206,62.19
0.41935,61.604
0.4086,61.017
0.39883,60.626
0.39101,60.039
0.38514,59.648
0.37928,59.061
0.37537,58.67
0.37243,58.279
0.3695,57.888
0.36559,57.497
0.36266,57.301
0.35875,57.497
0.35582,58.083
0.35191,59.844
0.348,62.973
0.34409,68.449
0.34115,75.489
0.33724,83.703
0.33431,91.721
0.33138,99.544
0.32845,106.58
0.32551,112.65
0.3216,117.54
0.31769,121.06
0.31476,123.4
0.31085,124.58
0.30694,124.58
0.30401,123.99
0.3001,122.62
0.29619,120.86
0.29228,118.71
0.28935,116.36
0.28739,113.62
0.28446,110.89
0.28055,107.56
0.27664,104.24
0.2737,100.52
0.26979,96.61
0.26588,92.503
0.26197,88.788
0.25806,85.267
0.25611,82.334
0.25709,79.987
0.26002,78.031
0.26882,76.467
0.28446,75.098
0.3089,74.316
0.34213,73.729
0.38416,73.338
0.43109,73.142
0.48192,72.947
0.53177,72.947
0.58065,72.947
0.62366,72.751
0.66178,72.751
0.69208,72.751
0.71457,72.751
0.72923,72.751
0.74096,72.555
0.74878,72.36
0.75171,72.164
0.75171,71.773
0.74682,71.186
0.739,70.795
0.72727,70.404
0.71261,69.818
0.69501,69.426
0.67449,68.84
0.65494,68.449
0.63441,68.057
0.61095,67.471
0.58651,67.08
0.56207,66.688
0.53763,66.297
0.51515,65.906
0.49462,65.319
0.47507,64.733
0.45846,64.342
0.44477,63.755
0.43206,63.364
0.42229,62.973
0.41447,62.386
0.40762,61.995
0.40176,61.408
0.39687,61.017
0.39198,60.626
0.38807,60.039
0.38416,59.844
0.38025,59.452
0.37634,59.257
0.37341,59.452
0.37048,60.235
0.36755,61.995
0.36461,65.711
0.36266,71.382
0.35973,78.814
0.35582,87.223
0.35191,95.632
0.34897,103.46
0.34506,110.69
0.34213,116.75
0.33822,121.45
0.33529,124.77
0.33236,126.92
0.32845,127.71
0.32551,127.51
0.32258,126.53
0.32063,124.97
0.31769,123.21
0.31476,121.06
0.31183,118.71
0.3089,116.36
0.30499,113.43
0.30205,110.5
0.29912,107.17
0.29619,103.46
0.29228,99.544
0.28935,95.632
0.28641,91.721
0.28543,88.201
0.28348,85.072
0.28348,82.529
0.28739,80.378
0.29814,78.814
0.31574,77.445
0.34311,76.467
0.37732,75.685
0.41838,75.098
0.4653,74.902
0.51417,74.707
0.56305,74.707
0.60313,74.707
0.63636,74.707
0.6696,74.511
0.69795,74.511
0.72141,74.316
0.73998,74.12
0.75171,73.924
0.75855,73.533
0.76149,73.142
0.75953,72.751
0.75464,72.164
0.74585,71.578
0.73509,70.991
0.72239,70.404
0.70674,69.818
0.68817,69.231
0.66764,68.644
0.64418,68.253
0.62072,67.666
0.59629,67.275
0.57185,66.688
0.54839,66.297
0.5259,65.711
0.50538,65.124
0.48583,64.537
0.47116,64.146
0.45846,63.559
0.44673,62.973
0.435,62.582
0.4262,61.995
0.41838,61.408
0.41153,61.017
0.40469,60.626
0.3998,60.039
0.39492,59.648
0.39003,59.257
0.38612,58.866
0.38221,58.67
0.37928,58.67
0.37537,59.257
0.37048,61.017
0.36657,64.342
0.36168,69.818
0.35679,77.054
0.35191,85.463
0.34604,93.872
0.34115,101.89
0.33627,109.13
0.33138,115.19
0.32649,120.08
0.32258,123.4
0.31965,125.55
0.31574,126.53
0.31085,126.53
0.30694,125.55
0.30205,123.99
0.29814,122.03
0.29326,119.88
0.28935,117.34
0.28543,114.8
0.28055,111.86
0.27664,108.54
0.2737,105.02
0.27175,101.11
0.26882,97.197
0.26491,93.09
0.261,89.179
0.25709,85.658
0.25415,82.529
0.25318,79.987
0.25611,77.836
0.26588,76.271
0.28348,75.098
0.30987,74.316
0.34506,73.533
0.38123,73.338
0.41935,72.947
0.46432,72.751
0.51124,72.751
0.55816,72.751
0.6002,72.555
0.63734,72.555
0.66764,72.555
0.69208,72.36
0.70968,72.164
0.72141,71.969
0.72727,71.773
0.72923,71.382
0.7263,70.991
0.72043,70.404
0.71261,70.013
0.70088,69.426
0.68622,68.84
0.6696,68.253
0.64907,67.862
0.62757,67.275
0.60411,66.884
0.57869,66.297
0.55327,65.906
0.53079,65.319
0.51124,64.928
0.48974,64.537
0.46921,64.146
0.45064,63.559
0.43402,62.973
0.41935,62.582
0.40665,61.995
0.39589,61.408
0.38612,61.017
0.3783,60.43
0.37243,60.039
0.36657,59.452
0.36266,59.061
0.35875,58.67
0.35582,58.279
0.35191,57.888
0.34897,57.497
0.34506,57.497
0.34115,57.888
0.33822,58.67
0.33431,60.626
0.3304,64.537
0.32551,70.404
0.3216,77.836
0.31867,85.854
0.31574,93.872
0.31183,101.3
0.3089,107.95
0.30499,113.43
0.30108,117.73
0.29717,120.67
0.29326,122.43
0.29032,122.82
0.28641,122.43
0.2825,121.45
0.27957,119.69
0.27566,117.54
0.27273,115.19
0.27077,112.45
0.26784,109.52
0.26491,106.39
0.26197,102.67
0.25806,98.957
0.25513,94.85
0.25122,90.743
0.24731,87.027
0.2434,83.507
0.24047,80.378
0.23851,78.031
0.23949,76.076
0.24438,74.511
0.25415,73.338
0.27175,72.36
0.29814,71.969
0.33333,71.578
0.37439,71.382
0.42131,71.186
0.47116,70.991
0.51906,70.991
0.565,70.991
0.60508,70.795
0.6393,70.795
0.66373,70.795
0.68133,70.6
0.69599,70.404
0.70577,70.209
0.71163,69.818
0.71261,69.622
0.70968,69.035
0.70381,68.644
0.69306,68.253
0.67937,67.666
0.66276,67.275
0.64223,66.688
0.62268,66.102
0.60313,65.711
0.58065,65.319
0.55621,64.928
0.53177,64.537
0.50733,64.146
0.48485,63.559
0.46334,63.168
0.44477,62.582
0.42815,62.19
0.41349,61.604
0.40078,61.213
0.39003,60.626
0.38221,60.235
0.37634,59.648
0.3695,59.257
0.36461,58.67
0.35973,58.279
0.35582,57.888
0.35191,57.301
0.348,56.91
0.34506,56.715
0.34115,56.519
0.33822,56.715
0.33529,57.106
0.33236,58.475
0.3304,61.213
0.32747,65.711
0.32356,72.164
0.32063,79.596
0.31672,87.419
0.31281,94.655
0.3089,101.3
0.30499,107.17
0.30108,112.06
0.29814,115.58
0.29423,117.93
0.2913,119.1
0.28837,119.3
0.28641,118.51
0.28348,117.14
0.28055,115.19
0.27761,112.84
0.2737,110.3
0.26979,107.56
0.26686,104.43
0.26295,101.11
0.26002,97.197
0.25611,93.481
0.25318,89.374
0.25024,85.658
0.24829,82.138
0.24536,79.205
0.2434,76.662
0.24242,74.707
0.24438,73.142
0.25122,71.969
0.26393,70.991
0.28543,70.404
0.31574,70.013
0.35386,69.818
0.39785,69.622
0.44575,69.622
0.48778,69.426
0.52493,69.426
0.565,69.426
0.60117,69.426
0.63343,69.426
0.65982,69.426
0.68035,69.231
0.69501,69.035
0.70381,68.84
0.70674,68.644
0.70577,68.253
0.70088,67.666
0.69208,67.275
0.68133,66.688
0.66471,66.297
0.64321,65.906
0.62268,65.515
0.6002,64.928
0.57771,64.537
0.55425,64.146
0.53079,63.755
0.50831,63.168
0.4868,62.973
0.46628,62.386
0.44868,61.995
0.43402,61.604
0.42326,61.017
0.41153,60.626
0.40176,60.039
0.39296,59.648
0.38514,59.061
0.37928,58.67
0.37341,58.279
0.36852,57.692
0.36461,57.301
0.36168,56.91
0.35875,56.519
0.35582,56.128
0.35386,55.932
0.35191,55.932
0.34897,56.323
0.34604,57.301
0.34311,59.648
0.34018,63.95
0.33724,70.013
0.33333,77.445
0.3304,85.267
0.32649,92.894
0.32356,99.739
0.31965,106
0.31769,111.28
0.31574,115.38
0.31281,118.12
0.30987,119.69
0.30694,120.08
0.30401,119.69
0.30108,118.51
0.29814,116.75
0.29423,114.8
0.2913,112.26
0.28739,109.52
0.28446,106.58
0.28152,103.26
0.27957,99.544
0.27761,95.632
0.27468,91.721
0.27077,87.614
0.26784,84.094
0.26393,80.769
0.261,78.031
0.26002,75.685
0.261,73.729
0.26686,72.36
0.27957,71.382
0.29912,70.6
0.32258,70.013
0.35093,69.818
0.3871,69.426
0.43011,69.426
0.47605,69.426
0.52199,69.426
0.56598,69.426
0.60411,69.426
0.63734,69.426
0.66471,69.426
0.68524,69.231
0.6999,69.231
0.7087,69.035
0.71163,68.644
0.71163,68.253
0.7087,67.862
0.70283,67.471
0.69208,67.08
0.67937,66.493
0.66276,66.102
0.64418,65.711
0.62268,65.319
0.6002,64.733
0.57674,64.342
0.55523,63.95
0.5347,63.559
0.5132,62.973
0.49267,62.582
0.47312,62.19
0.45455,61.604
0.43891,61.213
0.42424,60.821
0.41251,60.235
0.40274,59.844
0.39394,59.452
0.38612,58.866
0.38025,58.475
0.37634,58.083
0.37243,57.692
0.3695,57.106
0.36559,56.91
0.36266,56.519
0.35973,56.519
0.35679,56.519
0.35386,56.715
0.35093,57.692
0.34702,59.844
0.34409,63.755
0.34018,69.818
0.33822,77.249
0.33627,85.267
0.33333,92.894
0.32942,99.935
0.32649,106.39
0.32258,111.86
0.31965,115.97
0.31574,118.9
0.31281,120.47
0.30987,121.06
0.30596,120.67
0.30303,119.49
0.3001,117.93
0.29717,115.97
0.29521,113.62
0.29326,110.89
0.28935,108.15
0.28641,105.02
0.28348,101.5
0.28055,97.979
0.27664,94.068
0.2737,90.157
0.27077,86.441
0.26784,83.116
0.26491,80.378
0.26393,78.031
0.26491,76.076
0.26979,74.511
0.27957,73.338
0.29619,72.555
0.32063,72.164
0.35386,71.773
0.39394,71.578
0.43793,71.382
0.48485,71.382
0.53079,71.382
0.57478,71.382
0.61388,71.382
0.64321,71.382
0.66471,71.382
0.68524,71.382
0.70088,71.186
0.71261,70.991
0.71848,70.6
0.72043,70.404
0.71848,70.013
0.71359,69.622
0.70381,69.035
0.69208,68.644
0.67644,68.057
0.65982,67.666
0.64321,67.275
0.62268,66.884
0.60117,66.297
0.57771,65.906
0.55523,65.515
0.53275,65.124
0.51124,64.733
0.49169,64.342
0.4741,63.755
0.45846,63.364
0.44477,62.973
0.43402,62.386
0.42522,61.799
0.41838,61.408
0.41153,60.821
0.40567,60.43
0.40078,60.039
0.39687,59.648
0.39296,59.061
0.39003,58.67
0.3871,58.279
0.38514,58.083
0.38221,58.083
0.38025,58.475
0.3783,59.648
0.37634,62.386
0.37341,66.884
0.37146,73.533
0.36852,81.552
0.36559,89.961
0.36168,97.979
0.35875,105.41
0.35582,111.86
0.35288,117.14
0.34995,121.06
0.34702,123.79
0.34409,125.16
0.34213,125.36
0.34018,124.58
0.33724,123.4
0.33431,121.45
0.33138,119.49
0.32747,116.95
0.32454,114.41
0.32063,111.47
0.31769,108.34
0.31378,104.82
0.31085,101.11
0.30792,97.393
0.30499,93.481
0.30303,89.57
0.30108,86.05
0.29814,82.921
0.29619,80.574
0.29717,78.422
0.30205,76.858
0.31378,75.489
0.33333,74.707
0.36168,74.12
0.39687,73.533
0.43891,73.338
0.48485,73.142
0.52493,73.142
0.56109,73.142
0.6002,73.142
0.63734,72.947
0.66862,72.751
0.69501,72.751
0.71554,72.36
0.73021,72.164
0.73998,71.969
0.74389,71.382
0.74389,70.991
0.73998,70.404
0.73314,69.818
0.72434,69.231
0.71163,68.644
0.69697,68.057
0.68035,67.471
0.6608,67.08
0.64027,66.688
0.61779,66.102
0.59433,65.711
0.57087,65.319
0.54839,64.733
0.52688,64.537
0.50635,63.95
0.48974,63.559
0.47605,62.973
0.46237,62.582
0.44966,61.995
0.43891,61.408
0.42913,60.821
0.42033,60.235
0.41349,59.844
0.40567,59.452
0.39785,58.866
0.39101,58.279
0.38612,57.888
0.38221,57.497
0.3783,57.301
0.37439,57.106
0.37048,57.301
0.36559,58.083
0.3607,59.844
0.35679,63.755
0.35191,69.426
0.34702,77.054
0.34213,85.463
0.33724,93.481
0.33236,101.11
0.32845,107.95
0.32454,113.62
0.3216,118.12
0.31867,121.06
0.31476,122.82
0.31085,123.4
0.30694,123.01
0.30303,121.84
0.29912,120.08
0.29619,117.93
0.29228,115.58
0.28837,113.04
0.28446,110.3
0.28152,107.17
0.27859,103.85
0.27566,100.13
0.27175,96.219
0.26784,92.308
0.26393,88.396
0.26002,84.876
0.25611,81.747
0.25318,79.205
0.2522,76.858
0.25513,75.098
0.26491,73.729
0.28152,72.751
0.30303,72.164
0.32942,71.578
0.36559,71.186
0.4086,70.991
0.45552,70.991
0.50342,70.991
0.54839,70.991
0.59042,70.991
0.62561,70.795
0.65396,70.795
0.67644,70.6
0.69306,70.404
0.70186,70.209
0.70577,70.013
0.70772,69.622
0.70577,69.231
0.6999,68.84
0.6911,68.253
0.67937,67.666
0.66569,67.275
0.64809,66.688
0.62854,66.102
0.60704,65.711
0.58456,65.319
0.56305,64.733
0.5435,64.342
0.52199,63.95
0.49951,63.559
0.47898,62.973
0.45943,62.582
0.44184,61.995
0.4262,61.604
0.41251,61.017
0.40078,60.43
0.39101,59.844
0.38221,59.452
0.37537,58.866
0.37048,58.475
0.36657,58.083
0.36266,57.497
0.35875,57.106
0.35484,56.715
0.35191,56.519
0.348,56.323
0.34506,56.128
0.34115,56.519
0.33822,57.301
0.33431,59.257
0.3304,62.973
0.32845,68.84
0.32551,76.271
0.32258,84.094
0.31867,91.721
0.31476,98.761
0.31183,105.22
0.30792,110.3
0.30401,114.41
0.30108,117.14
0.29717,118.71
0.29423,119.1
0.29032,118.51
0.28739,117.34
0.28446,115.58
0.2825,113.43
0.27957,110.89
0.27664,108.15
0.27273,105.02
0.26979,101.69
0.26588,97.979
0.26197,94.263
0.25904,90.352
0.25513,86.441
0.2522,82.921
0.24829,79.791
0.24633,77.249
0.24536,75.098
0.24536,73.338
0.24829,71.969
0.25611,70.795
0.27175,70.209
0.29521,69.622
0.32649,69.426
0.36559,69.231
0.40958,69.035
0.45552,69.035
0.50244,69.035
0.54643,69.035
0.58065,69.035
0.60899,69.035
0.63441,69.035
0.65689,69.035
0.67351,68.84
0.68426,68.644
0.6911,68.253
0.69208,67.862
0.69013,67.471
0.68328,67.08
0.67351,66.688
0.6608,66.102
0.64614,65.711
0.62952,65.124
0.61095,64.733
0.58944,64.342
0.56598,63.95
0.54252,63.364
0.51906,62.973
0.49658,62.582
0.47507,62.19
0.45552,61.604
0.43793,61.213
0.42229,60.821
0.4086,60.235
0.39785,59.844
0.39003,59.257
0.38221,58.866
0.37537,58.279
0.3695,57.888
0.36461,57.497
0.35973,56.91
0.35679,56.519
0.35288,56.128
0.34995,55.737
0.34702,55.541
0.34409,55.346
0.34213,55.541
0.34018,56.128
0.33724,57.497
0.33431,60.235
0.33138,64.928
0.32845,71.382
0.32454,78.814
0.32063,86.245
0.31769,93.286
0.31378,99.739
0.30987,105.41
0.30694,109.91
0.30303,113.04
0.30108,115.19
0.29912,116.17
0.29717,116.17
0.29423,115.19
0.2913,113.82
0.28837,111.86
0.28446,109.32
0.28152,106.78
0.27761,103.85
0.27468,100.52
0.27077,97.001
0.26686,93.286
0.26491,89.374
0.26295,85.658
0.26002,82.138
0.25709,79.009
0.25415,76.467
0.25122,74.316
0.25024,72.555
0.25122,71.186
0.25709,70.209
0.26979,69.426
0.29032,68.84
0.31769,68.644
0.35386,68.449
0.38905,68.253
0.42522,68.253
0.46725,68.253
0.51026,68.057
0.5523,68.057
0.58944,68.057
0.6217,68.057
0.64712,68.057
0.66667,67.862
0.68035,67.666
0.68915,67.471
0.69208,67.08
0.6911,66.688
0.68622,66.297
0.6784,65.906
0.66667,65.515
0.652,65.124
0.63539,64.537
0.61584,64.342
0.59433,63.755
0.57087,63.364
0.54741,62.973
0.52493,62.582
0.50244,62.19
0.48094,61.799
0.46334,61.408
0.44868,61.017
0.43402,60.43
0.42033,60.039
0.4086,59.452
0.39785,59.061
0.38905,58.475
0.38221,58.083
0.37537,57.497
0.37048,57.106
0.36559,56.715
0.36168,56.128
0.35875,55.737
0.35679,55.346
0.35484,55.15
0.35191,54.954
0.34897,55.15
0.34604,55.541
0.34311,56.715
0.34018,59.257
0.33627,63.755
0.33333,70.013
0.32942,77.445
0.32649,85.267
0.32356,92.699
0.32063,99.348
0.31867,105.22
0.31867,110.1
0.31965,113.62
0.31867,116.17
0.31672,117.34
0.31378,117.54
0.31085,116.75
0.30694,115.38
0.30401,113.62
0.3001,111.28
0.29619,108.74
0.29423,106
0.2913,102.87
0.28837,99.348
0.28543,95.632
0.28152,91.917
0.27761,87.81
0.27468,84.289
0.27077,80.965
0.26686,78.031
0.26393,75.685
0.26197,73.729
0.26295,72.164
0.26784,70.991
0.27761,70.209
0.29521,69.622
0.3216,69.231
0.35582,69.035
0.39785,68.84
0.44575,68.84
0.4956,68.644
0.54448,68.644
0.5914,68.644
0.63245,68.644
0.66764,68.644
0.69599,68.644
0.71554,68.449
0.72825,68.253
0.73803,68.057
0.74291,67.666
0.74389,67.471
0.74096,67.08
0.73314,66.493
0.72239,66.102
0.70772,65.711
0.68915,65.124
0.66862,64.733
0.64516,64.342
0.62366,63.95
0.60215,63.559
0.57869,63.168
0.55425,62.777
0.53079,62.386
0.50831,61.799
0.48778,61.408
0.46921,61.017
0.45357,60.43
0.43891,60.039
0.42717,59.452
0.41642,59.061
0.4086,58.475
0.40176,58.083
0.39687,57.497
0.39198,57.106
0.3871,56.715
0.38319,56.323
0.37928,55.932
0.37634,55.541
0.37243,55.346
0.3695,55.346
0.36657,55.932
0.36364,57.106
0.35973,59.844
0.35679,64.146
0.35484,70.6
0.35093,78.227
0.348,86.05
0.34409,93.481
0.34018,100.33
0.33724,106.39
0.33333,111.28
0.32942,114.99
0.32649,117.54
0.32258,118.71
0.31867,119.1
0.31574,118.51
0.31281,117.14
0.31085,115.38
0.30792,113.23
0.30401,110.69
0.30108,107.95
0.29717,105.02
0.29326,101.69
0.28935,98.175
0.28543,94.459
0.28152,90.548
0.27761,86.636
0.2737,83.116
0.27077,79.791
0.26882,77.249
0.26686,75.098
0.26784,73.338
0.27175,72.164
0.2825,71.186
0.30108,70.404
0.32845,69.818
0.36461,69.622
0.40762,69.426
0.4565,69.231
0.50733,69.231
0.55621,69.231
0.59726,69.035
0.63148,69.035
0.66471,69.035
0.69404,69.035
0.71848,69.035
0.73607,68.84
0.7478,68.644
0.75464,68.253
0.75562,67.862
0.75269,67.471
0.74585,67.08
0.73509,66.688
0.72141,66.297
0.70674,65.906
0.68817,65.515
0.66667,65.124
0.64321,64.733
0.61779,64.342
0.59238,63.95
0.56696,63.559
0.54154,63.168
0.51808,62.777
0.49658,62.386
0.47703,61.995
0.45943,61.604
0.44673,61.213
0.435,60.626
0.42522,60.235
0.41544,59.844
0.40762,59.257
0.40078,58.866
0.39492,58.279
0.39003,57.888
0.38514,57.497
0.38123,57.106
0.37732,56.91
0.37341,56.715
0.37146,56.715
0.36852,57.106
0.36657,58.475
0.36364,61.213
0.35973,65.711
0.35679,72.164
0.35288,79.987
0.34897,88.005
0.34506,95.632
0.34213,102.67
0.33822,108.74
0.33529,113.82
0.33138,117.73
0.32942,120.08
0.32747,121.45
0.32454,121.64
0.3216,121.06
0.31867,119.88
0.31574,118.12
0.31183,115.97
0.3089,113.62
0.30596,111.08
0.30205,108.34
0.29912,105.22
0.29521,101.69
0.29326,97.979
0.2913,94.263
0.28837,90.352
0.28543,86.832
0.2825,83.507
0.27957,80.769
0.27761,78.422
0.27761,76.662
0.28348,75.293
0.29521,74.12
0.31476,73.338
0.34409,72.751
0.38221,72.36
0.41935,72.164
0.45846,72.164
0.50538,72.164
0.55425,72.164
0.60117,72.164
0.64418,72.164
0.68231,72.164
0.71261,72.164
0.73705,72.164
0.75464,71.773
0.76637,71.578
0.77224,71.186
0.77322,70.795
0.77028,70.6
0.76442,70.013
0.75562,69.622
0.74291,69.035
0.72825,68.644
0.70968,68.057
0.68915,67.666
0.66667,67.08
0.64223,66.688
0.61779,66.297
0.59335,65.906
0.56891,65.319
0.54936,64.928
0.53079,64.537
0.5132,63.95
0.49658,63.559
0.48094,62.973
0.46725,62.582
0.45552,61.995
0.44673,61.604
0.43793,61.213
0.43206,60.626
0.4262,60.235
0.42131,59.844
0.4174,59.452
0.41447,59.061
0.41153,58.67
0.4086,58.67
0.40567,58.67
0.40176,59.061
0.39883,60.626
0.39492,63.559
0.39198,68.644
0.38807,75.685
0.38416,83.703
0.38025,91.917
0.37634,99.739
0.37341,106.78
0.37048,112.84
0.36657,117.54
0.36364,121.06
0.35973,123.01
0.35582,123.99
0.35191,123.79
0.34897,122.82
0.34506,121.25
0.34115,119.3
0.33724,117.14
0.33333,114.8
0.3304,112.06
0.32845,109.13
0.32454,106
0.3216,102.48
0.31769,98.761
0.31378,94.85
0.30987,90.939
0.30596,87.419
0.30205,84.094
0.29619,81.16
0.29032,78.814
0.29032,76.858
0.29423,75.293
0.30303,74.316
0.31965,73.338
0.34604,72.751
0.37928,72.36
0.42033,72.164
0.46628,72.164
0.5132,72.164
0.56012,72.164
0.60313,72.164
0.64125,71.969
0.67253,71.969
0.69795,71.773
0.71457,71.578
0.72532,71.382
0.73216,70.991
0.73607,70.6
0.73607,70.209
0.73216,69.622
0.72532,69.035
0.71457,68.644
0.70186,68.057
0.68524,67.471
0.66667,66.884
0.64516,66.493
0.62463,65.906
0.60508,65.515
0.5826,65.124
0.55914,64.733
0.53568,64.342
0.51222,63.95
0.49169,63.364
0.47214,62.973
0.45455,62.386
0.43891,61.799
0.4262,61.408
0.41447,60.821
0.40469,60.235
0.39785,59.844
0.39198,59.257
0.38612,58.866
0.38123,58.279
0.37634,57.888
0.37243,57.497
0.36852,57.106
0.36461,56.91
0.3607,56.91
0.35679,57.106
0.35288,58.083
0.34897,60.43
0.34604,64.733
0.34311,70.991
0.3392,78.618
0.33529,86.832
0.3304,94.85
0.32649,102.09
0.32258,108.34
0.31769,113.62
0.31378,117.54
0.30987,120.08
0.30596,121.45
0.30205,121.84
0.29912,121.06
0.29619,119.69
0.29423,117.93
0.2913,115.58
0.28739,113.23
0.28348,110.5
0.27957,107.56
0.27566,104.43
0.27175,100.91
0.26784,97.001
0.26491,93.09
0.261,89.179
0.25709,85.463
0.25415,82.138
0.2522,79.4
0.25024,77.054
0.24927,75.098
0.25122,73.533
0.25904,72.555
0.27468,71.773
0.29814,71.186
0.3304,70.795
0.37048,70.795
0.41642,70.6
0.46432,70.6
0.5132,70.6
0.55327,70.404
0.58651,70.404
0.61975,70.404
0.64809,70.404
0.67155,70.209
0.68915,70.013
0.70186,69.622
0.7087,69.231
0.71065,68.84
0.7087,68.449
0.70283,68.057
0.69306,67.471
0.68133,67.08
0.66764,66.493
0.65005,66.102
0.6305,65.711
0.60899,65.124
0.58553,64.733
0.56109,64.342
0.53666,63.95
0.5132,63.364
0.49071,62.973
0.47019,62.582
0.45064,61.995
0.43402,61.604
0.42033,61.017
0.40958,60.626
0.3998,60.039
0.39101,59.648
0.38319,59.061
0.37634,58.475
0.37048,58.083
0.36559,57.692
0.3607,57.106
0.35679,56.715
0.35386,56.323
0.34995,56.128
0.348,55.932
