1.5425,73.657
1.5239,77.467
1.5044,85.673
1.4839,98.763
1.4624,114.73
1.4399,129.97
1.4174,141.01
1.3949,146.24
1.3724,146.83
1.3539,144.58
1.3372,141.26
1.3187,138.13
1.2991,135.88
1.2786,134.61
1.2581,133.88
1.2385,133.05
1.219,131.73
1.2014,129.63
1.1848,126.8
1.1691,123.43
1.1535,119.77
1.1388,115.91
1.1281,112.19
1.1173,108.43
1.0987,104.72
1.0762,101.11
1.0528,97.542
1.0381,94.22
1.044,91.29
1.086,89.043
1.175,87.626
1.3177,86.991
1.5093,86.991
1.7361,87.382
1.9462,87.871
2.1388,88.31
2.3382,88.506
2.5181,88.408
2.6637,88.115
2.7713,87.675
2.8436,87.04
2.8876,86.405
2.9091,85.721
2.913,85.184
2.9032,84.549
2.8827,83.865
2.8534,83.133
2.8152,82.351
2.7683,81.57
2.7126,80.69
2.6471,79.86
2.5709,79.127
2.4858,78.492
2.393,78.053
2.2942,77.613
2.1926,77.223
2.0909,76.881
1.9922,76.441
1.8993,75.855
1.824,75.318
1.7625,74.634
1.7058,73.901
1.6559,73.168
1.6149,72.436
1.5816,71.605
1.5543,70.873
1.5318,70.189
1.5122,70.042
1.4936,71.41
1.4741,76.05
1.4545,85.282
1.437,99.447
1.4213,116
1.4018,131.2
1.3803,141.6
1.3568,146.29
1.3324,146.43
1.306,143.94
1.2805,140.48
1.2561,137.3
1.2326,135.01
1.2102,133.64
1.1887,132.81
1.1681,131.93
1.1535,130.51
1.1417,128.26
1.1281,125.29
1.1134,121.72
1.0978,117.86
1.0811,114
1.0626,110.09
1.0401,106.38
1.0127,102.67
0.9824,99.056
0.95503,95.441
0.94037,91.925
0.96676,88.945
1.0332,86.698
1.129,85.282
1.2688,84.793
1.4536,84.94
1.6735,85.428
1.912,86.063
2.1466,86.552
2.3587,86.796
2.5367,86.845
2.6735,86.698
2.7713,86.356
2.8348,85.917
2.8671,85.575
2.8778,85.135
2.8788,84.598
2.869,84.061
2.8504,83.426
2.8221,82.742
2.784,82.009
2.737,81.228
2.6804,80.495
2.6139,79.86
2.5376,79.323
2.4526,78.932
2.3695,78.59
2.2864,78.297
2.1916,77.906
2.0919,77.564
1.9932,77.027
1.9003,76.49
1.8162,75.806
1.7439,75.122
1.6833,74.341
1.6354,73.657
1.5973,73.071
1.5679,72.485
1.5455,72.192
1.5298,72.729
1.5181,75.415
1.5064,81.814
1.4927,93.048
1.479,108.24
1.4633,124.31
1.4457,137.3
1.4262,144.87
1.4066,146.97
1.3861,145.36
1.3656,141.99
1.3451,138.23
1.3304,135.2
1.3177,133.1
1.3021,131.98
1.2854,131.1
1.2688,129.93
1.2532,128.12
1.2385,125.48
1.2239,122.16
1.2092,118.45
1.1945,114.44
1.1799,110.44
1.1623,106.53
1.1408,102.87
1.1222,99.251
1.1056,95.734
1.089,92.511
1.0841,89.678
1.1056,87.48
1.1672,86.161
1.2796,85.673
1.4409,85.868
1.6432,86.356
1.87,86.943
2.1007,87.284
2.3148,87.382
2.4809,87.138
2.6041,86.601
2.7087,86.063
2.7869,85.477
2.8387,84.989
2.868,84.549
2.8798,84.11
2.8778,83.67
2.8641,83.182
2.8397,82.547
2.8045,81.814
2.7595,81.032
2.7038,80.3
2.6452,79.665
2.5816,79.176
2.5054,78.688
2.4203,78.199
2.3294,77.467
2.2336,76.685
2.1369,75.904
2.043,75.22
1.955,74.683
1.8759,74.194
1.8084,73.755
1.7527,73.413
1.7126,73.12
1.6823,72.729
1.6559,72.24
1.6344,71.752
1.6149,71.312
1.5973,71.508
1.5806,73.51
1.565,79.03
1.5494,89.727
1.5347,105.01
1.5191,121.91
1.5034,136.42
1.4868,145.36
1.4721,148.29
1.4585,146.83
1.4409,143.06
1.4223,138.67
1.4027,135.01
1.3832,132.56
1.3646,131.39
1.346,130.76
1.3275,129.93
1.3109,128.51
1.2952,126.16
1.2815,122.99
1.2717,119.33
1.2639,115.37
1.2551,111.41
1.2444,107.6
1.2307,104.04
1.2121,100.62
1.1916,97.249
1.175,93.927
1.1701,90.948
1.1916,88.359
1.2512,86.503
1.3597,85.477
1.5181,85.233
1.6852,85.575
1.8641,86.112
2.0762,86.552
2.2913,86.796
2.4878,86.796
2.651,86.503
2.7771,85.966
2.8671,85.428
2.9247,84.842
2.957,84.403
2.9697,84.061
2.9668,83.621
2.9511,83.182
2.9257,82.693
2.8935,82.009
2.8524,81.179
2.8016,80.349
2.7419,79.421
2.6745,78.59
2.5982,77.809
2.5142,77.174
2.4233,76.685
2.3275,76.246
2.2287,75.855
2.131,75.464
2.0469,75.122
1.9736,74.731
1.9022,74.292
1.8377,73.901
1.782,73.51
1.7361,73.071
1.6979,72.631
1.6667,72.094
1.6413,71.557
1.6197,70.97
1.6002,70.824
1.5826,71.996
1.5679,76.099
1.5562,84.793
1.5406,98.323
1.523,114.69
1.5044,130.12
1.4848,141.11
1.4633,146.24
1.4399,146.29
1.4164,143.46
1.392,139.5
1.3675,135.88
1.3431,133.34
1.3245,132.07
1.3099,131.54
1.2923,131.1
1.2737,130.07
1.2542,128.07
1.2366,125.19
1.2209,121.57
1.2072,117.57
1.1945,113.37
1.1808,109.31
1.1662,105.5
1.1486,101.74
1.1271,98.177
1.1114,94.66
1.1036,91.485
1.1075,88.701
1.1398,86.503
1.2151,85.038
1.3392,84.403
1.5103,84.354
1.7195,84.696
1.9482,85.233
2.175,85.673
2.3812,85.868
2.5562,85.868
2.6804,85.575
2.7654,85.135
2.8328,84.598
2.8788,84.061
2.9062,83.475
2.9179,82.937
2.915,82.351
2.9003,81.814
2.8749,81.13
2.8397,80.446
2.7937,79.665
2.737,78.932
2.6706,78.248
2.6041,77.564
2.5337,76.978
2.4506,76.49
2.3587,76.099
2.261,75.757
2.1613,75.366
2.0635,74.976
1.9707,74.536
1.8856,74.048
1.8104,73.559
1.7478,73.071
1.696,72.533
1.6588,72.045
1.6325,71.557
1.609,70.922
1.5885,70.384
1.5709,69.994
1.5543,70.531
1.5376,73.413
1.521,80.153
1.5034,91.729
1.4839,107.07
1.4633,122.94
1.4418,135.64
1.4184,142.72
1.3988,144.58
1.3822,142.58
1.3627,138.91
1.3421,135.1
1.3206,132.12
1.3001,130.22
1.2678,129.39
1.2307,128.8
1.2023,127.92
1.1789,126.31
1.1584,123.82
1.1398,120.55
1.129,116.79
1.1212,112.78
1.1105,108.82
1.0968,104.92
1.0792,101.16
1.0587,97.493
1.0352,93.927
1.0166,90.41
1.0117,87.382
1.0352,84.94
1.1007,83.377
1.216,82.742
1.3832,82.742
1.5582,83.23
1.7419,83.865
1.9599,84.403
2.1799,84.745
2.3793,84.842
2.5445,84.598
2.6706,84.256
2.7586,83.719
2.8162,83.279
2.8495,82.937
2.8631,82.498
2.8612,82.107
2.8465,81.618
2.8221,81.13
2.7898,80.446
2.7488,79.665
2.6989,78.932
2.6403,78.102
2.5728,77.369
2.4956,76.734
2.4086,76.246
2.3148,75.855
2.2141,75.562
2.1114,75.318
2.0098,74.976
1.9228,74.634
1.8465,74.097
1.7713,73.559
1.7038,72.924
1.6471,72.289
1.5992,71.605
1.5611,71.068
1.5318,70.482
1.5083,70.189
1.4888,70.531
1.4712,72.875
1.4555,78.786
1.4428,89.482
1.4321,104.48
1.4184,120.89
1.4027,134.57
1.3842,142.82
1.3627,145.31
1.3392,143.5
1.3148,139.6
1.2893,135.35
1.2649,131.93
1.2424,129.73
1.2209,128.8
1.2014,128.41
1.1877,127.87
1.1779,126.51
1.1652,124.16
1.1515,121.04
1.1369,117.23
1.1222,113.12
1.1075,109.07
1.0909,105.11
1.0723,101.45
1.0499,97.884
1.0254,94.513
1.0059,91.241
0.99902,88.359
1.0137,86.112
1.0616,84.598
1.1544,84.012
1.2991,84.061
1.4907,84.549
1.7155,85.135
1.9541,85.575
2.1838,85.721
2.3881,85.624
2.5543,85.233
2.6804,84.793
2.7693,84.305
2.8211,83.865
2.8465,83.426
2.8612,82.986
2.8631,82.595
2.8543,82.156
2.8348,81.618
2.8055,80.984
2.7664,80.3
2.7165,79.616
2.6559,78.932
2.5865,78.297
2.5073,77.76
2.4291,77.32
2.35,76.783
2.26,76.343
2.1642,75.904
2.0665,75.366
1.9717,74.78
1.8837,74.194
1.8065,73.51
1.741,72.875
1.6882,72.192
1.6461,71.557
1.6129,70.97
1.5885,70.433
1.5709,69.847
1.5562,69.749
1.5415,70.726
1.5259,74.438
1.5093,82.498
1.4927,95.686
1.4761,112.39
1.4604,128.61
1.4448,140.48
1.4262,146.14
1.4057,146.29
1.3851,143.16
1.3685,138.86
1.3539,134.76
1.3363,131.78
1.3187,130.32
1.3001,129.68
1.2815,129.19
1.2639,128.17
1.2463,126.41
1.2297,123.72
1.2131,120.35
1.1975,116.49
1.1828,112.54
1.172,108.68
1.1623,105.01
1.1457,101.5
1.1251,98.128
1.1026,94.806
1.085,91.632
1.0841,88.799
1.1144,86.503
1.1896,85.038
1.3157,84.403
1.4927,84.5
1.7097,84.989
1.9472,85.575
2.1554,85.966
2.3353,86.259
2.5122,86.112
2.6628,85.819
2.7791,85.282
2.8602,84.745
2.912,84.158
2.9413,83.719
2.9531,83.279
2.9511,82.791
2.9365,82.302
2.911,81.667
2.8788,80.935
2.8387,80.104
2.7869,79.323
2.7253,78.541
2.6549,77.858
2.5758,77.223
2.4878,76.783
2.392,76.343
2.2923,76.05
2.1906,75.66
2.0909,75.366
1.9971,75.073
1.911,74.683
1.8416,74.292
1.7869,73.852
1.737,73.364
1.6931,72.875
1.6569,72.289
1.6276,71.654
1.6041,70.97
1.5826,70.482
1.5621,70.824
1.5435,73.217
1.5249,79.469
1.5054,90.557
1.4888,105.85
1.4741,122.16
1.4565,135.64
1.436,143.55
1.4145,145.8
1.392,144.14
1.3675,140.48
1.3431,136.62
1.3187,133.54
1.2952,131.73
1.2717,130.95
1.2493,130.51
1.2287,129.68
1.2131,128.12
1.2004,125.58
1.1857,122.16
1.1711,118.25
1.1564,114.05
1.1427,110
1.1281,106.04
1.1105,102.38
1.088,98.86
1.0626,95.49
1.0391,92.218
1.0293,89.385
1.0401,86.943
1.0821,85.233
1.1691,84.354
1.3069,84.158
1.4917,84.403
1.7107,84.989
1.9462,85.477
2.175,85.868
2.3803,85.917
2.5494,85.721
2.6774,85.282
2.7683,84.745
2.827,84.158
2.8563,83.621
2.8671,83.133
2.8671,82.595
2.8553,82.156
2.8338,81.618
2.8025,80.935
2.7615,80.251
2.7116,79.469
2.653,78.737
2.5836,78.053
2.5054,77.418
2.4184,76.881
2.3353,76.441
2.2522,76.001
2.1593,75.562
2.0626,75.171
1.9668,74.731
1.8759,74.292
1.7947,73.803
1.7243,73.315
1.6647,72.778
1.6158,72.387
1.5767,71.85
1.5455,71.312
1.52,70.629
1.5064,70.091
1.4995,70.433
1.4878,72.875
1.4741,78.981
1.4575,90.069
1.4399,105.16
1.4213,121.28
1.4018,134.61
1.3812,142.38
1.3587,144.58
1.3343,142.87
1.3099,139.25
1.2913,135.35
1.2747,132.32
1.2542,130.41
1.2336,129.49
1.2141,128.95
1.1945,128.07
1.176,126.36
1.1584,123.72
1.1417,120.35
1.1271,116.49
1.1134,112.39
1.0987,108.24
1.0821,104.38
1.0684,100.72
1.0538,97.2
1.0313,93.781
1.0088,90.606
0.99511,87.724
1.0039,85.477
1.0489,84.012
1.1427,83.23
1.2884,83.133
1.4809,83.426
1.7058,83.914
1.9413,84.354
2.1417,84.745
2.3089,84.842
2.4663,84.745
2.5953,84.403
2.6911,84.061
2.7546,83.621
2.7908,83.23
2.8055,82.84
2.8045,82.449
2.7908,81.912
2.7664,81.277
2.7322,80.739
2.6872,80.055
2.6393,79.372
2.5865,78.737
2.521,78.053
2.4448,77.467
2.3607,76.978
2.2688,76.539
2.1711,76.197
2.0704,75.806
1.9697,75.415
1.8739,74.976
1.7869,74.487
1.7087,73.852
1.6471,73.217
1.5992,72.533
1.5552,71.85
1.5171,71.312
1.4868,70.726
1.4633,70.433
1.4448,70.824
1.4282,73.071
1.4135,78.883
1.3998,89.531
1.3861,104.58
1.3705,120.89
1.3539,134.52
1.3392,142.67
1.3255,145.16
1.306,143.6
1.2835,139.99
1.26,135.88
1.2356,132.51
1.2121,130.32
1.1887,129.19
1.1662,128.51
1.1466,127.53
1.129,125.97
1.1114,123.58
1.0997,120.3
1.0909,116.49
1.0792,112.44
1.0655,108.43
1.0489,104.62
1.0293,101.01
1.0049,97.542
0.97947,94.22
0.95699,91.094
0.94721,88.408
0.96285,86.308
1.0176,84.989
1.1212,84.549
1.2473,84.745
1.4008,85.233
1.6041,85.868
1.8319,86.308
2.0606,86.405
2.2688,86.308
2.4428,85.966
2.5767,85.575
2.6716,85.184
2.7322,84.793
2.7654,84.5
2.7781,84.158
2.7752,83.865
2.7615,83.377
2.74,82.742
2.7107,82.009
2.6725,81.179
2.6237,80.3
2.565,79.567
2.4966,78.883
2.4184,78.297
2.3333,77.76
2.2414,77.223
2.1457,76.734
2.0596,76.294
1.9804,75.757
1.8964,75.171
1.8162,74.634
1.7429,73.901
1.6804,73.315
1.6285,72.631
1.5885,71.996
1.5582,71.361
1.5347,70.726
1.5171,70.384
1.5015,70.824
1.4868,73.364
1.4751,79.762
1.4653,91.241
1.4526,106.87
1.4389,123.48
1.4233,137.01
1.4066,144.73
1.3891,146.73
1.3705,144.82
1.3509,141.01
1.3324,137.01
1.3128,133.78
1.2942,131.88
1.2815,130.95
1.2708,130.36
1.2561,129.49
1.2405,127.87
1.2239,125.24
1.2072,121.87
1.1916,118.01
1.176,113.86
1.1603,109.85
1.1447,105.99
1.1261,102.43
1.1046,99.056
1.0802,95.734
1.0626,92.608
1.0567,89.678
1.0694,87.236
1.1153,85.575
1.2072,84.696
1.3519,84.5
1.5435,84.842
1.7683,85.282
2.0059,85.721
2.2356,85.966
2.4399,85.966
2.607,85.721
2.7214,85.282
2.7967,84.842
2.8524,84.354
2.8876,83.914
2.9042,83.475
2.9052,83.035
2.8925,82.595
2.87,82.058
2.8377,81.374
2.7967,80.69
2.7458,79.909
2.6852,79.225
2.6149,78.541
2.5455,77.906
2.4731,77.418
2.3891,77.027
2.2972,76.685
2.1994,76.343
2.1017,75.904
2.0078,75.464
1.9208,74.976
1.8436,74.487
1.7771,73.999
1.7214,73.51
1.6755,72.973
1.6422,72.436
1.6188,71.85
1.5982,71.215
1.5797,70.824
1.563,71.41
1.5474,74.341
1.5318,81.277
1.5152,93.097
1.4976,108.82
1.479,124.85
1.4585,137.54
1.437,144.68
1.4154,146.43
1.3978,144.58
1.3812,141.06
1.3617,137.45
1.3412,134.61
1.3196,132.95
1.2991,132.07
1.2796,131.39
1.26,130.17
1.2424,128.17
1.2258,125.29
1.2102,121.72
1.1945,117.81
1.1838,113.76
1.175,109.75
1.1623,105.94
1.1457,102.28
1.1241,98.812
1.1007,95.344
1.0792,92.12
1.0694,89.092
1.085,86.747
1.1408,85.135
1.2454,84.256
1.4018,84.158
1.6041,84.5
1.8016,85.038
1.9932,85.575
2.2033,85.819
2.4027,85.819
2.5718,85.575
2.7028,85.038
2.7967,84.5
2.8583,84.012
2.8935,83.475
2.9091,83.035
2.9091,82.547
2.8954,82.009
2.871,81.423
2.8387,80.739
2.7977,80.104
2.7458,79.469
2.6852,78.883
2.6149,78.248
2.5347,77.662
2.4643,77.174
2.3959,76.734
2.3089,76.343
2.2131,75.904
2.1163,75.464
2.0215,74.976
1.9433,74.438
1.8778,73.852
1.8152,73.315
1.7605,72.68
1.7155,72.045
1.6804,71.41
1.652,70.726
1.6305,70.091
1.6139,70.042
1.5992,71.605
1.5846,76.294
1.5689,85.673
1.5572,99.593
1.5455,115.91
1.5298,130.61
1.5112,140.62
1.4907,144.82
1.4682,144.43
1.4448,141.5
1.4223,137.89
1.3998,134.57
1.3773,132.32
1.3558,131.05
1.3343,130.36
1.3128,129.53
1.2981,128.07
1.2864,125.68
1.2717,122.45
1.2561,118.54
1.2414,114.3
1.2268,110.09
1.2111,106.14
1.1916,102.23
1.1681,98.567
1.1408,95.002
1.1144,91.534
1.0968,88.408
1.0958,85.868
1.1212,84.012
1.1857,82.937
1.2991,82.547
1.4633,82.742
1.6696,83.182
1.9003,83.67
2.1349,84.061
2.3539,84.158
2.5415,84.012
2.6901,83.621
2.7996,83.133
2.8729,82.693
2.913,82.302
2.9306,81.912
2.9365,81.57
2.9306,81.13
2.914,80.593
2.8866,80.104
2.8475,79.469
2.7977,78.737
2.738,78.004
2.6686,77.369
2.5894,76.734
2.5024,76.246
2.4194,75.806
2.3372,75.415
2.2444,75.122
2.1476,74.731
2.0508,74.292
1.957,73.852
1.871,73.364
1.7947,72.778
1.7292,72.24
1.6764,71.605
1.6344,70.922
1.6022,70.287
1.5806,69.798
1.567,69.749
1.5543,70.97
1.5425,75.073
1.5318,83.426
1.521,96.614
1.5083,112.78
1.4946,128.12
1.48,139.01
1.4633,143.8
1.4438,143.6
1.4233,140.57
1.4018,136.57
1.3832,133
1.3675,130.56
1.35,129.24
1.3304,128.56
1.3099,127.83
1.2903,126.41
1.2708,124.11
1.2522,120.89
1.2336,117.03
1.216,112.88
1.1984,108.82
1.1799,104.92
1.1652,101.3
1.1515,97.981
1.131,94.806
1.1065,91.729
1.086,88.945
1.0811,86.552
1.1036,84.842
1.1672,84.012
1.2825,83.816
1.4487,84.256
1.6569,84.94
1.8915,85.575
2.131,86.063
2.3294,86.112
2.4917,85.917
2.6413,85.575
2.7634,84.989
2.8514,84.5
2.9091,84.061
2.9413,83.67
2.9531,83.23
2.9492,82.84
2.9306,82.351
2.9003,81.863
2.8602,81.277
2.8152,80.739
2.7644,80.104
2.7028,79.567
2.6315,78.981
2.5494,78.492
2.4585,78.053
2.3607,77.564
2.2581,77.125
2.1554,76.539
2.0567,75.904
1.9648,75.22
1.8827,74.487
1.8133,73.755
1.7615,72.973
1.7234,72.289
1.6921,71.654
1.6667,71.068
1.6461,70.531
1.6295,70.433
1.6158,71.654
1.6031,75.806
1.5904,84.403
1.5767,97.981
1.5621,114.44
1.5464,129.68
1.5347,140.18
1.5249,144.68
1.5112,144.24
1.4956,141.11
1.479,137.11
1.4624,133.54
1.4457,131.1
1.4291,129.88
1.4115,129.29
1.393,128.7
1.3754,127.48
1.3578,125.38
1.3402,122.45
1.3275,118.89
1.3167,114.93
1.303,110.92
1.2884,107.12
1.2708,103.55
1.2502,100.18
1.2258,96.858
1.2004,93.634
1.1808,90.508
1.1789,87.724
1.2082,85.624
1.2835,84.305
1.3842,83.816
1.5181,84.012
1.7077,84.598
1.9316,85.233
2.1681,85.624
2.3949,85.721
2.5943,85.575
2.7546,85.184
2.8739,84.696
2.956,84.256
3.0078,83.914
3.0362,83.67
3.0469,83.426
3.042,83.035
3.0254,82.595
3.001,82.009
2.9677,81.277
2.9238,80.495
2.87,79.665
2.8074,78.932
2.7351,78.248
2.6549,77.613
2.567,77.125
2.4731,76.734
2.3734,76.441
2.2825,76.05
2.1984,75.611
2.1105,75.171
2.0264,74.683
1.9492,74.243
1.8827,73.657
1.8289,73.12
1.784,72.533
1.7478,71.996
1.7185,71.361
1.695,70.97
1.6745,71.361
1.6569,73.755
1.6442,79.762
1.6334,90.655
1.6217,105.8
1.609,122.06
1.5943,135.35
1.5777,143.16
1.5591,145.31
1.5376,143.6
1.5152,140.13
1.4917,136.57
1.4673,133.78
1.4438,132.17
1.4262,131.49
1.4125,131.05
1.3959,130.17
1.3783,128.51
1.3617,125.82
1.3441,122.45
1.3236,118.54
1.305,114.64
1.2913,110.68
1.2757,107.07
1.2571,103.6
1.2346,100.23
1.2092,96.858
1.1896,93.536
1.1799,90.41
1.1838,87.919
1.218,86.112
1.2972,85.184
1.4272,84.94
1.6061,85.184
1.8221,85.673
2.0557,86.063
2.2845,86.308
2.4917,86.308
2.6637,85.966
2.784,85.575
2.8485,85.038
2.8856,84.5
2.913,84.012
2.9286,83.475
2.9316,82.986
2.9238,82.498
2.9052,81.912
2.8749,81.228
2.8338,80.544
2.784,79.86
2.7243,79.127
2.6559,78.492
2.5865,77.858
2.5142,77.369
2.4301,76.929
2.3372,76.49
2.2385,76.05
2.1388,75.66
2.0411,75.22
1.9492,74.731
1.8661,74.243
1.7947,73.755
1.7341,73.217
1.6852,72.729
1.65,72.192
1.6246,71.557
1.6022,70.922
1.5816,70.482
1.564,70.824
1.5474,73.071
1.5298,78.932
1.5132,89.531
1.4956,104.38
1.477,120.45
1.4575,133.93
1.437,141.99
1.4145,144.43
1.3959,143.02
1.3793,139.69
1.3587,136.18
1.3372,133.44
1.3148,131.78
1.2933,131.1
1.2717,130.66
1.2512,129.83
1.2317,128.12
1.2121,125.43
1.1935,122.01
1.1769,118.06
1.1672,113.9
1.1603,109.95
1.1496,106.19
1.1359,102.62
1.1173,99.251
1.0948,96.076
1.0714,92.95
1.0557,89.971
1.0596,87.431
1.0978,85.477
1.1818,84.354
1.3187,83.914
1.4721,84.061
1.6442,84.5
1.8583,84.989
2.086,85.282
2.3011,85.428
2.4858,85.233
2.6334,84.793
2.7429,84.354
2.8182,83.816
2.8661,83.377
2.8915,82.986
2.8993,82.595
2.8935,82.156
2.8749,81.667
2.8475,81.032
2.8113,80.349
2.7644,79.665
2.7077,78.932
2.6422,78.199
2.5679,77.564
2.4848,76.978
2.3939,76.441
2.2962,75.904
2.1945,75.366
2.0929,74.78
2.0059,74.097
1.9277,73.364
1.8495,72.631
1.7771,71.801
1.7136,71.117
1.6598,70.433
1.6158,69.798
1.5816,69.261
1.5543,68.675
1.5327,68.089
1.5142,67.796
1.4976,68.382
1.4809,71.117
1.4692,77.906
1.4585,89.727
1.4457,105.55
1.4301,121.91
1.4125,134.76
1.393,141.7
1.3724,143.16
1.35,141.11
1.3275,137.59
1.2991,134.17
1.2747,131.49
1.2571,129.97
1.2414,129.24
1.2278,128.8
1.2092,127.87
1.1887,126.12
1.1672,123.43
1.1457,120.06
1.1241,116.25
1.1046,112.24
1.085,108.39
1.0645,104.62
1.042,101.01
1.0147,97.493
0.98534,94.123
0.96383,90.801
0.95308,87.871
0.95699,85.477
0.99218,83.865
1.0733,83.035
1.2092,82.937
1.3969,83.23
1.6227,83.719
1.868,84.158
2.1095,84.5
2.3275,84.598
2.5083,84.5
2.6354,84.256
2.7204,83.914
2.7859,83.621
2.828,83.279
2.8495,82.937
2.8553,82.547
2.8475,82.009
2.827,81.374
2.7967,80.69
2.7556,79.909
2.7038,79.127
2.6422,78.346
2.5709,77.662
2.5015,77.125
2.4282,76.636
2.3421,76.246
2.2473,75.904
2.1476,75.66
2.0459,75.318
1.9462,74.927
1.8524,74.438
1.7683,73.901
1.695,73.315
1.6344,72.729
1.5865,72.192
1.5533,71.605
1.5308,71.068
1.5122,70.677
1.4976,70.873
1.4848,72.729
1.4741,77.809
1.4633,87.529
1.4516,101.74
1.4389,117.81
1.4252,131.88
1.4086,140.82
1.39,144.14
1.3695,143.06
1.3519,139.79
1.3363,136.08
1.3177,132.86
1.2972,130.76
1.2757,129.63
1.2551,128.95
1.2356,127.97
1.216,126.31
1.1984,123.82
1.1828,120.5
1.1691,116.69
1.1554,112.63
1.1457,108.63
1.1369,104.82
1.1232,101.25
1.1056,97.884
1.0831,94.562
1.0606,91.436
1.044,88.554
1.045,86.161
1.0772,84.5
1.1535,83.621
1.2796,83.426
1.4555,83.67
1.6696,84.158
1.8729,84.549
2.0655,84.745
2.2698,84.696
2.4575,84.354
2.6119,83.914
2.7292,83.475
2.8113,83.035
2.8631,82.693
2.8905,82.351
2.8993,82.058
2.8925,81.618
2.8719,81.032
2.8426,80.446
2.8045,79.762
2.7556,78.981
2.6979,78.297
2.6325,77.662
2.5582,77.125
2.4751,76.636
2.3851,76.246
2.2913,75.855
2.1935,75.464
2.0948,75.073
2,74.634
1.912,74.097
1.8416,73.608
1.784,73.12
1.7292,72.631
1.6833,72.192
1.6461,71.654
1.6158,71.166
1.5924,70.629
1.5738,70.042
1.5582,69.652
1.5435,70.091
1.5298,72.631
1.5171,78.981
1.5034,90.166
1.4927,105.55
1.4829,121.87
1.4702,135.05
1.4555,142.62
1.4379,144.58
1.4184,142.67
1.3978,139.11
1.3773,135.35
1.3578,132.37
1.3372,130.61
1.3177,129.68
1.3001,129.05
1.2864,128.07
1.2747,126.26
1.259,123.48
3.0352,82.253
3.0264,81.814
3.0049,81.228
2.9736,80.544
2.9316,79.811
2.8788,79.03
2.8162,78.297
2.7449,77.662
2.6637,77.125
2.5855,76.636
2.5064,76.197
2.4164,75.757
2.3196,75.318
2.2199,74.878
2.1232,74.438
2.0313,73.901
1.9482,73.51
1.8768,73.071
1.8162,72.631
1.7664,72.192
1.7273,71.752
1.6999,71.215
1.6794,70.677
1.6608,70.042
1.6442,69.652
1.6276,70.091
1.6109,72.778
1.5943,79.176
1.5767,90.313
1.5591,105.31
1.5406,121.04
1.521,133.88
1.4995,141.16
1.478,143.16
1.4614,141.55
1.4457,138.38
1.4252,135.05
1.4037,132.42
1.3832,130.85
1.3617,130.12
1.3412,129.49
1.3196,128.51
1.2991,126.6
1.2796,123.92
1.261,120.45
1.2444,116.49
1.2326,112.39
1.2239,108.43
1.2131,104.67
1.1984,101.25
1.1799,97.884
1.1564,94.611
1.132,91.485
1.1144,88.701
1.1173,86.356
1.1544,84.745
1.2385,83.816
1.3734,83.572
1.5582,83.67
1.7458,84.061
1.9365,84.5
2.1535,84.745
2.3666,84.745
2.5533,84.549
2.7048,84.158
2.8182,83.719
2.8954,83.279
2.9423,82.84
2.9658,82.351
2.9717,81.912
2.9629,81.423
2.9433,80.788
2.914,80.153
2.8749,79.421
2.826,78.737
2.7674,78.053
2.6999,77.369
2.6227,76.734
2.5376,76.197
2.4448,75.66
2.347,75.22
2.2454,74.878
2.1437,74.487
2.0459,74.048
1.9648,73.657
1.8964,73.217
1.8299,72.778
1.7615,72.289
1.7067,71.801
1.6725,71.166
1.6432,70.482
1.6197,69.603
1.6002,68.724
1.5836,68.089
1.567,68.479
1.5513,71.117
1.5396,77.76
1.5288,89.238
1.5142,104.62
1.4976,120.6
1.478,133.3
1.4575,140.38
1.435,141.99
1.4115,140.13
1.3881,136.76
1.3646,133.3
1.3421,130.66
1.3196,129.09
1.2981,128.36
1.2825,127.73
1.2698,126.7
1.2532,124.8
1.2356,122.06
1.218,118.54
1.2023,114.69
1.1877,110.63
1.174,106.68
1.1593,102.91
1.1417,99.447
1.1183,95.979
1.0919,92.755
1.0704,89.629
1.0567,86.796
1.0538,84.598
1.0792,83.182
1.1476,82.498
1.2678,82.449
1.4399,82.693
1.654,83.133
1.8905,83.572
2.1281,83.816
2.3451,83.914
2.5288,83.816
2.6725,83.572
2.7674,83.279
2.825,82.986
2.8641,82.693
2.8856,82.302
2.8915,81.863
2.8837,81.374
2.8641,80.739
2.8338,80.055
2.7928,79.323
2.7419,78.59
2.6813,78.004
2.61,77.418
2.5396,76.978
2.4663,76.636
2.3793,76.246
2.2845,75.904
2.1848,75.611
2.0841,75.171
1.9863,74.683
1.8944,74.097
1.8113,73.51
1.739,72.778
1.6784,72.094
1.6295,71.508
1.5914,70.873
1.564,70.287
1.5455,69.994
1.5288,70.433
1.5142,72.778
1.5015,78.737
1.4888,89.482
1.4761,104.23
1.4633,120.16
1.4497,133.34
1.434,141.11
1.4174,143.31
1.3988,141.7
1.3842,138.23
1.3715,134.57
1.3539,131.63
1.3343,129.83
1.3148,128.8
1.2952,128.12
1.2766,127.04
1.2581,125.24
1.2405,122.55
1.2248,119.18
1.2111,115.32
1.1975,111.22
1.1828,107.26
1.1711,103.5
1.1613,99.984
1.1447,96.614
1.1232,93.439
1.1007,90.362
1.0831,87.675
1.0821,85.477
1.1124,84.11
1.1867,83.572
1.3128,83.621
1.4888,84.11
1.7028,84.696
1.9062,85.038
2.0968,85.184
2.2981,84.94
2.4819,84.5
2.6334,83.865
2.7488,83.279
2.828,82.84
2.8759,82.547
2.8993,82.253
2.9042,81.912
2.8935,81.423
2.87,80.886
2.8377,80.153
2.7986,79.469
2.7527,78.786
2.696,78.102
2.6305,77.467
2.5562,76.929
2.4731,76.441
2.3568,76.001
2.2483,75.562
2.1691,75.122
2.0802,74.683
1.9922,74.243
1.9091,73.852
1.8426,73.364
1.7869,72.924
1.7351,72.387
1.6921,71.85
1.6579,71.312
1.6315,70.726
1.6119,70.238
1.5973,69.994
1.5846,70.873
1.5728,74.097
1.5621,81.472
1.5503,93.732
1.5415,109.51
1.5318,125.24
1.5083,137.2
1.477,143.16
1.4516,143.94
1.4291,141.5
1.4076,137.79
1.3871,134.22
1.3675,131.63
1.348,130.12
1.3294,129.39
1.3118,128.7
1.2962,127.53
1.2854,125.63
1.2776,122.84
1.2669,119.42
1.2561,115.57
1.2444,111.56
1.2317,107.75
1.218,104.18
1.2014,100.81
1.1818,97.542
1.1584,94.367
1.1378,91.29
1.1281,88.554
1.1359,86.259
1.172,84.745
1.2493,84.061
1.3773,84.061
1.5533,84.5
1.7664,85.038
2,85.575
2.2307,85.721
2.4409,85.624
2.6168,85.282
2.7537,84.745
2.8504,84.158
2.913,83.621
2.9433,83.133
2.9511,82.742
2.9492,82.351
2.9374,82.009
2.915,81.472
2.8827,80.886
2.8407,80.153
2.7889,79.421
2.7273,78.737
2.6569,78.004
2.5787,77.418
2.4917,76.881
2.4096,76.441
2.3275,76.05
2.2356,75.611
2.1388,75.22
2.043,74.78
1.9531,74.341
1.8739,73.901
1.8055,73.413
1.7478,73.071
1.7028,72.631
1.6686,72.094
1.6422,71.557
1.6217,70.922
1.608,70.531
1.5963,71.117
1.5836,73.901
1.5699,80.544
1.5552,91.973
1.5396,107.16
1.523,122.99
1.5044,135.49
1.4858,142.58
1.4653,144.24
1.4448,142.43
1.4233,139.11
1.4066,135.74
1.391,133.1
1.3724,131.54
1.3519,130.76
1.3324,130.17
1.3138,129.09
1.2942,127.24
1.2747,124.41
1.2571,120.94
1.2405,116.93
1.2248,112.88
1.2092,108.87
1.1935,105.11
1.1818,101.6
1.1701,98.323
1.1525,95.051
1.132,91.973
1.1163,89.189
1.1183,86.845
1.1515,85.233
1.2268,84.305
1.3529,84.061
1.5269,84.256
1.74,84.696
1.9717,85.038
2.174,85.282
2.348,85.428
2.5181,85.233
2.6637,84.989
2.7761,84.549
2.8553,84.11
2.9062,83.67
2.9345,83.23
2.9443,82.791
2.9394,82.253
2.911,81.618
2.8768,80.935
2.8456,80.153
2.8045,79.421
2.7556,78.688
2.694,78.053
2.6207,77.467
2.5386,76.978
2.4477,76.539
2.3509,76.197
2.2502,75.757
2.1476,75.318
2.0469,74.878
1.9521,74.341
1.8661,73.852
1.7977,73.315
1.7439,72.778
1.695,72.289
1.653,71.752
1.6197,71.117
1.5943,70.433
1.5758,69.945
1.5611,70.287
1.5484,72.924
1.5357,79.421
1.523,90.752
1.5083,105.8
1.4927,121.57
1.478,134.17
1.4643,141.35
1.4467,143.16
1.4262,141.35
1.4047,137.98
1.3842,134.57
1.3636,131.78
1.3431,130.17
1.3236,129.29
1.306,128.61
1.2884,127.53
1.2717,125.68
1.259,122.99
1.2483,119.62
1.2346,115.76
1.2209,111.76
1.2063,107.8
1.1906,104.14
1.173,100.62
1.1515,97.249
1.1261,93.927
1.1007,90.85
1.0811,88.115
1.0811,85.917
1.1163,84.403
1.1779,83.67
1.2747,83.572
1.4282,83.816
1.6266,84.305
1.8534,84.745
2.087,85.038
2.3069,85.184
2.4966,84.989
2.6471,84.696
2.7586,84.256
2.8338,83.865
2.8788,83.426
2.8983,83.035
2.8983,82.595
2.8895,82.107
2.871,81.618
2.8426,80.984
2.8055,80.349
2.7586,79.762
2.7028,79.127
2.6383,78.541
2.565,78.004
2.4819,77.467
2.391,76.978
2.2942,76.343
2.2053,75.66
2.1202,74.976
2.0274,74.292
1.9345,73.559
1.8475,72.778
1.7693,72.094
1.7028,71.508
1.6491,70.922
1.608,70.384
1.5767,69.994
1.5533,70.042
1.5347,71.605
1.522,76.099
1.5122,84.94
1.5005,98.323
1.4858,114.25
1.4692,128.95
1.4526,139.01
1.435,143.26
1.4164,142.67
1.3969,139.55
1.3773,135.69
1.3587,132.32
1.3402,129.97
1.3206,128.8
1.306,128.26
1.2942,127.63
1.2796,126.31
1.2639,124.16
1.2493,121.13
1.2346,117.42
1.219,113.51
1.2033,109.41
1.1867,105.6
1.1691,101.99
1.1486,98.616
1.1251,95.344
1.1065,92.218
1.0919,89.434
1.0821,86.991
1.0929,85.282
1.1398,84.354
1.2326,84.158
1.3763,84.5
1.566,84.989
1.8475,85.477
2.1124,85.673
2.2952,85.673
2.4731,85.379
2.6305,84.842
2.7517,84.354
2.824,83.865
2.8671,83.475
2.8935,83.133
2.9042,82.742
2.8983,82.449
2.8749,82.009
2.8426,81.423
2.8152,80.788
2.7703,80.055
2.697,79.225
2.6276,78.492
2.5562,77.809
2.4741,77.174
2.3832,76.539
2.2874,76.05
2.1887,75.464
2.0899,74.976
1.9961,74.438
1.9032,73.852
1.8172,73.217
1.7478,72.68
1.7019,72.045
1.6667,71.508
1.6315,70.922
1.6041,70.287
1.5826,69.847
1.566,69.994
1.5523,71.605
1.5386,76.441
1.5259,85.966
1.5122,100.37
1.4976,117.03
1.4809,131.98
1.4633,141.7
1.4448,145.31
1.4291,144.29
1.4154,140.87
1.3988,136.81
1.3793,133.3
1.3587,131.05
1.3392,129.93
1.3196,129.44
1.3001,128.8
1.2805,127.43
1.262,125.19
1.2444,122.06
1.2268,118.35
1.2131,114.34
1.2023,110.44
1.1896,106.72
1.172,103.31
1.1496,100.03
1.1251,96.858
1.1036,93.732
1.0958,90.752
1.1153,88.115
1.176,85.966
1.2903,84.745
1.4594,84.305
1.6745,84.5
1.8847,85.038
2.089,85.624
2.3148,85.966
2.5269,86.063
2.7077,85.819
2.8475,85.379
2.9472,84.793
3.0117,84.305
3.0479,83.865
3.0626,83.475
3.0606,83.182
3.0459,82.791
3.0205,82.351
2.9853,81.716
2.9423,81.032
2.8895,80.3
2.828,79.469
2.7566,78.737
2.6755,78.053
2.5855,77.467
2.4878,76.978
2.3842,76.539
2.2776,76.099
2.1701,75.757
2.0665,75.318
1.9804,74.878
1.9081,74.341
1.8397,73.852
1.7801,73.413
1.7312,72.924
1.6921,72.436
1.6618,71.801
1.6364,71.068
1.6158,70.482
1.5973,70.531
1.5787,72.436
1.5601,77.76
1.5455,87.871
1.5327,102.43
1.5161,118.69
1.4966,132.61
1.4761,141.35
1.4536,144.43
1.4311,143.31
1.4086,140.04
1.3861,136.42
1.3636,133.49
1.3412,131.63
1.3196,130.66
1.2972,130.22
1.2796,129.49
1.2659,127.97
1.2502,125.58
1.2336,122.31
1.217,118.5
1.2014,114.49
1.1857,110.53
1.1691,106.82
1.1486,103.16
1.1251,99.74
1.0987,96.321
1.0782,92.95
1.0723,89.727
1.089,86.991
1.1408,84.94
1.2424,83.816
1.3978,83.426
1.6012,83.621
1.8377,84.158
2.087,84.745
2.3265,85.233
2.5386,85.379
2.7107,85.184
2.8416,84.745
2.9345,84.11
2.9873,83.572
3.0127,83.035
3.0244,82.595
3.0235,82.253
3.0108,81.814
2.9873,81.277
2.9541,80.739
2.9101,80.055
2.8563,79.323
2.7918,78.541
2.7165,77.858
2.6315,77.223
2.5474,76.783
2.4614,76.441
2.3627,76.099
2.2571,75.806
2.1505,75.415
2.0469,74.976
1.9492,74.438
1.8612,73.852
1.7849,73.217
1.7214,72.631
1.6706,72.045
1.6295,71.508
1.5973,70.922
1.5738,70.287
1.5572,69.798
1.5406,69.945
1.523,71.752
1.5054,76.881
1.4868,86.698
1.4663,100.86
1.4438,116.88
1.4203,130.8
1.3949,139.6
1.3695,142.67
1.3451,141.45
1.3265,137.94
1.3099,134.08
1.2913,130.95
1.2717,129
1.2522,128.17
1.2317,127.87
1.2111,127.43
1.1906,126.26
1.1711,124.06
1.1525,121.04
1.1359,117.37
1.1202,113.42
1.1046,109.51
1.0919,105.75
1.0792,102.18
1.0596,98.812
1.0362,95.539
1.0137,92.364
1.0039,89.385
1.0196,86.845
1.0743,84.989
1.1808,83.865
1.3421,83.426
1.5503,83.572
1.7898,83.914
2.0059,84.403
2.2004,84.793
2.3978,84.989
2.5728,84.94
2.7116,84.696
2.8123,84.354
2.8788,84.061
2.9179,83.67
2.9374,83.279
2.9413,82.84
2.9316,82.351
2.9101,81.814
2.8778,81.179
2.8377,80.495
2.7898,79.811
2.7322,79.03
2.6628,78.444
2.5836,77.809
2.4936,77.32
2.3959,76.929
2.2913,76.539
2.1828,76.197
2.0743,75.757
1.9707,75.318
1.8739,74.78
1.7957,74.292
1.7312,73.657
1.6706,73.12
1.6178,72.533
1.5748,71.996
1.5396,71.557
1.5122,71.166
1.4907,71.361
1.4751,73.071
1.4604,77.906
1.4457,87.382
1.4301,101.3
1.4174,117.23
1.4057,131.29
1.39,140.23
1.3715,143.46
1.3509,142.19
1.3294,138.67
1.3069,134.66
1.2845,131.39
1.262,129.24
1.2395,128.31
1.218,127.97
1.1975,127.48
1.1769,126.36
1.1623,124.26
1.1505,121.38
1.1369,117.81
1.1232,113.86
1.1095,109.85
1.0929,105.99
1.0743,102.38
1.0518,98.909
1.0274,95.637
1.0059,92.364
1,89.434
1.0225,86.991
1.0704,85.233
1.1544,84.354
1.2952,84.305
1.4858,84.793
1.7146,85.428
1.9619,86.063
2.2023,86.356
2.4184,86.308
2.5963,85.966
2.7331,85.477
2.8309,84.94
2.8954,84.403
2.9335,83.914
2.9482,83.572
2.9472,83.133
2.9189,82.693
2.871,82.156
2.828,81.618
2.782,80.984
2.7302,80.349
2.6696,79.762
2.6002,79.127
2.522,78.541
2.435,78.053
2.3402,77.564
2.2512,77.174
2.1652,76.734
2.0714,76.343
1.9765,75.855
1.8866,75.318
1.8055,74.634
1.7351,73.852
1.6774,73.12
1.6315,72.387
1.5953,71.654
1.5679,70.922
1.5474,70.384
1.5308,70.091
1.5191,71.117
1.5093,74.927
1.4976,83.182
1.4829,96.662
1.4673,113.42
1.4497,129.44
1.4311,140.82
1.4115,145.8
1.391,145.51
1.3705,142.19
1.35,137.89
1.3304,133.98
1.3157,131.39
1.303,130.12
1.2874,129.68
1.2717,129.39
1.2551,128.51
1.2395,126.6
1.2248,123.82
1.2102,120.3
1.1955,116.35
1.1808,112.44
1.1652,108.68
1.1466,105.26
1.1241,102.04
1.1036,98.909
1.087,95.783
1.0733,92.657
1.0772,89.824
1.1144,87.382
1.1975,85.673
1.3343,84.842
1.522,84.793
1.7478,85.233
1.9922,85.819
2.2336,86.308
2.4516,86.552
2.6158,86.405
2.7351,86.063
2.8328,85.477
2.9042,84.842
2.9501,84.354
2.9756,84.012
2.9834,83.67
2.9775,83.377
2.9599,82.986
2.9316,82.498
2.8925,81.863
2.8436,81.179
2.784,80.446
2.7214,79.665
2.654,78.981
2.5748,78.346
2.4839,77.858
2.3851,77.418
2.2815,77.125
2.176,76.783
2.0723,76.49
1.9746,76.05
1.8876,75.562
1.8123,75.073
1.7488,74.487
1.7019,73.901
1.6667,73.364
1.6354,72.778
1.609,72.094
1.5865,71.557
1.566,71.361
1.5474,72.533
1.5298,76.49
1.5122,84.745
1.4946,97.737
1.4761,113.61
1.4565,128.8
1.434,139.6
1.4154,144.73
1.3978,145.02
1.3773,142.28
1.3548,138.62
1.3333,135.1
1.3118,132.66
1.2903,131.44
1.2708,130.85
1.2512,130.41
1.2317,129.44
1.2121,127.63
1.1945,124.8
1.1828,121.38
1.173,117.47
1.1613,113.51
1.1486,109.66
1.1339,106.04
1.1163,102.62
1.0968,99.3
1.0772,96.076
1.0655,92.95
1.0733,90.117
1.1153,87.919
1.2023,86.405
1.3412,85.673
1.4966,85.575
1.6696,85.819
1.8837,86.161
2.1105,86.552
2.3245,86.698
2.5093,86.552
2.6579,86.161
2.7683,85.624
2.8446,85.038
2.8925,84.5
2.9179,83.914
2.9257,83.426
2.9179,82.791
2.8993,82.156
2.8719,81.472
2.8358,80.739
2.7908,80.007
2.7361,79.323
2.6716,78.59
2.5982,78.004
2.5161,77.418
2.4252,76.929
2.3284,76.539
2.2278,76.197
2.1261,75.806
2.0381,75.415
1.9599,75.073
1.8807,74.634
1.8074,74.194
1.7429,73.657
1.6872,73.168
1.6422,72.68
1.6051,72.192
1.5748,71.557
1.5494,70.97
1.5288,70.726
1.5093,71.605
1.4936,74.927
1.479,82.351
1.4624,94.611
1.4428,110.29
1.4213,125.92
1.3978,137.69
1.3724,143.75
1.346,144.63
1.3196,142.19
1.2933,138.47
1.2678,134.91
1.2424,132.32
1.2229,130.85
1.2082,130.32
1.1906,129.88
1.173,129
1.1574,127.19
1.1437,124.5
1.13,121.04
1.1173,117.03
1.1036,112.93
1.089,108.92
1.0723,105.11
1.0528,101.55
1.0303,98.177
1.0137,94.855
1.0049,91.729
1.0049,88.945
1.0313,86.698
1.0978,85.184
1.2151,84.354
1.3812,84.158
1.5885,84.354
1.8201,84.696
2.0557,84.842
2.2747,84.793
2.4624,84.5
2.5973,84.012
2.6901,83.377
2.7644,82.791
2.8162,82.253
2.8485,81.814
2.8631,81.374
2.8641,80.935
2.8524,80.495
2.8299,80.007
2.7957,79.421
2.7517,78.737
2.696,78.102
2.6305,77.418
2.563,76.783
2.4917,76.294
2.4066,75.855
2.3128,75.562
2.2141,75.22
2.1114,74.927
2.0098,74.634
1.912,74.243
1.8221,73.803
1.7419,73.315
1.6725,72.778
1.6129,72.289
1.5679,71.801
1.5337,71.215
1.5015,70.629
1.4721,70.042
1.4448,69.603
1.4203,69.847
1.3978,71.947
1.3773,77.32
1.3568,87.48
1.3372,102.04
1.3177,118.25
1.2972,132.12
1.2766,140.67
1.261,143.46
1.2473,141.99
1.2297,138.38
1.2111,134.37
1.1906,131.05
1.1711,129
1.1525,128.07
1.1349,127.73
1.1173,127.24
1.1017,125.92
1.088,123.62
1.0762,120.5
1.0684,116.69
1.0616,112.68
1.0508,108.68
1.0371,104.92
1.0205,101.45
0.99902,98.128
0.97458,94.855
0.9521,91.729
0.94135,88.847
0.97556,86.503
1.0567,84.793
1.172,84.012
1.3294,84.012
1.4946,84.5
1.6716,85.135
1.8827,85.673
2.0997,85.966
2.3001,85.966
2.4692,85.673
2.6012,85.233
2.696,84.793
2.7586,84.305
2.7947,83.914
2.8104,83.572
2.8113,83.133
2.7996,82.693
2.7781,82.156
2.7488,81.716
2.7097,81.228
2.6598,80.69
2.6012,80.104
2.5337,79.567
2.4575,79.03
2.3724,78.492
2.2815,78.004
2.1857,77.564
2.088,77.027
1.9922,76.539
1.9101,76.05
1.8407,75.415
1.7722,74.731
1.7107,74.097
1.6588,73.413
1.6178,72.875
1.5855,72.289
1.5591,71.752
1.5386,71.312
1.522,71.41
1.5064,73.12
1.4917,78.004
1.48,87.529
1.4712,101.79
1.4594,118.2
1.4467,132.61
1.433,141.89
1.4184,145.12
1.4037,143.8
1.3891,140.13
1.3734,135.79
1.3568,132.12
1.3402,129.73
1.3236,128.7
1.306,128.31
1.2923,127.87
1.2815,126.75
1.2678,124.7
1.2532,121.72
1.2385,118.11
1.2248,114.2
1.2121,110.19
1.1984,106.43
1.1818,102.87
1.1623,99.593
1.1398,96.418
1.1193,93.341
1.1095,90.508
1.1173,87.919
1.1535,86.063
1.2326,84.94
1.3607,84.549
1.5367,84.793
1.7478,85.233
1.9746,85.721
2.1975,85.966
2.3988,85.966
2.565,85.721
2.6921,85.282
2.782,84.793
2.8348,84.256
2.8612,83.816
2.8768,83.475
2.8798,83.133
2.8729,82.693
2.8553,82.156
2.828,81.57
2.7908,80.788
2.7439,80.007
2.6882,79.176
2.6227,78.492
2.5494,77.906
2.477,77.418
2.4027,77.027
2.3167,76.734
2.2239,76.441
2.129,76.099
2.0352,75.757
1.9472,75.22
1.868,74.731
1.7996,74.243
1.7419,73.755
1.695,73.217
1.6579,72.729
1.6276,72.192
1.6061,71.557
1.5894,71.117
1.5738,71.166
1.5582,72.924
1.5415,77.809
1.5259,87.431
1.5112,101.6
1.4946,118.01
1.478,132.56
1.4594,142.04
1.4409,145.6
1.4213,144.63
1.4057,141.31
1.393,137.35
1.3763,133.98
1.3587,131.88
1.3402,130.8
1.3226,130.41
1.306,129.83
1.2903,128.51
1.2757,126.26
1.261,123.14
1.2473,119.33
1.2346,115.17
1.2268,111.12
1.2199,107.31
1.2092,103.7
1.1935,100.33
1.175,97.053
1.1564,93.878
1.1447,90.85
1.1525,88.261
1.1935,86.308
1.2796,85.184
1.4154,84.745
1.5973,84.842
1.8123,85.282
2.0108,85.721
2.1926,86.112
2.3812,86.259
2.5503,86.112
2.6882,85.673
2.7898,85.184
2.8602,84.598
2.9032,84.061
2.9257,83.572
2.9326,83.133
2.9257,82.595
2.9062,82.107
2.8778,81.472
2.8407,80.788
2.7947,80.104
2.738,79.421
2.6735,78.688
2.5992,78.053
2.5161,77.467
2.4242,77.027
2.3275,76.685
2.2268,76.294
2.1271,75.904
2.0303,75.464
1.9404,75.073
1.8671,74.634
1.8065,74.097
1.7488,73.657
1.6989,73.168
1.6579,72.631
1.6256,72.045
1.5992,71.361
1.5777,70.824
1.5591,70.482
1.5415,71.361
1.5259,74.78
1.5112,82.351
1.4985,94.806
1.4868,110.49
1.4712,125.97
1.4526,137.59
1.4321,143.55
1.4106,144.29
1.3881,141.89
1.3656,138.03
1.3431,134.42
1.3226,131.78
1.3021,130.32
1.2825,129.53
1.2649,128.95
1.2532,127.83
1.2434,125.82
1.2307,122.84
1.218,119.18
1.2053,115.13
1.1926,110.88
1.1779,106.72
1.1613,102.87
1.1417,99.3
1.1193,95.881
1.0968,92.608
1.0811,89.531
1.0792,86.845
1.0987,84.745
1.1535,83.377
1.2542,82.742
1.4047,82.742
1.5963,83.133
1.8162,83.621
2.045,84.11
2.262,84.354
2.4516,84.305
2.6051,84.061
2.7195,83.621
2.7967,83.133
2.8397,82.693
2.8592,82.302
2.8671,81.912
2.8631,81.57
2.8475,81.032
2.8221,80.495
2.7859,79.86
2.739,79.127
2.6833,78.444
2.6178,77.76
2.5435,77.174
2.4614,76.685
2.3812,76.294
2.3011,75.855
2.2102,75.415
2.1144,74.927
2.0176,74.341
1.9238,73.657
1.8377,72.973
1.7615,72.387
1.696,71.752
1.6422,71.166
1.5982,70.677
1.563,70.189
1.5357,69.652
1.5171,69.31
1.5034,69.407
1.4897,71.117
1.4761,75.904
1.4624,85.379
1.4497,99.447
1.436,115.86
1.4194,130.66
1.4008,140.48
1.3803,144.43
1.3597,143.6
1.3392,140.13
1.3236,135.79
1.3089,131.93
1.2923,129.29
1.262,127.92
1.2239,127.24
1.1955,126.56
1.172,125.29
1.1515,123.18
1.1329,120.16
1.1153,116.44
1.0987,112.29
1.0831,108.09
1.0665,104.14
1.0538,100.47
1.0411,97.053
1.0205,93.878
0.99707,90.948
0.97947,88.261
0.98143,86.112
1.0176,84.598
1.1007,83.914
1.2375,83.914
1.4252,84.354
1.652,84.989
1.8974,85.428
2.1114,85.673
2.2952,85.624
2.4741,85.282
2.6246,84.842
2.738,84.403
2.8162,84.012
2.8651,83.621
2.8895,83.23
2.8964,82.84
2.8876,82.449
2.8661,81.863
2.8328,81.179
2.7889,80.446
2.74,79.665
2.6852,78.932
2.6197,78.248
2.5435,77.564
2.4594,77.027
2.3675,76.636
2.2698,76.246
2.1681,75.904
2.0665,75.562
1.9687,75.073
1.8778,74.487
1.7977,73.852
1.737,73.217
1.6901,72.631
1.6481,72.045
1.6149,71.41
1.5885,70.824
1.5679,70.189
1.5513,69.994
1.5367,71.166
1.522,75.22
1.5083,83.816
1.4936,97.297
1.479,113.76
1.4633,129.24
1.4497,140.04
1.437,144.87
1.4194,144.63
1.3988,141.35
1.3763,137.06
1.3539,133.05
1.3314,130.17
1.3099,128.7
1.2913,127.97
1.2737,127.48
1.2561,126.41
1.2395,124.6
1.2278,121.87
1.219,118.3
1.2072,114.34
1.1935,110.29
1.1789,106.43
1.1623,102.72
1.1427,99.3
1.1202,95.979
1.0968,92.804
1.0811,89.873
1.0841,87.284
1.1212,85.282
1.2063,84.11
1.3177,83.719
1.4614,83.914
1.6598,84.403
1.8925,84.989
2.1339,85.379
2.3627,85.477
2.5621,85.282
2.7224,84.842
2.8416,84.354
2.9247,83.816
2.9775,83.377
3.0059,82.937
3.0127,82.547
3.0049,82.107
2.9892,81.667
2.9648,81.032
2.9306,80.446
2.8856,79.665
2.8299,78.932
2.7644,78.248
2.6882,77.662
2.6031,77.125
2.5093,76.685
2.4096,76.294
2.3177,75.904
2.2307,75.611
2.1369,75.171
2.044,74.731
1.957,74.243
1.8778,73.755
1.8094,73.217
1.7537,72.729
1.7077,72.24
1.6716,71.654
1.6422,71.068
1.6188,70.531
1.5982,70.629
1.5826,72.289
1.5689,77.223
1.5533,86.943
1.5376,101.11
1.52,117.42
1.5024,131.88
1.4839,141.31
1.4643,144.92
1.4428,143.99
1.4213,140.57
1.3988,136.42
1.3754,132.95
1.3568,130.61
1.3412,129.49
1.3216,129.09
1.3001,128.7
1.2786,127.53
1.2581,125.48
1.2405,122.45
1.2239,118.59
1.2082,114.49
1.1945,110.29
1.1818,106.28
1.1672,102.62
1.1486,99.154
1.132,95.881
1.1183,92.657
1.1056,89.727
1.1085,87.236
1.1417,85.379
1.218,84.305
1.346,83.914
1.5239,84.11
1.741,84.696
1.9785,85.233
2.216,85.624
2.4321,85.721
2.5953,85.477
2.7165,85.038
2.8182,84.403
2.8944,83.816
2.9453,83.182
2.9736,82.595
2.9844,82.107
2.9814,81.57
2.9658,80.984
2.9384,80.349
2.9013,79.665
2.8543,78.932
2.7977,78.199
2.738,77.467
2.6716,76.881
2.5914,76.343
2.5005,75.904
2.4008,75.464
2.2962,75.122
2.1906,74.731
2.088,74.292
1.9912,73.852
1.9032,73.364
1.827,72.778
1.7634,72.387
1.7155,71.85
1.6794,71.41
1.6471,70.922
1.6197,70.287
1.5963,69.798
1.5758,69.798
1.5572,71.312
1.5396,75.855
1.521,84.94
1.5024,98.665
1.4829,114.78
1.4614,129.63
1.4389,139.69
1.4203,143.94
1.4027,143.46
1.3822,140.18
1.3597,136.13
1.3353,132.56
1.3109,130.07
1.2874,128.85
1.2649,128.36
1.2424,127.92
1.2209,126.8
1.2004,124.7
1.1808,121.67
1.1662,117.81
1.1544,113.56
1.1417,109.31
1.1281,105.16
1.1124,101.45
1.0938,97.981
1.0723,94.66
1.0499,91.485
1.0342,88.554
1.0371,85.966
1.0714,84.061
1.1505,82.791
1.2835,82.302
1.435,82.302
1.608,82.595
1.826,83.035
2.0616,83.426
2.2884,83.572
2.4888,83.426
2.651,82.986
2.7732,82.498
2.8583,81.863
2.911,81.277
2.9413,80.886
2.9531,80.349
2.9492,80.007
2.9335,79.567
2.9091,79.127
2.8749,78.541
2.8299,78.004
2.7752,77.369
2.7087,76.783
2.6325,76.246
2.5455,75.757
2.4497,75.366
2.347,74.976
2.2395,74.683
2.13,74.292
2.0352,73.852
1.9501,73.364
1.8631,72.778
1.782,72.24
1.7097,71.557
1.6491,70.922
1.5992,70.384
1.5591,69.798
1.5259,69.261
1.5044,68.821
1.4888,68.87
1.4721,70.287
1.4585,74.683
1.4457,83.475
1.4321,97.004
1.4164,113.12
1.3988,128.12
1.3812,138.47
1.3627,143.02
1.3421,142.58
1.3216,139.25
1.3011,134.86
1.2805,130.95
1.26,128.17
1.2405,126.75
1.2268,126.12
1.2151,125.68
1.2004,124.6
1.1838,122.7
1.1672,119.77
1.1505,116.1
1.1349,112.1
1.1193,107.99
1.1036,104.04
1.085,100.42
1.0635,96.907
1.0391,93.683
1.0205,90.606
1.0088,87.822
1.0059,85.477
1.0283,83.865
1.089,83.133
1.1994,83.182
1.3617,83.67
1.566,84.305
1.7967,84.793
2.0332,85.038
2.2561,84.989
2.4487,84.598
2.6022,84.11
2.7067,83.572
2.7722,83.182
2.8192,82.937
2.8465,82.742
2.8573,82.595
2.8534,82.351
2.8368,81.863
2.8104,81.228
2.7742,80.495
2.7283,79.762
2.6725,78.981
2.609,78.297
2.5445,77.809
2.4761,77.418
2.3949,77.125
2.304,76.783
2.2082,76.49
2.1105,76.001
2.0137,75.415
1.9228,74.78
1.8407,74.097
1.7693,73.51
1.7097,72.875
1.6618,72.24
1.6237,71.654
1.5973,71.068
1.5787,70.531
1.563,70.629
1.5484,72.387
1.5357,77.418
1.522,87.236
1.5083,101.69
1.4927,118.06
1.4761,132.32
1.4594,141.31
1.4418,144.29
1.4233,142.72
1.4086,138.81
1.3949,134.22
1.3793,130.41
1.3617,127.97
1.3441,126.95
1.3265,126.56
1.3089,126.16
1.2923,125.19
1.2747,123.18
1.2581,120.3
1.2424,116.69
1.2278,112.68
1.218,108.63
1.2092,104.82
1.1955,101.25
1.1779,97.981
1.1564,94.855
1.1329,91.876
1.1183,89.043
1.1222,86.747
1.1584,85.038
1.2375,84.158
1.3675,84.012
1.5455,84.305
1.7595,84.842
1.9609,85.282
2.1486,85.575
2.347,85.477
2.5279,85.184
2.6764,84.598
2.7889,84.012
2.8671,83.377
2.9159,82.84
2.9423,82.449
2.9511,82.107
2.9472,81.716
2.9316,81.228
2.9071,80.593
2.8739,79.86
2.8328,79.176
2.782,78.444
2.7214,77.662
2.65,77.027
2.5699,76.539
2.4819,76.197
2.3871,75.855
2.2884,75.562
2.1887,75.22
2.0919,74.878
2.002,74.438
1.9286,73.852
1.868,73.364
1.8113,72.875
1.7615,72.387
1.7195,71.85
1.6843,71.361
1.6549,70.824
1.6305,70.629
1.609,71.508
1.5894,74.78
1.5709,82.302
1.5523,94.611
1.5367,110.49
1.523,126.16
1.5064,137.98
1.4868,143.99
1.4653,144.63
1.4428,141.89
1.4184,137.74
1.3949,133.74
1.3724,130.8
1.3509,129.24
1.3304,128.75
1.3109,128.51
1.2913,127.83
1.2766,126.26
1.2649,123.62
1.2512,120.16
1.2375,116.25
1.2229,112.1
1.2092,108.19
1.1945,104.48
1.1769,101.06
1.1564,97.737
1.1339,94.611
1.1153,91.632
1.1105,88.994
1.1251,86.845
1.1681,85.428
1.2571,84.745
1.3959,84.549
1.5797,84.745
1.7967,85.135
2.0293,85.379
2.2561,85.477
2.4575,85.428
2.6227,85.135
2.7488,84.598
2.8377,84.061
2.8964,83.426
2.9267,82.84
2.9384,82.302
2.9413,81.814
2.9355,81.228
2.9198,80.69
2.8954,80.055
2.8592,79.372
2.8113,78.688
2.7537,78.053
2.6862,77.418
2.608,76.881
2.521,76.343
2.4389,76.001
2.3578,75.66
2.2669,75.318
2.1711,74.976
2.0762,74.634
1.9873,74.243
1.9071,73.755
1.8368,73.217
1.7771,72.729
1.7263,72.24
1.6852,71.654
1.651,71.117
1.6217,70.531
1.6002,70.287
1.5836,71.166
1.565,74.634
1.5455,82.253
1.5259,94.66
1.5054,110.44
1.4839,125.82
1.4614,137.2
1.4379,142.87
1.4145,143.36
1.391,140.62
1.3675,136.67
1.349,132.86
1.3324,130.17
1.3128,128.8
1.2923,128.36
1.2717,128.12
1.2532,127.29
1.2346,125.63
1.217,122.84
1.2014,119.37
1.1877,115.37
1.174,111.17
1.1603,107.16
1.1457,103.45
1.1329,99.935
1.1202,96.614
1.1017,93.439
1.0821,90.508
1.0723,87.871
1.086,85.819
1.1369,84.5
1.2346,83.865
1.3812,83.865
1.5728,84.256
1.7937,84.696
2.0254,85.135
2.2209,85.282
2.3832,85.233
2.5367,84.94
2.6628,84.403
2.7576,83.865
2.8211,83.279
2.8602,82.791
2.8788,82.302
2.8827,81.716
2.8739,81.179
2.8553,80.544
2.826,79.86
2.7869,79.127
2.7419,78.444
2.6911,77.662
2.6295,76.978
2.564,76.294
2.4917,75.66
2.4066,75.122
2.3118,74.536
2.2121,73.999
2.1124,73.51
2.0156,72.875
1.9257,72.24
1.8446,71.654
1.782,71.068
1.7322,70.482
1.6872,69.945
1.6481,69.359
1.6158,68.724
1.5904,68.186
1.5699,68.04
1.5513,69.114
1.5337,72.973
1.5171,81.277
1.4985,94.416
1.479,110.73
1.4575,126.41
1.4389,137.79
1.4213,143.11
1.3988,143.26
1.3734,140.13
1.348,135.88
1.3226,131.88
1.2972,129.09
1.2727,127.73
1.2493,127.29
1.2268,127.04
1.2043,126.31
1.1818,124.6
1.1652,122.01
1.1515,118.54
1.1359,114.64
1.1183,110.44
1.0997,106.43
1.0792,102.62
1.0567,99.056
1.0323,95.734
1.0059,92.511
0.98436,89.482
0.97849,86.943
1.002,84.989
1.0684,83.865
1.1613,83.426
1.2903,83.572
1.4761,84.012
1.7019,84.5
1.9443,84.842
2.1808,85.038
2.392,84.989
2.566,84.696
2.6989,84.305
2.7928,83.865
2.8534,83.475
2.8895,83.182
2.9032,82.791
2.9003,82.351
2.8895,81.814
2.87,81.228
2.8407,80.544
2.8016,79.811
2.7537,79.127
2.696,78.492
2.6285,77.906
2.5513,77.418
2.4643,77.027
2.3695,76.734
2.2805,76.441
2.1945,76.05
2.0997,75.611
2.0039,75.073
1.913,74.487
1.8299,73.803
1.7576,73.12
1.696,72.485
1.6452,71.85
1.6051,71.312
1.5728,71.117
1.5474,71.85
1.5279,74.976
1.5152,82.058
1.5064,93.927
1.4946,109.51
1.4819,125.24
1.4682,137.3
1.4545,143.5
1.4379,144.29
1.4194,141.5
1.3988,137.11
1.3763,132.86
1.3539,129.73
1.3314,128.07
1.3148,127.43
1.3011,127.19
1.2845,126.51
1.2669,124.94
1.2502,122.35
1.2346,118.94
1.2199,114.93
1.2043,110.68
1.1887,106.48
1.1711,102.62
1.1515,99.105
1.1281,95.93
1.1036,92.95
1.086,90.166
1.0802,87.871
1.0909,86.063
1.1339,84.989
1.2209,84.598
1.3587,84.745
1.5425,85.184
1.7615,85.575
1.9951,85.721
2.2229,85.624
2.4252,85.184
2.5924,84.598
2.7087,84.012
2.7849,83.426
2.8426,82.84
2.8798,82.449
2.8993,82.058
2.9032,81.667
2.8954,81.179
2.8768,80.593
2.8485,80.007
2.8094,79.323
2.7595,78.59
2.6989,78.004
2.6285,77.467
2.5582,77.027
2.4848,76.685
2.3978,76.343
2.303,76.05
2.2043,75.757
2.1056,75.366
2.0127,74.878
1.9267,74.292
1.8514,73.755
1.7889,73.12
1.738,72.485
1.697,71.947
1.6686,71.312
1.6471,70.824
1.6276,70.531
1.608,71.312
1.5894,74.634
1.5718,82.058
1.5543,94.513
1.5367,110.49
1.5181,126.41
1.4995,138.47
1.479,144.58
1.4585,145.26
1.4379,142.48
1.4213,138.38
1.4076,134.37
1.391,131.44
1.3734,129.88
1.3558,129.29
1.3382,129
1.3216,128.12
1.306,126.36
1.2903,123.67
1.2747,120.16
1.261,116.2
1.2473,112.05
1.2375,108.09
1.2287,104.43
1.2151,101.01
1.1955,97.688
1.172,94.513
1.1486,91.436
1.1359,88.701
1.1466,86.552
1.1935,85.184
1.2893,84.549
1.437,84.598
1.6305,84.989
1.8553,85.477
2.0616,85.868
2.2473,85.917
2.4379,85.721
2.607,85.379
2.7429,84.793
2.8436,84.305
2.911,83.719
2.9521,83.23
2.9726,82.791
2.9765,82.302
2.9677,81.716
2.9482,81.13
2.9189,80.446
2.8817,79.665
2.8348,78.932
2.7781,78.248
2.7116,77.613
2.6364,77.027
2.5523,76.539
2.4604,76.197
2.3617,75.855
2.26,75.464
2.1593,75.122
2.0616,74.731
1.9707,74.243
1.8974,73.755
1.8377,73.315
1.783,72.778
1.7361,72.289
1.696,71.752
1.6628,71.068
1.6344,70.433
1.609,70.433
1.5865,72.045
1.564,76.881
1.5435,86.308
1.523,100.37
1.5064,116.69
1.4907,131.29
1.4721,141.06
1.4516,145.02
1.4291,144.24
1.4066,140.92
1.3842,136.86
1.3607,133.44
1.3382,131.24
1.3167,130.22
1.2952,129.88
1.2747,129.44
1.2551,128.26
1.2414,126.07
1.2297,122.94
1.2151,119.13
1.2014,114.93
1.1877,110.68
1.174,106.68
1.1593,103.01
1.1417,99.544
1.1202,96.223
1.0968,93.048
1.0792,90.117
1.0782,87.626
1.0978,85.673
1.1476,84.5
1.2444,84.012
1.392,84.11
1.5846,84.5
1.8074,84.94
2.0411,85.282
2.2639,85.379
2.4604,85.184
2.6217,84.793
2.7449,84.256
2.8319,83.67
2.8866,83.133
2.914,82.595
2.9228,82.156
2.9218,81.667
2.9101,81.179
2.8876,80.544
2.8553,79.86
2.8133,79.127
2.7625,78.444
2.7019,77.662
2.6325,77.027
2.5543,76.49
2.4682,76.099
2.3851,75.757
2.304,75.415
2.2121,75.122
2.1173,74.683
2.0235,74.243
1.9355,73.657
1.8573,73.12
1.7879,72.533
1.7292,71.947
1.6794,71.312
1.6393,70.677
1.607,70.091
1.5846,69.847
1.5679,70.873
1.5513,74.536
1.5337,82.449
1.5161,95.246
1.4985,111.22
1.4809,126.85
1.4614,138.33
1.4418,143.8
1.4213,144.19
1.3998,141.35
1.3773,137.3
1.3548,133.49
1.3363,130.66
1.3206,129.09
1.3021,128.51
1.2825,127.97
1.263,126.99
1.2444,125.14
1.2268,122.31
1.2102,118.69
1.1945,114.54
1.1799,110.39
1.1652,106.19
1.1486,102.28
1.1349,98.665
1.1212,95.197
1.1007,91.876
1.0782,88.799
1.0635,86.112
1.0704,84.061
1.1124,82.742
1.2014,82.253
1.3412,82.302
1.5269,82.791
1.7449,83.279
1.9765,83.719
2.1994,83.914
2.3763,83.914
2.5132,83.67
2.6325,83.377
2.7243,82.986
2.7869,82.595
2.825,82.253
2.8446,81.814
2.8475,81.374
2.8377,80.788
2.8162,80.251
2.7859,79.616
2.7449,78.932
2.6999,78.248
2.6481,77.613
2.5846,77.027
2.5103,76.636
2.4272,76.246
2.3353,75.904
2.2375,75.611
2.1359,75.22
2.0342,74.731
1.9355,74.097
1.8446,73.51
1.7625,72.778
1.6911,72.094
1.6373,71.508
1.5982,70.873
1.564,70.287
1.5357,69.945
1.5132,70.091
1.4956,71.85
1.48,76.881
1.4663,86.601
1.4536,101.01
1.4409,117.57
1.4262,132.17
1.4106,141.6
1.3978,145.07
1.3861,143.8
1.3705,140.13
1.3529,135.79
1.3333,132.17
1.3138,129.93
1.2933,128.85
1.2727,128.41
1.2532,127.87
1.2346,126.6
1.217,124.41
1.2004,121.23
1.1848,117.42
1.174,113.17
1.1662,108.97
1.1544,105.01
1.1398,101.3
1.1212,97.932
1.0987,94.758
1.0743,91.729
1.0538,88.994
1.0469,86.796
1.0684,85.282
1.1329,84.696
1.2473,84.745
1.3822,85.184
1.5415,85.819
1.7468,86.259
1.9707,86.503
2.1906,86.356
2.3861,86.063
2.5445,85.575
2.6628,85.038
2.7439,84.549
2.7937,84.11
2.8192,83.67
2.826,83.279
2.8182,82.84
2.8006,82.351
2.7752,81.716
2.7419,81.13
2.6999,80.495
2.6491,79.811
2.5894,79.176
2.522,78.59
2.4457,78.102
2.3636,77.662
2.2747,77.223
2.1808,76.734
2.085,76.099
2.0029,75.415
1.9306,74.683
1.8583,73.901
1.7918,73.168
1.7361,72.533
1.6911,71.947
1.6569,71.312
1.6305,70.726
1.6109,70.433
1.5953,70.824
1.5797,73.217
1.565,79.665
1.5503,91.29
1.5386,107.26
1.5269,124.16
1.5103,137.69
1.4917,145.26
1.4721,146.97
1.4516,144.73
1.4311,140.82
1.4115,136.76
1.3939,133.54
1.3783,131.73
1.3636,131
1.349,130.56
1.3382,129.68
1.3284,127.92
1.3148,125.19
1.3001,121.72
1.2845,117.81
1.2669,113.76
1.2493,109.8
1.2326,106.19
1.2131,102.87
1.1896,99.691
1.1623,96.565
1.1359,93.439
1.1193,90.41
1.1202,87.871
1.1457,86.063
1.2111,85.038
1.3275,84.793
1.4956,85.038
1.7038,85.575
1.9365,86.063
2.1711,86.308
2.3871,86.259
2.5689,85.917
2.7116,85.428
2.8143,84.793
2.8759,84.305
2.9091,83.865
2.9286,83.572
2.9345,83.182
2.9286,82.791
2.913,82.302
2.8866,81.716
2.8514,81.032
2.8065,80.3
2.7527,79.567
2.6901,78.786
2.6188,78.199
2.5376,77.613
2.4594,77.223
2.3803,76.929
2.2893,76.636
2.1935,76.294
2.0968,75.904
2.0029,75.464
1.9179,74.927
1.8446,74.341
1.782,73.803
1.7302,73.315
1.6901,72.729
1.6579,72.192
1.6354,71.752
1.6188,71.801
1.6022,73.559
1.5855,78.444
1.5699,87.968
1.5543,102.23
1.5396,118.54
1.523,133.1
1.5054,142.62
1.4858,146.24
1.4653,145.41
1.4438,142.19
1.4223,138.38
1.4047,135.25
1.3891,133.34
1.3695,132.56
1.35,132.32
1.3304,131.88
1.3109,130.56
1.2913,128.17
1.2737,124.8
1.2581,120.79
1.2434,116.49
1.2297,112.29
1.2151,108.43
1.2033,104.92
1.1916,101.6
1.174,98.323
1.1525,94.855
1.1261,91.436
1.1075,88.261
1.1193,85.721
1.172,84.305
1.2766,84.012
1.434,84.549
1.6364,85.673
1.8671,86.747
2.0772,87.48
2.2639,87.675
2.4526,87.382
2.6188,86.503
2.7507,85.379
2.8465,84.256
2.9101,83.23
2.9482,82.547
2.9658,82.253
2.9677,82.253
2.956,82.351
2.9326,82.351
2.8974,82.058
2.8563,81.277
2.8084,80.3
2.7488,79.323
2.6794,78.346
2.6012,77.613
2.5132,76.978
2.4184,76.49
2.3167,76.001
2.2131,75.415
2.1095,74.878
2.0098,74.438
1.9179,74.048
1.8446,73.803
1.7849,73.51
1.7283,73.168
1.6794,72.778
1.6403,72.289
1.608,71.752
1.5826,71.361
1.5621,72.045
1.5435,75.122
1.5269,82.253
1.5093,94.171
1.4917,109.61
1.4741,125.19
1.4594,137.06
1.4457,143.5
1.4272,144.92
1.4066,143.11
1.3842,140.13
1.3617,137.11
1.3382,135.01
1.3138,133.69
1.2893,132.86
1.2649,131.93
1.2424,130.32
1.2219,127.73
1.2082,124.36
1.1984,120.45
1.1857,116.25
1.173,112.05
1.1603,108.09
1.1466,104.43
1.13,100.91
1.1095,97.542
1.0841,94.22
1.0596,91.192
1.044,88.506
1.0499,86.356
1.0919,84.989
1.1613,84.256
1.2669,84.061
1.4301,84.11
1.6383,84.305
1.8729,84.354
2.1105,84.256
2.3314,83.914
2.521,83.475
2.6716,83.035
2.781,82.693
2.8543,82.449
2.8983,82.302
2.9169,82.253
2.9179,82.058
2.9101,81.716
2.8915,81.228
2.8631,80.544
2.824,79.762
2.7742,78.786
2.7136,77.858
2.6432,77.125
2.564,76.539
2.4761,76.197
2.3812,76.001
2.2805,75.855
2.1877,75.66
2.0997,75.415
2.0059,74.976
1.913,74.438
1.826,73.755
1.7478,73.071
1.6804,72.289
1.6246,71.557
1.5787,70.922
1.5435,70.384
1.5161,69.994
1.4946,70.287
1.4809,72.436
1.4712,78.004
1.4585,88.31
1.4438,103.11
1.4282,119.62
1.4125,133.78
1.3959,142.67
1.3773,145.85
1.3578,144.68
1.3372,141.31
1.3167,137.25
1.2962,133.74
1.2757,131.44
1.26,130.12
1.2473,129.29
1.2307,128.36
1.2121,126.75
1.1935,124.31
1.174,121.04
1.1554,117.23
1.1388,113.17
1.1222,109.12
1.1056,105.16
1.087,101.5
1.0655,97.932
1.0469,94.562
1.0313,91.387
1.0127,88.603
1.0039,86.356
1.0205,84.94
1.0762,84.256
1.1828,84.305
1.3431,84.745
1.5474,85.379
1.781,85.868
2.0235,86.112
2.2532,86.063
2.4526,85.819
2.5973,85.477
2.6979,85.135
2.7761,84.842
2.828,84.549
2.8563,84.256
2.8651,83.865
2.8602,83.279
2.8426,82.693
2.8143,81.863
2.7761,81.13
2.7283,80.3
2.6716,79.616
2.6129,78.981
2.5503,78.444
2.4751,78.004
2.3891,77.564
2.2952,77.125
2.1955,76.636
2.0948,76.099
1.9961,75.464
1.9042,74.878
1.8211,74.292
1.7488,73.755
1.6891,73.217
1.6413,72.729
1.608,72.192
1.5855,71.654
1.566,71.508
1.5503,72.192
1.5376,75.22
1.5259,82.351
1.5152,94.513
1.5034,110.24
1.4897,126.26
1.4751,138.57
1.4585,145.07
1.4399,146.14
1.4242,143.75
1.4115,139.79
1.3959,135.88
1.3783,132.86
1.3597,131.2
1.3412,130.41
1.3226,129.88
1.304,128.95
1.2854,127.14
1.2678,124.41
1.2512,120.94
1.2356,116.93
1.2209,112.73
1.2111,108.68
1.2033,104.87
1.1906,101.35
1.173,98.03
1.1496,94.855
1.1241,91.778
1.1056,88.994
1.1056,86.601
1.1398,85.038
1.2199,84.305
1.3539,84.354
1.5376,84.793
1.7253,85.428
1.9169,85.868
2.1359,86.063
2.3509,85.917
2.5396,85.575
2.6911,84.989
2.8025,84.354
2.8778,83.865
2.9218,83.377
2.9423,82.986
2.9453,82.693
2.9345,82.253
2.913,81.716
2.8837,81.032
2.8485,80.349
2.8045,79.567
2.7507,78.786
2.6882,78.199
2.6158,77.613
2.5357,77.174
2.4467,76.881
2.3509,76.49
2.2512,76.099
2.1505,75.757
2.0518,75.22
1.9687,74.634
1.8993,74.048
1.8319,73.413
1.7703,72.875
1.7185,72.289
1.6755,71.752
1.6413,71.166
1.6149,70.726
1.5934,71.068
1.5748,73.364
1.5582,79.225
1.5415,89.971
1.5298,105.11
1.5191,121.67
1.5044,135.54
1.4878,143.94
1.4702,146.68
1.4506,145.41
1.4291,142.19
1.4066,138.57
1.3832,135.54
1.3597,133.69
1.3363,132.76
1.3167,132.17
1.3001,131.29
1.2874,129.73
1.2757,127.19
1.261,123.87
1.2444,120.01
1.2297,115.81
1.216,111.66
1.2023,107.8
1.1857,104.04
1.1662,100.57
1.1427,97.2
1.1183,93.878
1.0997,90.85
1.0948,88.31
1.1114,86.405
1.1632,85.282
1.262,84.94
1.4115,84.94
1.608,85.184
1.8348,85.477
2.0733,85.673
2.3021,85.673
2.5024,85.575
2.6647,85.184
2.7869,84.696
2.8719,84.158
2.9208,83.621
2.9443,83.035
2.9541,82.498
2.9511,81.912
2.9365,81.374
2.912,80.739
2.8778,80.055
2.8338,79.372
2.7801,78.688
2.7175,78.004
2.6452,77.369
2.565,76.783
2.4868,76.343
2.4066,76.05
2.3138,75.757
2.2151,75.415
2.1144,75.171
2.0156,74.78
1.9228,74.341
1.8397,73.852
1.7674,73.364
1.7058,72.778
1.6559,72.24
1.6168,71.605
1.5865,70.97
1.567,70.726
1.5523,71.801
1.5376,75.611
1.523,83.719
1.5073,96.76
1.4907,112.73
1.4731,128.17
1.4536,139.16
1.433,144.24
1.4115,144.24
1.3891,141.55
1.3666,138.18
1.348,135.35
1.3314,133.49
1.3109,132.42
1.2884,131.88
1.2669,131.2
1.2473,129.88
1.2287,127.68
1.2111,124.75
1.1945,121.23
1.1799,117.62
1.1662,114
1.1515,110.44
1.1369,106.72
1.1261,102.82
1.1144,98.47
1.0958,93.976
1.0743,89.727
1.0587,86.308
1.0596,84.061
1.0929,82.986
1.1711,82.84
1.3001,83.23
1.478,83.865
1.6921,84.305
1.9238,84.354
2.1251,84.256
2.2981,84.403
2.4663,85.135
2.61,85.966
2.7204,86.991
2.7977,87.822
2.8475,88.115
2.8739,87.48
2.8827,85.379
2.8778,81.912
2.8622,78.053
2.8348,74.927
2.7957,73.315
2.7507,72.973
2.6999,73.413
2.6364,74.048
2.563,74.731
2.4819,75.22
2.3939,75.366
2.2991,75.073
2.2004,74.487
2.0997,73.657
2.001,72.68
1.9091,71.605
1.826,70.726
1.7615,70.238
1.7107,70.091
1.6618,70.238
1.6197,70.433
1.5846,70.629
1.5552,70.824
1.5298,71.117
1.5083,72.045
1.4888,74.927
1.4702,81.618
1.4506,93.243
1.4311,108.48
1.4115,123.87
1.3949,135.54
1.3803,141.45
1.3627,142.14
1.3431,139.6
1.3216,135.93
1.2991,132.42
1.2766,129.93
1.2542,128.61
1.2317,128.31
1.2082,128.41
1.1848,128.12
1.1613,126.99
1.1437,124.94
1.129,122.01
1.1124,118.35
1.0958,114.2
1.0782,109.51
1.0606,104.43
1.042,99.349
1.0205,95.002
0.99511,91.29
0.9697,87.822
0.9521,84.158
0.95308,81.032
0.98827,79.469
1.0518,79.665
1.1515,80.886
1.3089,82.498
1.5132,84.5
1.7488,86.991
1.9941,89.287
2.2258,90.655
2.4262,90.508
2.5865,89.092
2.7048,87.236
2.784,85.428
2.8309,83.719
2.8514,82.547
2.8543,82.009
2.8475,82.009
2.8319,82.449
2.8065,82.595
2.7722,82.253
2.7283,81.179
2.6755,79.567
2.6139,77.662
2.5425,75.904
2.4614,74.634
2.3724,73.852
2.2757,73.803
2.1867,74.243
2.1026,74.927
2.0117,75.611
1.9208,76.099
1.8348,76.294
1.7576,76.001
1.6911,75.318
1.6364,74.341
1.5934,73.559
1.5601,72.875
1.5347,72.387
1.5142,72.436
1.5005,74.097
1.4907,79.616
1.48,90.557
1.4682,106.38
1.4555,123.48
1.4409,137.45
1.4252,145.02
1.4066,145.8
1.3861,141.75
1.3646,135.44
1.3412,129.49
1.3167,125.63
1.2981,124.55
1.2825,125.82
1.2639,128.26
1.2454,130.41
1.2278,130.85
1.2111,129.05
1.1965,125.24
1.1818,120.16
1.1672,114.73
1.1515,109.36
1.1359,104.67
1.1183,100.81
1.0968,97.591
1.0792,94.806
1.0626,92.071
1.044,89.287
1.0371,86.552
1.0557,83.865
1.1144,82.009
1.2229,81.716
1.3832,82.742
1.5865,83.426
1.8162,83.133
2.0528,82.547
2.2747,82.742
2.4467,83.914
2.5767,85.477
2.6872,87.187
2.7674,88.799
2.8182,90.069
2.8456,90.117
2.8534,88.701
2.8456,85.917
2.826,82.693
2.7957,79.665
2.7566,77.174
2.7077,75.366
2.651,74.341
2.5943,73.901
2.5327,73.852
2.4604,73.852
2.3783,73.755
2.2893,73.413
2.1955,73.12
2.0987,72.924
2.002,72.875
1.9101,72.924
1.826,72.924
1.7527,72.875
1.6901,72.68
1.6442,72.436
1.6109,72.094
1.5816,71.752
1.5572,71.312
1.5376,71.068
1.5337,71.312
1.5396,73.071
1.5357,78.004
1.5279,87.626
1.5171,101.99
1.5034,118.89
1.4888,134.13
1.4721,144.24
1.4594,148.29
1.4467,147.51
1.4291,143.8
1.4096,139.06
1.3891,134.57
1.3695,131.2
1.35,129.09
1.3314,128.17
1.3128,127.68
1.2942,126.95
1.2766,125.43
1.26,122.99
1.2493,119.67
1.2414,115.76
1.2317,111.41
1.2209,107.16
1.2082,103.06
1.1926,99.251
1.172,95.637
1.1486,92.315
1.1261,89.238
1.1153,86.747
1.13,84.94
1.1828,84.012
1.2845,83.816
1.4086,84.256
1.5611,85.038
1.7615,85.819
1.9853,86.308
2.2092,86.356
2.4125,86.063
2.5826,85.477
2.7126,84.745
2.8045,84.012
2.8631,83.377
2.8954,82.937
2.9071,82.498
2.9022,82.107
2.8866,81.618
2.8612,81.032
2.827,80.349
2.784,79.567
2.7312,78.737
2.6706,78.004
2.6022,77.223
2.5259,76.539
2.4418,76.001
2.3519,75.464
2.2561,75.122
2.1593,74.731
2.0743,74.438
1.998,74.194
1.9198,73.852
1.8475,73.559
1.783,73.217
1.7283,72.973
1.6833,72.729
1.6471,72.387
1.6178,71.85
1.5943,71.166
1.5738,70.531
1.5562,70.384
1.5435,71.654
1.5327,76.246
1.5191,85.428
1.5034,99.349
1.4858,116
1.4673,131.44
1.4467,142.19
1.4262,146.92
1.4047,146.68
1.3822,143.5
1.3597,139.16
1.3372,135.1
1.3148,132.12
1.2981,130.41
1.2845,129.73
1.2678,129.44
1.2502,128.7
1.2317,127.14
1.2141,124.41
1.1984,120.74
1.1828,116.35
1.1701,111.76
1.1584,107.26
1.1466,103.06
1.132,99.105
1.1193,95.344
1.1075,91.925
1.0919,88.945
1.0821,86.503
1.0899,84.598
1.13,83.572
1.2141,83.182
1.346,83.426
1.5249,84.012
1.7361,84.549
1.9619,84.94
2.1828,84.989
2.3793,84.793
2.5259,84.403
2.6315,84.012
2.7185,83.475
2.781,83.035
2.8201,82.595
2.8397,82.253
2.8426,81.814
2.8328,81.423
2.8113,80.886
2.7781,80.104
2.7341,79.323
2.6794,78.492
2.6227,77.662
2.5621,76.978
2.4888,76.343
2.4066,75.855
2.3177,75.366
2.2239,75.073
2.1281,74.731
2.0342,74.341
1.9433,73.999
1.8592,73.559
1.783,73.071
1.7165,72.436
1.6618,71.85
1.6227,71.312
1.5943,70.824
1.5699,70.287
1.5503,69.798
1.5337,69.31
1.5191,69.407
1.5054,71.166
1.4927,76.197
1.48,85.721
1.4653,99.935
1.4477,116.35
1.4282,131.29
1.4135,141.45
1.3998,145.7
1.3803,145.31
1.3587,142.14
1.3363,137.94
1.3148,133.93
1.2933,130.8
1.2717,128.85
1.2512,127.83
1.2307,127.04
1.2111,126.07
1.1926,124.31
1.175,121.67
1.1642,118.25
1.1554,114.25
1.1447,109.95
1.132,105.6
1.1163,101.45
1.0987,97.493
1.0772,93.781
1.0538,90.362
1.0342,87.382
1.0254,84.94
1.0411,83.133
1.0938,82.107
1.172,81.814
1.2825,82.058
1.4457,82.498
1.6471,83.035
1.868,83.475
2.088,83.719
2.2893,83.816
2.4575,83.621
2.5885,83.279
2.6813,82.84
2.7419,82.449
2.7771,81.912
2.7898,81.472
2.7869,80.984
2.7752,80.495
2.7546,79.86
2.7253,79.225
2.6862,78.492
2.6373,77.809
2.5777,77.125
2.5093,76.49
2.4321,76.001
2.347,75.562
2.2551,75.122
2.1603,74.634
2.0753,74.097
1.9961,73.657
1.911,73.315
1.8289,73.071
1.7537,72.68
1.6882,72.24
1.6334,71.752
1.5894,71.166
1.5562,70.629
1.5308,69.945
1.5103,69.359
1.4946,69.31
1.4848,70.433
1.478,74.341
1.4692,82.693
1.4585,95.93
1.4467,112.29
1.434,128.31
1.4194,140.13
1.4027,146
1.3832,146.48
1.3617,143.6
1.3392,139.25
1.3167,134.76
1.2942,131.05
1.2776,128.7
1.2639,127.43
1.2473,126.75
1.2287,125.97
1.2121,124.55
1.1975,122.26
1.1838,119.13
1.1711,115.17
1.1584,110.92
1.1457,106.53
1.132,102.23
1.1144,98.225
1.1007,94.513
1.087,91.045
1.0674,87.968
1.0518,85.477
1.0528,83.865
1.0831,83.182
1.1535,83.377
1.2727,84.11
1.4409,85.038
1.6461,85.868
1.8719,86.308
2.0978,86.308
2.303,85.868
2.4594,85.135
2.5748,84.305
2.6696,83.572
2.7361,82.791
2.7761,82.253
2.7947,81.814
2.7957,81.57
2.784,81.374
2.7625,81.179
2.7312,80.886
2.6921,80.495
2.6588,80.007
2.6295,79.372
2.5836,78.737
2.5191,78.053
2.4418,77.369
2.3558,76.636
2.263,75.855
2.1672,75.22
2.0714,74.683
1.9785,74.048
1.8925,73.364
1.8172,72.631
1.7527,72.045
1.6999,71.557
1.6637,71.166
1.6393,70.726
1.6188,70.287
1.6022,69.945
1.5885,70.042
1.5758,71.41
1.565,75.562
1.5552,83.914
1.5445,97.2
1.5327,113.51
1.52,129.09
1.5054,140.38
1.4936,145.7
1.4819,146.04
1.4663,143.55
1.4487,139.94
1.4301,136.37
1.4106,133.54
1.392,131.88
1.3734,131
1.3558,130.17
1.3392,128.61
1.3226,125.97
1.306,122.5
1.2913,118.5
1.2815,114.3
1.2737,110.24
1.261,106.53
1.2463,103.35
1.2297,100.57
1.2092,97.444
1.1857,93.781
1.1632,89.922
1.1476,86.356
1.1525,83.621
1.1916,81.814
1.2766,81.032
1.3861,81.374
1.5269,82.302
1.7195,83.426
1.9443,84.549
2.1769,85.477
2.3949,86.112
2.5826,86.503
2.7312,86.405
2.8407,85.868
2.914,84.94
2.957,84.012
2.9765,83.035
2.9775,82.351
2.9648,81.863
2.9423,81.667
2.9091,81.667
2.8671,81.814
2.8162,81.667
2.7566,81.179
2.6882,80.3
2.6119,79.03
2.5298,77.418
2.4409,75.66
2.3451,74.097
2.2463,73.168
2.1584,72.973
2.0782,73.315
1.9951,73.852
1.9159,74.536
1.8446,74.976
1.784,75.073
1.7351,74.536
1.696,73.608
1.6647,72.289
1.6413,70.922
1.6227,69.749
1.608,69.31
1.5953,70.677
1.5865,75.562
1.5777,85.477
1.565,100.42
1.5513,118.2
1.5347,134.52
1.5161,145.8
1.4956,150.93
1.4741,150.98
1.4526,147.85
1.4311,143.16
1.4086,138.18
1.3871,134.08
1.3705,131.44
1.3578,129.97
1.3412,128.95
1.3236,127.63
1.305,125.63
1.2874,122.99
1.2698,119.67
1.2542,115.81
1.2405,111.66
1.2258,107.36
1.2111,103.06
1.1935,98.909
1.173,95.099
1.1564,91.68
1.1427,88.506
1.132,85.868
1.1369,84.012
1.172,83.182
1.2512,83.133
1.3803,83.572
1.5562,84.158
1.7664,84.793
1.9941,85.282
2.218,85.428
2.4194,85.282
2.5728,84.793
2.6843,84.305
2.7761,83.914
2.8416,83.67
2.8827,83.572
2.9042,83.621
2.9091,83.719
2.9003,83.719
2.8788,83.279
2.8446,82.253
2.7986,80.984
2.7419,79.811
2.6823,78.932
2.6197,78.053
2.5464,77.027
2.4643,75.904
2.3754,75.073
2.2815,74.634
2.1848,74.341
2.088,73.901
1.9951,73.217
1.9081,72.436
1.8299,71.752
1.7625,71.068
1.7058,70.287
1.6637,69.554
1.6334,68.968
1.608,68.528
1.5875,68.284
1.5709,68.235
1.5582,69.114
1.5474,72.387
1.5367,79.762
1.5249,91.925
1.5122,107.7
1.4976,123.67
1.4829,136.13
1.4712,143.06
1.4604,144.87
1.4448,143.36
1.4272,140.57
1.4066,137.59
1.3861,135.25
1.3646,133.78
1.3412,132.95
1.3187,132.07
1.2962,130.56
1.2747,128.26
1.2551,125.19
1.2366,121.62
1.2248,117.67
1.216,113.76
1.2053,110
1.1935,106.19
1.1789,102.04
1.1623,97.542
1.1417,92.95
1.1193,88.75
1.1007,85.184
1.0958,82.351
1.1173,80.69
1.1789,80.349
1.2669,81.228
1.3871,82.742
1.5611,84.061
1.7703,84.793
1.9941,84.94
2.2131,84.256
2.4086,82.742
2.5699,80.739
2.6921,78.883
2.7761,77.613
2.8299,77.125
2.8592,77.223
2.868,77.858
2.8592,79.127
2.8387,80.739
2.8094,82.156
2.7713,82.937
2.7234,82.742
2.6657,81.618
2.6002,79.811
2.5269,77.613
2.4448,75.562
2.3568,74.097
2.2639,73.51
2.1681,73.364
2.0831,73.315
2.0068,73.217
1.9267,72.973
1.8495,72.729
1.7781,72.485
1.7155,72.24
1.6628,71.947
1.6197,71.508
1.5865,70.873
1.5611,70.189
1.5435,69.652
1.5298,70.531
1.5191,74.487
1.5122,83.133
1.5064,96.907
1.4985,114
1.4878,130.36
1.4741,142.28
1.4585,148
1.4399,148.39
1.4203,145.41
1.3988,141.01
1.3783,136.57
1.3578,133
1.3363,130.8
1.3196,129.68
1.306,129
1.2893,127.87
1.2717,125.87
1.2542,122.84
1.2375,118.94
1.2219,114.34
1.2063,109.66
1.1896,105.36
1.173,101.55
1.1544,98.128
1.132,94.855
1.1065,91.68
1.088,88.603
1.0772,85.868
1.0782,83.816
1.1056,82.498
1.173,81.912
1.2766,82.058
1.4252,82.693
1.6256,83.377
1.8553,84.012
2.088,84.256
2.304,84.305
2.4868,84.256
2.6168,84.11
2.7038,84.012
2.7703,83.914
2.8123,84.012
2.8338,84.061
2.8387,83.865
2.8289,83.279
2.8084,82.253
2.7771,81.032
2.7361,79.909
2.6872,78.981
2.6305,78.297
2.565,77.662
2.4995,77.223
2.4311,76.783
2.349,76.294
2.2581,75.562
2.1623,74.683
2.0665,74.097
1.9736,74.048
1.8886,74.243
1.8133,74.487
1.7498,74.683
1.6989,74.683
1.6588,74.194
1.6315,73.12
1.6129,71.605
1.5973,70.189
1.5855,69.359
1.5758,70.531
1.5679,75.611
1.5601,86.308
1.5513,102.28
1.5406,120.45
1.5279,136.13
1.5142,146.04
1.4985,149.85
1.4819,149.27
1.4682,145.85
1.4565,141.35
1.4428,136.91
1.4282,133.64
1.4125,131.63
1.3959,130.36
1.3793,129.05
1.3627,127.14
1.347,124.6
1.3304,121.38
1.3138,117.32
1.2981,112.68
1.2864,108.29
1.2776,104.82
1.2639,102.04
1.2454,99.495
1.2229,97.004
1.1965,94.513
1.172,92.071
1.1593,89.678
1.1711,87.284
1.2199,85.233
1.3187,83.816
1.4702,83.23
1.6676,83.182
1.8631,83.377
2.0567,83.572
2.2717,83.816
2.478,84.11
2.6569,84.5
2.7977,84.598
2.9003,84.5
2.9677,84.256
3.0078,84.11
3.0264,84.012
3.0283,83.719
3.0166,83.133
2.9932,82.302
2.9599,81.374
2.9169,80.251
2.8641,78.786
2.8025,77.32
2.7331,76.05
2.6569,75.22
2.5738,74.78
2.4839,74.878
2.3891,75.415
2.2923,76.001
2.1965,76.197
2.1046,75.904
2.0293,75.366
1.9658,74.487
1.9052,73.413
1.8524,72.533
1.8094,72.045
1.7732,71.85
1.7449,71.654
1.7224,71.312
1.7028,71.117
1.6852,72.24
1.6696,76.246
1.6549,84.549
1.6432,97.688
1.6334,114.1
1.6197,130.36
1.6041,142.62
1.5865,148.93
1.566,149.85
1.5435,147.31
1.521,143.26
1.4985,139.01
1.4761,135.49
1.4545,133
1.436,131.29
1.4213,129.97
1.4086,128.61
1.393,126.8
1.3754,124.41
1.3568,121.43
1.3372,118.11
1.3187,114.64
1.3011,111.36
1.2845,108.39
1.2678,105.41
1.2493,102.57
1.2287,99.447
1.2082,95.881
1.1945,91.925
1.1955,88.115
1.217,85.135
1.2757,83.182
1.3822,82.253
1.5396,81.863
1.7419,81.863
1.9736,82.253
2.2141,82.84
2.4418,83.426
2.6393,83.865
2.7986,84.305
2.9081,85.038
2.9785,85.966
3.0303,86.601
3.0635,86.698
3.0792,86.356
3.0792,85.819
3.0655,84.989
3.0401,83.816
3.0029,82.449
2.9541,81.032
2.8954,79.86
2.827,78.541
2.7498,76.978
2.6745,75.366
2.5973,73.901
2.5083,72.924
2.4125,72.387
2.3138,72.24
2.2151,72.485
2.1202,72.875
2.0323,73.071
1.955,72.924
1.8895,72.192
1.8348,70.824
1.7908,69.163
1.7586,67.796
1.737,66.868
1.7195,66.477
1.7048,66.916
1.6911,68.821
1.6764,73.657
1.6618,83.182
1.6461,97.444
1.6295,114.25
1.6119,129.97
1.5943,141.45
1.5758,147.31
1.5562,148.24
1.5406,145.95
1.5269,142.14
1.5103,138.18
1.4907,134.91
1.4692,132.61
1.4487,131
1.4282,129.53
1.4076,127.73
1.3881,125.48
1.3695,122.7
1.3509,119.37
1.3324,115.47
1.3187,111.32
1.3079,107.16
1.2933,103.45
1.2766,99.886
1.2571,96.125
1.2336,92.169
1.2082,88.701
1.1867,85.917
1.1799,84.061
1.2023,82.742
1.2669,82.058
1.3832,82.009
1.5503,82.351
1.7273,82.937
1.914,83.23
2.1339,83.23
2.3568,82.937
2.5601,82.595
2.7302,82.351
2.8622,82.107
2.956,81.618
3.0176,80.788
3.0538,79.86
3.0694,79.03
3.0674,78.346
3.0518,77.858
3.0244,77.418
2.9863,77.174
2.9394,77.027
2.8827,76.978
2.8152,77.027
2.739,77.32
2.653,77.564
2.5591,77.613
2.4594,77.223
2.3568,76.441
2.2542,75.415
2.1544,74.536
2.0694,73.999
1.9961,73.755
1.9238,73.657
1.8583,73.608
1.8025,73.51
1.7556,73.168
1.7175,72.485
1.6872,71.361
1.6628,69.945
1.6432,68.87
1.6266,69.261
1.6119,72.875
1.6002,81.179
1.5894,94.611
1.5758,111.12
1.5601,126.95
1.5435,138.42
1.5249,144.14
1.5054,144.82
1.4848,142.48
1.4633,139.11
1.4399,135.93
1.4154,133.64
1.392,132.17
1.3353,131.1
1.2669,129.83
1.2268,127.53
1.1965,124.26
1.172,120.06
1.1505,115.37
1.132,110.88
1.1153,106.68
1.0987,103.01
1.0811,99.691
1.0626,96.76
1.0411,94.074
1.0166,91.534
0.99707,89.189
0.98436,87.138
0.97947,85.575
0.99902,84.598
1.0567,84.158
1.1652,84.158
1.3275,84.5
1.5357,84.94
1.7752,85.233
2.0244,85.282
2.261,85.135
2.4673,84.793
2.6325,84.549
2.7449,84.354
2.8162,84.158
2.8671,84.012
2.8954,83.67
2.9052,83.182
2.8993,82.547
2.8807,81.716
2.8504,80.788
2.8094,79.86
2.7586,79.127
2.6979,78.492
2.6276,78.004
2.5562,77.613
2.4829,77.418
2.3969,77.32
2.3021,77.174
2.2014,76.783
2.0987,76.246
1.999,75.464
1.9052,74.683
1.8211,73.852
1.7488,72.973
1.6891,72.045
1.6413,71.117
1.6041,70.287
1.5777,69.749
1.5591,69.359
1.5425,69.554
1.5279,71.166
1.5161,75.806
1.5044,84.989
1.4917,99.007
1.479,115.57
1.4643,130.85
1.4497,141.55
1.433,146.43
1.4145,146.43
1.3988,143.55
1.3842,139.6
1.3666,135.93
1.347,133.1
1.3275,131.29
1.3089,130.17
1.2893,129
1.2688,127.43
1.2483,125.14
1.2287,122.06
1.2092,118.45
1.1906,114.49
1.173,110.49
1.1603,106.68
1.1505,103.11
1.1369,99.691
1.1193,96.369
1.0978,93.097
1.0733,89.922
1.0538,87.138
1.0499,84.842
1.0753,83.426
1.1447,82.937
1.2669,83.035
1.4399,83.621
1.6217,84.305
1.8123,84.842
2.0371,85.135
2.263,85.135
2.4673,84.842
2.6373,84.5
2.7683,84.11
2.8602,83.719
2.9198,83.475
2.9531,83.182
2.9648,82.791
2.9599,82.351
2.9423,81.814
2.915,81.13
2.8778,80.3
2.8299,79.421
2.7722,78.59
2.7048,77.906
2.6276,77.32
2.5425,76.783
2.4497,76.343
2.349,76.001
2.2434,75.611
2.1359,75.171
2.0303,74.78
1.9423,74.292
1.8671,73.852
1.7928,73.413
1.7273,73.071
1.6725,72.68
1.6285,72.24
1.5934,71.752
1.567,71.215
1.5464,70.873
1.5298,71.215
1.5152,73.51
1.5005,79.323
1.4888,89.971
1.478,104.92
1.4633,121.18
1.4467,135.01
1.4272,143.5
1.4047,146.48
1.3822,145.51
1.3597,142.58
1.3363,139.11
1.3128,136.18
1.2893,134.17
1.2649,133
1.2414,132.07
1.2248,130.76
1.2111,128.75
1.1935,125.87
1.175,122.31
1.1584,118.25
1.1417,114
1.1251,109.75
1.1095,105.8
1.0948,102.13
1.0782,98.616
1.0577,95.295
1.0342,92.12
1.0166,89.287
1.0068,86.943
1.0088,85.184
1.0381,84.158
1.1095,83.719
1.2326,83.865
1.4066,84.256
1.6197,84.696
1.8543,85.038
2.089,85.184
2.304,85.135
2.4848,84.842
2.6256,84.549
2.7185,84.158
2.7771,83.719
2.8192,83.377
2.8436,82.937
2.8524,82.498
2.8465,81.912
2.828,81.374
2.7967,80.739
2.7546,80.007
2.7009,79.176
2.6364,78.346
2.5621,77.662
2.4878,77.027
2.4135,76.539
2.3275,76.05
2.2346,75.611
2.1359,75.171
2.0371,74.731
1.9413,74.292
1.8514,73.852
1.7713,73.364
1.6999,72.875
1.6383,72.387
1.5875,71.85
1.5455,71.361
1.5161,70.726
1.4946,70.189
1.4751,69.652
1.4575,69.798
1.4399,71.557
1.4233,76.539
1.4066,86.161
1.391,100.33
1.3763,116.64
1.3597,131.24
1.3402,141.16
1.3187,145.56
1.3011,145.51
1.2854,143.11
1.2649,139.89
1.2434,136.91
1.2219,134.76
1.2014,133.34
1.1799,132.22
1.1593,130.85
1.1388,128.85
1.1183,125.97
1.0987,122.35
1.0792,118.3
1.0606,114
1.0469,109.75
1.0371,105.75
1.0225,101.99
1.0049,98.421
0.98338,95.051
0.95992,91.729
0.93548,88.603
0.91789,85.966
0.91691,83.914
0.94721,82.595
1.0205,82.058
1.1447,82.009
1.2893,82.302
1.4555,82.742
1.6667,83.133
1.8974,83.279
2.1202,83.279
2.3177,83.035
2.478,82.742
2.5982,82.351
2.6813,82.058
2.7351,81.716
2.7644,81.472
2.7742,81.179
2.7693,80.739
2.7527,80.251
2.7263,79.665
2.6891,78.981
2.6413,78.297
2.5826,77.613
2.5152,76.978
2.4379,76.441
2.3509,75.904
2.2571,75.562
2.1574,75.122
2.0547,74.731
1.9521,74.243
1.8631,73.755
1.784,73.217
1.7028,72.68
1.6276,72.094
1.5611,71.557
1.5044,71.068
1.478,70.482
1.4721,69.945
1.4604,69.359
1.4467,69.066
1.433,69.505
1.4203,71.996
1.4076,78.199
1.3988,89.189
1.391,104.43
1.3822,120.89
1.3715,134.61
1.3587,143.06
1.3441,145.95
1.3275,144.92
1.3089,142.14
1.2884,138.86
1.2688,136.13
1.2502,134.17
1.2317,132.81
1.218,131.63
1.2072,129.93
1.1935,127.53
1.1789,124.36
1.1623,120.6
1.1457,116.44
1.129,112.1
1.1124,108.04
1.0958,104.18
1.0782,100.62
1.0567,97.2
1.0323,93.878
1.0039,90.655
0.98338,87.919
0.97165,85.721
0.97165,84.305
0.99902,83.67
1.0674,83.67
1.1848,84.061
1.35,84.598
1.5523,84.989
1.7752,85.184
1.999,85.135
2.2043,84.842
2.3763,84.598
2.4995,84.354
2.5826,84.256
2.6442,84.11
2.6833,83.914
2.7019,83.719
2.7038,83.377
2.6931,82.791
2.6716,82.156
2.6403,81.423
2.6002,80.69
2.5503,80.007
2.4936,79.225
2.436,78.688
2.3754,78.102
2.303,77.662
2.2229,77.174
2.1369,76.685
2.0479,76.197
1.9589,75.611
1.8719,74.976
1.7908,74.438
1.7185,73.852
1.6569,73.315
1.607,72.68
1.5679,72.094
1.5425,71.605
1.5249,71.166
1.5093,71.215
1.4956,72.778
1.4839,77.418
1.4721,86.698
1.4614,100.72
1.4497,117.32
1.437,132.37
1.4233,142.48
1.4076,146.87
1.39,146.83
1.3763,144.29
1.3636,140.92
1.347,137.89
1.3294,135.54
1.3118,134.13
1.2942,133.05
1.2757,131.73
1.2561,129.83
1.2366,127.04
1.218,123.62
1.2014,119.62
1.1867,115.42
1.173,111.22
1.1652,107.36
1.1584,103.7
1.1486,100.18
1.1349,96.76
1.1163,93.341
1.0958,90.215
1.0792,87.48
1.0762,85.379
1.0997,84.061
1.1632,83.621
1.2737,83.816
1.4321,84.305
1.5982,84.94
1.7722,85.379
1.9765,85.575
2.1828,85.428
2.3695,85.135
2.5249,84.696
2.6432,84.305
2.7263,84.012
2.7801,83.67
2.8104,83.475
2.8211,83.182
2.8182,82.791
2.8035,82.253
2.7801,81.472
2.7478,80.69
2.7058,79.811
2.654,78.981
2.5924,78.248
2.521,77.662
2.4428,77.174
2.3597,76.783
2.2717,76.441
2.1808,76.099
2.089,75.66
1.998,75.22
1.9218,74.731
1.8563,74.243
1.7918,73.755
1.7341,73.217
1.6872,72.778
1.6491,72.289
1.6188,71.752
1.5963,71.166
1.5787,70.922
1.564,71.605
1.5503,74.683
1.5376,81.814
1.5249,93.878
1.5161,109.75
1.5073,126.12
1.4946,139.11
1.479,146.63
1.4624,148.83
1.4448,147.51
1.4242,144.48
1.4037,141.26
1.3812,138.47
1.3578,136.47
1.3353,135.1
1.3128,133.74
1.2952,131.98
1.2805,129.53
1.2639,126.31
1.2473,122.5
1.2307,118.3
1.216,114.05
1.2033,110
1.1916,106.19
1.1799,102.57
1.1652,99.105
1.1466,95.734
1.1261,92.511
1.1075,89.629
1.1007,87.187
1.1105,85.575
1.1466,84.696
1.2229,84.5
1.347,84.745
1.5161,85.233
1.7195,85.673
1.9413,85.966
2.1623,85.966
2.3627,85.673
2.5318,85.184
2.6637,84.696
2.7498,84.256
2.8035,83.865
2.8416,83.572
2.8622,83.23
2.868,82.937
2.8602,82.498
2.8407,81.912
2.8104,81.228
2.7703,80.495
2.7204,79.665
2.6618,78.932
2.5943,78.297
2.5181,77.76
2.4438,77.32
2.3685,76.881
2.2825,76.441
2.1916,75.904
2.0997,75.415
2.0108,74.878
1.9286,74.292
1.8543,73.803
1.7898,73.364
1.7351,72.924
1.6901,72.485
1.654,71.996
1.6266,71.361
1.6061,70.873
1.5865,70.824
1.5689,72.24
1.5523,76.734
1.5386,85.868
1.5259,99.74
1.5132,116.05
1.4985,131.05
1.4839,141.5
1.4673,146.29
1.4497,146.73
1.4301,144.63
1.4145,141.6
1.3998,138.77
1.3832,136.57
1.3646,135.05
1.346,133.93
1.3275,132.61
1.3089,130.61
1.2884,127.87
1.2688,124.31
1.2512,120.25
1.2356,116
1.2209,111.76
1.2121,107.7
1.2053,103.84
1.1965,100.23
1.1838,96.76
1.1652,93.341
1.1447,90.215
1.1261,87.48
1.1183,85.428
1.1349,84.158
1.1896,83.621
1.2913,83.67
1.4418,84.11
1.6334,84.745
1.8201,85.282
2.002,85.673
2.2004,85.819
2.3891,85.624
2.5503,85.233
2.6764,84.793
2.7683,84.305
2.8289,83.816
2.8641,83.377
2.8798,82.84
2.8798,82.351
2.8671,81.667
2.869,80.984
2.8739,80.251
2.8504,79.421
2.8074,78.59
2.7498,77.858
2.6794,77.223
2.5992,76.783
2.5112,76.343
2.4174,76.05
2.3196,75.66
2.2209,75.22
2.1241,74.78
2.0332,74.341
1.958,73.803
1.8964,73.315
1.8368,72.729
1.7849,72.192
1.7429,71.654
1.7097,71.068
1.6852,70.482
1.6667,70.042
1.653,70.384
1.6422,72.533
1.6325,78.248
1.6217,88.701
1.6129,103.31
1.6041,119.42
1.5924,133.25
1.5767,142.04
1.5591,145.51
1.5396,144.92
1.5181,142.38
1.4946,139.16
1.4692,136.37
1.4448,134.22
1.4203,132.86
1.3969,131.68
1.3793,130.17
1.3646,128.12
1.347,125.19
1.3294,121.62
1.3128,117.62
1.2962,113.42
1.2815,109.26
1.2678,105.31
1.2542,101.5
1.2385,97.884
1.219,94.416
1.1965,91.045
1.174,87.968
1.1593,85.428
1.1593,83.621
1.1808,82.595
1.2395,82.302
1.3451,82.595
1.5024,83.182
1.7019,83.865
1.9286,84.354
2.1632,84.696
2.3851,84.745
2.5777,84.549
2.7331,84.305
2.8397,84.012
2.9071,83.621
2.956,83.23
2.9863,82.84
2.998,82.351
2.9951,81.814
2.9795,81.179
2.9531,80.446
2.915,79.665
2.8671,78.932
2.8094,78.248
2.7419,77.613
2.6667,77.027
2.5934,76.685
2.5171,76.343
2.4272,76.099
2.3294,75.855
2.2278,75.562
2.1271,75.073
2.0323,74.438
1.9453,73.803
1.869,73.071
1.8055,72.387
1.7546,71.752
1.7146,71.117
1.6862,70.629
1.6676,70.287
1.652,70.873
1.6373,73.413
1.6237,79.665
1.61,90.801
1.5973,106.04
1.5846,122.5
1.5699,136.13
1.5543,144.38
1.5367,146.97
1.5171,145.7
1.4956,142.23
1.477,138.38
1.4594,135.01
1.4379,132.61
1.4164,131.2
1.3959,130.12
1.3763,128.75
1.3578,126.7
1.3392,123.87
1.3216,120.35
1.305,116.44
1.2893,112.19
1.2737,108.04
1.262,104.18
1.2512,100.57
1.2356,97.2
1.217,93.976
1.1955,90.997
1.173,88.359
1.1574,86.259
1.1584,84.842
1.1906,84.256
1.2659,84.256
1.393,84.598
1.5699,85.184
1.7869,85.673
1.9941,85.868
2.1896,85.819
2.3969,85.575
2.5875,85.135
2.7458,84.745
2.8661,84.354
2.9492,84.061
3.001,83.67
3.0264,83.035
3.0332,82.351
3.0254,82.351
3.0049,83.475
2.9756,84.403
2.9384,83.426
2.8905,80.788
2.8338,78.59
2.7674,77.662
2.6921,77.174
2.609,76.49
2.5191,76.441
2.4242,77.223
2.3275,77.613
2.2307,76.539
2.1378,74.731
2.0528,73.315
1.9844,72.289
1.9296,70.922
1.8778,69.114
1.8338,67.503
1.7977,66.672
1.7683,66.428
1.7468,66.526
1.7302,67.405
1.7165,70.189
1.7048,76.49
1.694,87.626
1.6833,103.31
1.6735,120.74
1.6647,135.79
1.652,145.16
1.6373,148.19
1.6197,146.53
1.6012,142.62
1.5816,138.38
1.5611,135.05
1.5415,133.05
1.523,132.32
1.5044,132.07
1.4848,131.54
1.4643,130.22
1.4487,127.97
1.435,124.8
1.4184,120.94
1.4018,116.64
1.3861,112.19
1.3715,107.8
1.3568,103.74
1.3392,99.935
1.3177,96.223
1.2933,92.608
1.2678,89.287
1.2493,86.552
1.2444,84.549
1.261,83.475
1.3128,83.279
1.4125,83.865
1.567,84.94
1.7713,86.112
2.0108,87.04
2.2639,87.675
2.5093,87.919
2.7283,87.822
2.9101,87.382
3.0489,86.747
3.1466,86.161
3.2033,85.575
3.2307,84.989
3.2454,84.305
3.2454,83.475
3.2326,82.498
3.2072,81.423
3.1701,80.349
3.1232,79.323
3.0665,78.346
3,77.564
2.9257,76.978
2.8416,76.636
2.7595,76.441
2.6774,76.294
2.5826,76.197
2.4829,76.001
2.3812,75.757
2.2815,75.415
2.1877,74.976
2.1046,74.487
2.0323,73.852
1.9726,73.168
1.9247,72.436
1.8876,71.605
1.8583,70.726
1.8377,69.994
1.8221,69.945
1.8074,71.557
1.7937,76.539
1.7801,86.308
1.7664,100.91
1.7507,117.86
1.7331,133.2
1.7146,143.55
1.694,147.95
1.6706,147.61
1.6461,144.68
1.6246,140.82
1.6061,137.25
1.5836,134.76
1.5601,133.25
1.5367,132.32
1.5132,131.24
1.4907,129.53
1.4682,126.99
1.4477,123.62
1.4272,119.67
1.4066,115.47
1.3891,111.36
1.3734,107.51
1.3627,103.84
1.3529,100.47
1.3372,97.2
1.3177,93.976
1.2952,90.997
1.2737,88.261
1.2278,86.161
1.1877,84.842
1.2131,84.305
1.3011,84.403
1.4457,84.94
1.6373,85.624
1.827,86.259
2.0127,86.601
2.217,86.698
2.4125,86.503
2.5797,86.063
2.7116,85.477
2.8084,84.989
2.8739,84.5
2.914,84.11
2.9326,83.621
2.9365,83.133
2.9277,82.498
2.9071,81.716
2.8778,80.886
2.8397,80.007
2.7928,79.127
2.737,78.297
2.6716,77.564
2.5953,76.929
2.5103,76.294
2.4184,75.757
2.3206,75.22
2.2209,74.731
2.1212,74.243
2.0264,73.657
1.9472,73.168
1.8807,72.729
1.8172,72.289
1.7615,71.947
1.7165,71.508
1.6813,70.97
1.654,70.384
1.6315,69.798
1.6139,69.798
1.5973,71.166
1.5806,75.611
1.564,84.549
1.5503,98.128
1.5376,114.2
1.521,129.09
1.5024,139.6
1.4809,144.43
1.4575,144.43
1.4311,141.6
1.4037,137.79
1.3744,134.17
1.3451,131.63
1.3167,130.12
1.2903,129.44
1.2649,128.7
1.2454,127.43
1.2287,125.38
1.2111,122.5
1.1935,118.98
1.1769,114.98
1.1623,110.92
1.1486,106.87
1.1369,103.06
1.1241,99.349
1.1105,95.783
1.0948,92.364
1.0772,89.092
1.0655,86.308
1.0645,84.158
1.0792,82.937
1.1232,82.547
1.2082,82.742
1.3402,83.279
1.5171,83.914
1.7263,84.403
1.9501,84.696
2.1691,84.598
2.3656,84.354
2.5279,83.914
2.65,83.475
2.7263,82.986
2.7693,82.547
2.7967,82.107
2.8065,81.618
2.8025,81.13
2.7869,80.495
2.7634,79.86
2.7322,79.127
2.6921,78.346
2.6442,77.613
2.5894,76.881
2.5259,76.197
2.4624,75.66
2.3969,75.22
2.3196,74.927
2.2346,74.634
2.1447,74.341
2.0528,73.999
1.9629,73.608
1.8778,73.12
1.7996,72.631
1.7302,72.192
1.6706,71.654
1.6207,71.166
1.5787,70.726
1.5474,70.433
1.5239,70.433
1.5015,71.752
1.48,75.66
1.4585,84.012
1.437,97.102
1.4145,113.37
1.392,128.95
1.3695,140.13
1.348,145.36
1.3265,145.51
1.305,142.38
1.2884,137.98
1.2747,133.78
1.2571,130.66
1.2385,128.85
1.2199,127.97
1.2023,127.29
1.1867,126.16
1.172,124.26
1.1593,121.38
1.1466,117.81
1.132,113.76
1.1173,109.51
1.1036,105.5
1.0948,101.69
1.087,98.225
1.0733,95.002
1.0538,91.925
1.0313,89.092
1.0098,86.747
0.99707,84.989
1.0049,84.012
1.0479,83.816
1.1359,84.158
1.2747,84.793
1.4604,85.477
1.6471,85.917
1.8338,86.063
2.045,85.917
2.2502,85.624
2.4291,85.233
2.5718,84.745
2.6764,84.305
2.7478,83.865
2.7908,83.475
2.8123,82.986
2.8162,82.449
2.8065,81.814
2.7849,80.984
2.7556,80.251
2.7195,79.469
2.6735,78.737
2.6188,78.102
2.5552,77.613
2.4829,77.125
2.4008,76.685
2.3118,76.197
2.218,75.757
2.1212,75.171
2.0254,74.683
1.9326,74.097
1.8563,73.559
1.7918,72.973
1.7302,72.387
1.6764,71.801
1.6315,71.166
1.5953,70.482
1.5679,69.798
1.5474,69.505
1.5318,70.238
1.5181,73.608
1.5064,81.374
1.4946,94.367
1.4819,110.97
1.4721,127.43
1.4633,139.74
1.4506,145.8
1.437,146.24
1.4213,143.11
1.4047,138.62
1.3871,134.32
1.3685,131.2
1.349,129.49
1.3284,128.85
1.3089,128.61
1.2893,127.92
1.2737,126.36
1.261,123.72
1.2454,120.25
1.2287,116.3
1.2131,112.24
1.1984,108.29
1.1818,104.72
1.1652,101.35
1.1476,98.177
1.1261,95.099
1.1026,92.071
1.0802,89.287
1.0684,86.991
1.0733,85.428
1.1046,84.696
1.1769,84.598
1.2991,84.989
1.4712,85.477
1.6843,85.917
1.9198,86.063
2.1584,85.917
2.3803,85.575
2.5699,85.038
2.7204,84.5
2.8309,84.012
2.8983,83.572
2.9345,83.133
2.956,82.693
2.9629,82.253
2.956,81.667
2.9384,80.984
2.911,80.153
2.8739,79.372
2.828,78.492
2.7722,77.76
2.7077,77.027
2.6334,76.441
2.5601,76.001
2.4829,75.611
2.3939,75.22
2.2972,74.927
2.1975,74.536
2.0997,74.194
2.0059,73.803
1.9208,73.413
1.8465,73.071
1.783,72.68
1.7292,72.192
1.6862,71.654
1.651,71.117
1.6256,70.629
1.6061,70.433
1.5875,71.508
1.5699,75.073
1.5533,82.84
1.5367,95.637
1.5191,111.66
1.5005,127.63
1.4809,139.45
1.4585,145.41
1.434,146.14
1.4076,143.5
1.3861,139.45
1.3715,135.49
1.3568,132.56
1.3372,130.85
1.3157,130.12
1.2942,129.63
1.2727,128.7
1.2522,126.85
1.2336,124.11
1.216,120.5
1.1994,116.49
1.1857,112.29
1.173,108.24
1.1652,104.43
1.1593,100.86
1.1486,97.444
1.1339,94.22
1.1153,91.192
1.0958,88.506
1.0841,86.356
1.0899,84.989
1.1281,84.305
1.2102,84.256
1.3431,84.549
1.523,85.135
1.7048,85.575
1.8905,85.868
2.1036,85.868
2.3138,85.575
2.5015,85.038
2.6549,84.403
2.7713,83.816
2.8534,83.182
2.9052,82.547
2.9326,82.009
2.9423,81.423
2.9374,80.788
2.9198,80.104
2.8925,79.372
2.8563,78.59
2.8104,77.858
2.7546,77.174
2.6891,76.539
2.6139,76.001
2.5308,75.562
2.4399,75.122
2.3421,74.683
2.2414,74.243
2.1408,73.803
2.043,73.217
1.9599,72.68
1.8886,72.094
1.8182,71.605
1.7556,71.117
1.7038,70.677
1.6618,70.091
1.6276,69.603
1.6002,69.066
1.5777,68.87
1.5582,69.554
1.5386,72.631
1.52,79.567
1.5024,91.387
1.4878,106.92
1.4731,123.04
1.4545,135.79
1.434,142.82
1.4115,144.24
1.3881,141.94
1.3636,137.89
1.3392,133.69
1.3148,130.41
1.2913,128.41
1.2688,127.53
1.2463,126.99
1.2297,126.26
1.2151,124.7
1.1975,122.26
1.1799,118.94
1.1642,115.08
1.1486,110.92
1.1329,106.87
1.1183,103.06
1.1026,99.447
1.085,95.979
1.0635,92.755
1.0401,89.678
1.0156,86.845
1,84.598
1,83.133
1.0235,82.449
1.0841,82.351
1.1926,82.791
1.3519,83.377
1.5533,83.914
1.781,84.305
2.0156,84.5
2.2356,84.354
2.4272,84.061
2.5806,83.67
2.6852,83.23
2.7527,82.84
2.8016,82.449
2.8319,82.009
2.8456,81.423
2.8456,80.788
2.8328,80.055
2.8084,79.225
2.7732,78.346
2.7283,77.467
2.6745,76.734
2.6119,76.05
2.5396,75.562
2.4682,75.122
2.3939,74.878
2.3069,74.634
2.2121,74.341
2.1134,73.901
2.0156,73.413
1.9198,72.778
1.8309,72.094
1.7517,71.508
1.6843,70.922
1.6285,70.384
1.5836,69.945
1.5523,69.505
1.5298,69.359
1.5103,70.189
1.4936,73.071
1.479,79.811
1.4653,91.485
1.4526,107.07
1.4389,123.38
1.4242,136.47
1.4076,143.8
1.3881,145.41
1.3675,143.06
1.3451,138.81
1.3255,134.37
1.3069,130.8
1.2854,128.61
1.263,127.53
1.2414,126.99
1.2199,126.16
1.1994,124.7
1.1799,122.31
1.1613,118.98
1.1427,115.13
1.1261,110.97
1.1105,106.87
1.1007,102.91
1.0938,99.349
1.0821,95.979
1.0665,92.804
1.0469,89.922
1.0244,87.382
1.0068,85.379
1.0049,84.11
1.0323,83.67
1.1026,83.865
1.2219,84.354
1.392,84.94
1.6031,85.282
1.8055,85.428
1.999,85.282
2.2082,84.94
2.4027,84.403
2.565,83.914
2.6882,83.475
2.7752,83.035
2.8299,82.742
2.8612,82.302
2.8729,81.814
2.871,81.228
2.8563,80.544
2.8319,79.811
2.7996,79.03
2.7576,78.297
2.7067,77.613
2.6461,76.978
2.5767,76.441
2.4985,75.855
2.4115,75.366
2.3177,74.878
2.2199,74.438
2.1212,73.901
2.0254,73.413
1.9355,72.924
1.8622,72.485
1.8016,71.996
1.7449,71.557
1.697,71.117
1.6579,70.531
1.6266,69.994
1.6012,69.554
1.5816,69.603
1.565,71.361
1.5494,76.343
1.5337,86.112
1.5191,100.62
1.5073,117.47
1.4956,132.56
1.479,142.48
1.4604,146.19
1.4418,145.02
1.4233,141.16
1.4037,136.57
1.3842,132.51
1.3636,129.83
1.3431,128.56
1.3226,128.17
1.303,127.87
1.2874,126.99
1.2757,125.14
1.262,122.26
1.2483,118.59
1.2346,114.44
1.2219,110.19
1.2092,106.14
1.1955,102.38
1.1818,98.909
1.1652,95.734
1.1466,92.608
1.1261,89.678
1.1085,87.187
1.1026,85.233
1.1173,84.158
1.1613,83.865
1.2483,84.11
1.3861,84.696
1.5709,85.233
1.7928,85.673
2.0313,85.819
2.2649,85.673
2.4761,85.282
2.652,84.842
2.7879,84.354
2.8749,83.865
2.9277,83.426
2.9638,82.986
2.9844,82.547
2.9902,82.009
2.9844,81.374
2.9668,80.544
2.9394,79.665
2.9013,78.737
2.8534,77.809
2.7947,76.929
2.7263,76.099
2.6491,75.415
2.5718,74.878
2.4917,74.292
2.3998,73.803
2.3001,73.413
2.1994,72.973
2.1007,72.631
2.0078,72.094
1.9257,71.654
1.8563,71.215
1.7957,70.824
1.7468,70.287
1.7077,69.798
1.6794,69.261
1.6588,68.724
1.6403,68.479
1.6237,69.505
1.608,73.168
1.5924,81.032
1.5767,93.927
1.5591,110.19
1.5396,126.31
1.5191,138.47
1.4966,144.68
1.4731,145.56
1.4487,143.02
1.4272,139.06
1.4086,135.2
1.3871,132.42
1.3627,130.95
1.3372,130.41
1.3109,130.12
1.2854,129.29
1.261,127.53
1.2356,124.8
1.2121,121.13
1.1906,116.98
1.1711,112.68
1.1564,108.43
1.1447,104.43
1.13,100.72
1.1134,97.2
1.0938,93.781
1.0714,90.606
1.0489,87.724
1.0332,85.477
1.0342,83.914
1.0665,83.133
1.1417,82.986
1.2698,83.23
1.4477,83.621
1.6315,84.012
1.8211,84.256
2.043,84.305
2.2649,84.061
2.4653,83.67
2.6325,83.133
2.7615,82.498
2.8543,81.814
2.9179,81.13
2.957,80.349
2.9756,79.616
2.9775,78.932
2.9648,78.248
2.9404,77.613
2.9052,77.125
2.8592,76.734
2.8025,76.343
2.7361,76.099
2.6588,75.904
2.5728,75.855
2.478,75.855
2.3783,75.855
2.2747,75.806
2.1701,75.562
2.0684,75.122
1.9824,74.487
1.9091,73.803
1.8368,73.071
1.7713,72.436
1.7155,71.801
1.6706,71.117
1.6344,70.384
1.6061,69.603
1.5846,68.968
1.567,69.163
1.5503,71.557
1.5327,77.858
1.5191,89.238
1.5054,104.72
1.4868,121.28
1.4653,134.76
1.4428,142.58
1.4203,144.48
1.3988,142.28
1.3773,138.13
1.3558,133.69
1.3343,130.17
1.3138,127.97
1.2952,127.04
1.2786,126.7
1.2678,126.12
1.259,124.75
1.2483,122.35
1.2366,119.18
1.2229,115.32
1.2092,111.22
1.1965,107.16
1.1828,103.35
1.1691,99.935
1.1535,96.76
1.1329,93.634
1.1085,90.655
1.087,87.968
1.0704,85.819
1.0596,84.158
1.0704,83.279
1.1163,83.035
1.2092,83.279
1.3539,83.67
1.5464,84.11
1.7703,84.403
2.0059,84.5
2.2336,84.403
2.436,84.11
2.6022,83.816
2.7165,83.377
2.7908,82.937
2.8465,82.498
2.8817,81.912
2.8993,81.277
2.9032,80.544
2.8954,79.811
2.8778,78.981
2.8495,78.248
2.8123,77.467
2.7644,76.881
2.7077,76.343
2.6481,75.904
2.5846,75.611
2.5073,75.366
2.4203,75.073
2.3275,74.683
2.2297,74.194
2.13,73.559
2.0332,72.875
1.9423,72.094
1.8592,71.361
1.7859,70.677
1.7243,69.994
1.6735,69.505
1.6354,69.066
1.6061,68.968
1.5797,69.847
1.5552,72.973
1.5327,80.055
1.5112,91.973
1.4897,107.75
1.4682,124.02
1.4477,136.81
1.4252,143.8
1.4037,145.12
1.3812,142.43
1.3627,137.94
1.346,133.25
1.3265,129.63
1.306,127.43
1.2845,126.51
1.2639,126.07
1.2454,125.43
1.2278,124.02
1.2111,121.62
1.1955,118.3
1.1799,114.3
1.1652,110.09
1.1544,105.94
1.1447,101.99
1.131,98.421
1.1153,95.197
1.0958,92.12
1.0723,89.434
1.0479,87.04
1.0274,85.282
1.0215,84.256
1.045,83.865
1.1105,84.061
1.2248,84.549
1.39,85.038
1.564,85.379
1.7478,85.477
1.9648,85.282
2.1828,84.94
2.3803,84.5
2.5435,84.061
2.6676,83.572
2.7546,83.133
2.8084,82.595
2.8377,82.107
2.8475,81.423
2.8416,80.739
2.824,79.909
2.7977,79.127
2.7625,78.297
2.7185,77.564
2.6647,76.881
2.6012,76.294
2.5288,75.904
2.4467,75.562
2.3578,75.171
2.2639,74.78
2.1652,74.292
2.0665,73.803
1.9726,73.315
1.8944,72.729
1.8299,72.192
1.7683,71.605
1.7146,70.97
1.6706,70.384
1.6354,69.749
1.608,69.163
1.5875,68.626
1.5709,68.479
1.5562,69.749
1.5415,73.901
1.5269,82.693
1.5152,96.369
1.5034,112.93
1.4878,128.51
1.4692,139.45
1.4477,144.38
1.4252,144.04
1.4018,140.67
1.3773,136.13
1.3548,131.98
1.3343,129.09
1.3138,127.63
1.2942,127.14
1.2757,126.85
1.262,126.07
1.2512,124.36
1.2395,121.62
1.2268,118.06
1.2141,114
1.2033,109.8
1.1935,105.8
1.1838,102.13
1.175,98.763
1.1672,95.539
1.1554,92.56
1.1388,89.678
1.1261,87.236
1.1193,85.428
1.1232,84.354
1.1525,84.061
1.2229,84.305
1.3412,84.94
1.5073,85.624
1.7126,86.063
1.9404,86.161
2.1691,85.917
2.3803,85.428
2.5591,84.745
2.6999,84.061
2.7928,83.426
2.8495,82.84
2.8895,82.449
2.912,82.058
2.9198,81.667
2.9159,81.179
2.9003,80.544
2.8759,79.86
2.8416,79.176
2.7977,78.492
2.7429,77.809
2.6774,77.223
2.61,76.734
2.5376,76.294
2.4526,75.855
2.3587,75.415
2.2581,74.878
2.1554,74.292
2.0538,73.755
1.9589,73.217
1.8719,72.729
1.7947,72.289
1.7302,71.801
1.6764,71.312
1.6325,70.726
1.6002,70.091
1.5767,69.359
1.5552,68.87
1.5357,69.261
1.5171,71.801
1.4995,78.248
1.4809,89.629
1.4624,104.92
1.4428,121.13
1.4233,134.42
1.4027,142.19
1.3822,144.24
1.3656,142.23
1.3509,138.18
1.3333,133.88
1.3157,130.41
1.2972,128.31
1.2805,127.43
1.2649,127.19
1.2502,126.75
1.2366,125.68
1.2239,123.67
1.2121,120.69
1.2033,116.98
1.1955,112.98
1.1926,108.92
1.1926,105.01
1.1896,101.45
1.1838,98.03
1.173,94.855
1.1564,91.925
1.1349,89.238
1.1144,86.991
1.1046,85.428
1.1202,84.5
1.174,84.158
1.2757,84.305
1.3998,84.696
1.5494,85.038
1.7468,85.282
1.9668,85.282
2.1857,84.989
2.3842,84.5
2.5494,83.865
2.6764,83.182
2.7664,82.449
2.824,81.814
2.8573,81.13
2.871,80.495
2.8719,79.811
2.8602,79.127
2.8387,78.346
2.8104,77.613
2.7742,76.881
2.7292,76.197
2.6755,75.611
2.6119,75.122
2.5396,74.731
2.4585,74.438
2.3705,74.097
2.2776,73.803
2.1828,73.413
2.0978,73.071
2.0196,72.68
1.9384,72.24
1.8602,71.801
1.7898,71.41
1.7302,70.97
1.6804,70.531
1.6403,69.994
1.608,69.505
1.5816,68.968
1.5591,69.163
1.5386,71.166
1.5191,76.539
1.5034,86.601
1.4888,100.86
1.4702,116.79
1.4497,130.56
1.4272,139.25
1.4027,142.28
1.3783,141.06
1.3539,137.5
1.3294,133.3
1.306,129.83
1.2776,127.48
1.2532,126.36
1.2405,125.92
1.2287,125.43
1.2121,124.36
1.1945,122.31
1.176,119.37
1.1584,115.76
1.1427,111.76
1.129,107.6
1.1153,103.7
1.1026,100.03
1.088,96.662
1.0694,93.439
1.0469,90.313
1.0274,87.48
1.0108,85.233
0.99707,83.572
1,82.693
1.0352,82.449
1.1144,82.547
1.2444,82.986
1.4223,83.426
1.6364,83.816
1.868,84.012
2.0968,83.865
2.305,83.572
2.4633,83.133
2.5797,82.595
2.6764,82.156
2.7478,81.667
2.7947,81.179
2.8221,80.593
2.8319,80.007
2.828,79.323
2.8133,78.541
2.7869,77.858
2.7507,77.125
2.7048,76.49
2.6549,75.904
2.5982,75.415
2.5298,74.976
2.4516,74.536
2.3646,74.097
2.2708,73.657
2.172,73.217
2.0714,72.729
1.9726,72.192
1.8798,71.557
1.7957,70.922
1.7243,70.287
1.6647,69.749
1.6207,69.261
1.5875,68.821
1.5591,68.479
1.5357,68.675
1.5152,70.189
1.4976,74.536
1.48,83.377
1.4633,96.809
1.4467,112.98
1.4282,128.17
1.4086,138.86
1.3871,143.5
1.3685,143.11
1.3519,139.74
1.3314,135.3
1.3079,131.24
1.2845,128.31
1.261,126.7
1.2385,125.97
1.216,125.43
1.1955,124.36
1.176,122.45
1.1564,119.42
1.1378,115.76
1.1212,111.56
1.1105,107.26
1.1026,103.16
1.0909,99.447
1.0772,95.979
1.0616,92.804
1.042,89.873
1.0196,87.236
0.99707,84.989
0.98143,83.475
0.98436,82.742
1.0196,82.693
1.0997,83.133
1.2053,83.719
1.3421,84.305
1.5318,84.549
1.7546,84.549
1.9883,84.256
2.2111,83.719
2.4066,83.23
2.565,82.742
2.6823,82.302
2.7625,81.912
2.8123,81.472
2.8397,81.032
2.8475,80.544
2.8407,80.055
2.8221,79.469
2.7947,78.932
2.7586,78.346
2.7126,77.858
2.6559,77.369
2.5904,76.881
2.5142,76.343
2.4291,75.806
2.3372,75.318
2.2385,74.731
2.1369,74.194
2.0459,73.608
1.9638,72.973
1.8807,72.24
1.8025,71.557
1.7341,70.873
1.6764,70.189
1.6295,69.554
1.5934,68.919
1.565,68.479
1.5435,68.431
1.5259,69.554
1.5112,73.413
1.4976,81.618
1.4868,94.758
1.4731,110.92
1.4585,126.56
1.4477,137.89
1.434,143.16
1.4184,143.36
1.4018,140.38
1.3851,136.18
1.3675,132.32
1.348,129.49
1.3304,128.07
1.3128,127.48
1.2991,127.04
1.2864,126.16
1.2708,124.36
1.2551,121.62
1.2385,118.11
1.2219,114.1
1.2053,110.05
1.1896,106.19
1.1848,102.57
1.1838,99.251
1.174,96.125
1.1564,93.097
1.1349,90.313
1.1183,87.724
1.1075,85.819
1.1056,84.549
1.1281,84.061
1.1887,84.061
1.2981,84.5
1.4594,84.94
1.6657,85.233
1.8993,85.282
2.1408,84.989
2.3675,84.5
2.565,83.816
2.7087,83.182
2.8094,82.547
2.8895,82.107
2.9443,81.667
2.9765,81.277
2.9892,80.935
2.9873,80.446
2.9717,79.811
2.9443,79.127
2.9071,78.346
2.8592,77.564
2.8025,76.881
2.7361,76.197
2.6686,75.66
2.5973,75.171
2.5142,74.78
2.4223,74.341
2.3255,73.999
2.2258,73.608
2.1281,73.217
2.0352,72.875
1.9492,72.485
1.8729,72.094
1.8094,71.801
1.7566,71.41
1.7185,70.97
1.6891,70.482
1.6618,69.847
1.6383,69.505
1.6168,70.042
1.5963,72.778
1.5767,79.421
1.5582,90.85
1.5396,106.19
1.52,122.11
1.5005,134.86
1.4809,142.14
1.4604,143.99
1.4428,142.14
1.4262,138.57
1.4037,134.81
1.3783,131.88
1.3519,130.17
1.3255,129.44
1.3001,129
1.2766,128.12
1.2532,126.51
1.2317,123.82
1.2111,120.35
1.1916,116.3
1.1779,112.05
1.1672,107.95
1.1554,104.04
1.1427,100.42
1.13,97.053
1.1163,93.878
1.0997,90.801
1.0792,88.115
1.0606,85.868
1.0538,84.256
1.0714,83.377
1.1281,83.182
1.2326,83.426
1.3597,83.914
1.5142,84.403
1.7185,84.745
1.9472,84.793
2.1769,84.598
2.3871,84.11
2.564,83.572
2.7028,82.937
2.8045,82.302
2.8739,81.667
2.915,81.179
2.9355,80.593
2.9365,80.104
2.9238,79.469
2.9022,78.883
2.871,78.199
2.8289,77.467
2.7771,76.734
2.7146,76.099
2.6422,75.562
2.5611,75.073
2.4721,74.634
2.3763,74.292
2.2757,73.999
2.174,73.608
2.0841,73.217
2.0029,72.778
1.9189,72.289
1.8397,71.85
1.7595,71.361
1.696,70.922
1.6559,70.433
1.6217,69.945
1.5943,69.359
1.5718,68.919
1.5523,69.114
1.5337,70.873
1.5181,75.855
1.5044,85.477
1.4868,99.544
1.4673,115.66
1.4457,129.97
1.4233,139.45
1.3998,143.11
1.3754,142.38
1.3509,139.11
1.3275,135.3
1.305,131.98
1.2815,129.83
1.2639,128.61
1.2483,127.92
1.2297,127.04
1.2092,125.48
1.1896,122.99
1.1711,119.62
1.1535,115.61
1.1359,111.36
1.1193,107.16
1.1046,103.16
1.0919,99.447
1.0792,95.979
1.0635,92.657
1.0518,89.531
1.0391,86.747
1.0215,84.403
1.0068,82.742
1.0068,81.716
1.0362,81.374
1.1075,81.423
1.2278,81.716
1.3988,82.107
1.609,82.351
1.8407,82.449
2.0938,82.351
2.2952,82.156
2.433,81.912
2.565,81.618
2.6725,81.228
2.7498,80.886
2.7986,80.446
2.825,80.007
2.8319,79.469
2.824,78.932
2.8035,78.346
2.7713,77.76
2.7283,77.125
2.6764,76.539
2.6217,75.904
2.5621,75.366
2.4653,74.927
2.3705,74.487
2.2972,74.048
2.2082,73.755
2.1114,73.315
2.0117,72.875
1.914,72.387
1.8231,71.801
1.7419,71.215
1.6716,70.629
1.6178,70.042
1.5758,69.554
1.5376,69.066
1.5064,68.528
1.4809,68.382
1.4594,68.919
1.4418,71.557
1.4272,77.858
1.4135,88.994
1.3988,104.04
1.3842,120.25
1.3695,133.49
1.3539,141.31
1.3421,143.5
1.3304,141.75
1.3148,138.13
1.2962,134.13
1.2757,130.85
1.2542,128.7
1.2326,127.48
1.2111,126.7
1.1896,125.68
1.1691,123.92
1.1496,121.28
1.13,117.86
1.1144,113.86
1.1026,109.61
1.088,105.5
1.0723,101.55
1.0567,97.932
1.0391,94.562
1.0196,91.485
0.99609,88.603
0.97067,86.161
0.94721,84.305
0.93548,83.182
0.94819,82.791
0.99804,82.986
1.0762,83.475
1.1896,84.11
1.3597,84.5
1.5709,84.696
1.8045,84.598
2.0391,84.305
2.2542,83.914
2.436,83.475
2.5767,83.133
2.6774,82.791
2.7439,82.547
2.782,82.253
2.7957,81.863
2.7928,81.374
2.7801,80.788
2.7576,80.055
2.7116,79.372
2.6637,78.688
2.6237,78.053
2.5689,77.467
2.478,76.929
2.3881,76.441
2.3187,75.904
2.2336,75.415
2.1398,74.927
2.0547,74.438
1.9765,73.852
1.8925,73.217
1.8113,72.68
1.738,72.045
1.6745,71.41
1.6227,70.726
1.5826,70.042
1.5513,69.359
1.5279,68.87
1.5103,69.114
1.4966,71.508
1.4878,77.564
1.48,88.75
1.4858,104.18
1.4985,120.79
1.4985,134.57
1.4927,142.67
1.4829,145.07
1.4702,143.36
1.4545,139.69
1.437,135.69
1.4194,132.42
1.4008,130.36
1.3832,129.39
1.3705,128.8
1.3587,127.97
1.3441,126.41
1.3284,124.02
1.3138,120.74
1.2991,116.88
1.2845,112.78
1.2698,108.82
1.2561,105.01
1.2434,101.5
1.2287,98.177
1.2111,95.002
1.1955,91.778
1.1799,88.75
1.1603,86.112
1.1447,84.158
1.1466,83.133
1.1799,82.937
1.2551,83.377
1.3822,84.11
1.5572,84.842
1.7683,85.233
1.9961,85.282
2.2199,84.989
2.4223,84.403
2.5748,83.816
2.6852,83.23
2.7761,82.742
2.8407,82.302
2.8817,81.863
2.9022,81.423
2.9062,80.886
2.8983,80.251
2.8807,79.567
2.8524,78.737
2.8162,78.004
2.7713,77.223
2.7224,76.636
2.6686,76.099
2.6031,75.66
2.5288,75.366
2.4467,75.122
2.3578,74.78
2.2659,74.487
2.172,74.194
2.0792,73.803
1.9922,73.51
1.914,73.12
1.8465,72.778
1.7898,72.387
1.7478,71.947
1.7175,71.41
1.6921,70.873
1.6716,70.482
1.654,70.97
1.6383,73.755
1.6246,80.349
1.6119,91.876
1.5992,107.26
1.5836,123.38
1.566,136.37
1.5455,143.8
1.521,145.85
1.5005,144.19
1.4839,140.87
1.4633,137.3
1.4409,134.52
1.4184,132.76
1.3959,131.73
1.3754,131
1.3568,129.88
1.3392,127.97
1.3226,125.19
1.3069,121.67
1.2962,117.67
1.2884,113.51
1.2786,109.41
1.2698,105.6
1.259,101.99
1.2493,98.616
1.2414,95.295
1.2287,92.12
1.2111,89.092
1.1935,86.601
1.1838,84.745
1.1955,83.67
1.2414,83.377
1.3118,83.621
1.4145,84.11
1.5718,84.696
1.7703,85.038
1.9912,85.184
2.2151,84.989
2.4213,84.598
2.6139,84.11
2.7586,83.572
2.8416,82.986
2.8993,82.498
2.9277,82.058
2.9374,81.57
2.9384,80.984
2.9286,80.446
2.8983,79.762
2.8641,79.03
2.8348,78.297
2.7918,77.613
2.7185,76.978
2.6442,76.49
2.5855,76.05
2.5112,75.66
2.4262,75.318
2.3343,74.878
2.2493,74.438
2.1691,73.999
2.0821,73.51
1.9961,73.071
1.9169,72.533
1.8475,72.094
1.7889,71.605
1.741,71.117
1.7028,70.482
1.6725,69.847
1.6491,69.505
1.6315,70.189
1.6188,73.12
1.609,79.909
1.5982,91.485
1.5855,106.87
1.5709,122.75
1.5562,135.35
1.5396,142.58
1.522,144.43
1.5034,142.82
1.4839,139.55
1.4633,136.13
1.4409,133.44
1.4184,131.73
1.4008,130.8
1.3812,130.12
1.3607,129
1.3451,126.99
1.3275,124.11
1.3069,120.45
1.2893,116.35
1.2766,112.05
1.263,107.95
1.2502,104.04
1.2375,100.42
1.2248,97.053
1.216,93.781
1.2004,90.655
1.1818,87.822
1.1672,85.477
1.1564,83.719
1.1848,82.791
1.2326,82.351
1.2933,82.449
1.4115,82.742
1.6413,83.035
1.9345,83.279
2.1398,83.279
2.2923,83.182
2.436,82.791
2.5601,82.351
2.6784,81.912
2.7732,81.472
2.8416,81.13
2.8856,80.69
2.9091,80.153
2.9159,79.665
2.8993,79.03
2.8749,78.346
2.8514,77.662
2.8143,76.978
2.7527,76.294
2.6921,75.757
2.6422,75.318
2.5748,74.927
2.4956,74.536
2.4076,74.243
2.3128,73.852
2.2141,73.51
2.1144,72.973
2.0186,72.436
1.9286,71.85
1.8485,71.312
1.7732,70.824
1.7165,70.287
1.6794,69.798
1.6442,69.261
1.609,68.821
1.5816,68.821
1.564,70.189
1.5484,74.438
1.5327,83.133
1.5171,96.565
1.5015,112.73
1.4858,127.97
1.4692,138.77
1.4565,143.7
1.4457,143.7
1.4311,140.87
1.4106,137.06
1.391,133.64
1.3773,131.1
1.3578,129.73
1.3333,128.95
1.3167,128.12
1.303,126.7
1.2825,124.41
1.2639,121.23
1.2502,117.47
1.2395,113.37
1.2268,109.26
1.2102,105.26
1.1945,101.6
1.1789,98.177
1.1603,94.904
1.1398,91.778
1.1232,88.945
1.1075,86.503
1.0987,84.696
1.1193,83.67
1.1652,83.377
1.2053,83.621
1.3177,84.061
1.5279,84.549
1.7566,84.793
1.9335,84.793
2.13,84.598
2.3734,84.256
2.5327,83.914
2.654,83.621
2.7644,83.279
2.8309,83.035
2.8671,82.791
2.8788,82.449
2.8749,82.009
2.8602,81.374
2.8358,80.739
2.8025,80.007
2.7605,79.323
2.7087,78.59
2.6471,77.906
2.5777,77.32
2.4995,76.783
2.4125,76.294
2.3187,75.904
2.2317,75.562
2.1476,75.122
2.0567,74.634
1.9668,74.097
1.8827,73.559
1.8084,73.071
1.7458,72.485
1.694,71.947
1.653,71.361
1.6217,70.824
1.5982,70.482
1.5806,70.922
1.567,73.413
1.5582,79.86
1.5513,91.241
1.5415,106.82
1.5298,123.23
1.5181,136.42
1.5064,143.94
1.4936,145.7
1.479,143.55
1.4614,139.55
1.4428,135.35
1.4223,132.07
1.4018,129.93
1.3861,128.95
1.3734,128.31
1.3578,127.43
1.3412,125.82
1.3245,123.23
1.3099,119.86
1.2962,115.91
1.2825,111.76
1.2698,107.7
1.2561,103.84
1.2405,100.33
1.2209,97.053
1.1984,93.927
1.1789,90.85
1.1623,88.115
1.1476,85.819
1.1486,84.256
1.1828,83.426
1.262,83.377
1.3949,83.719
1.5787,84.305
1.8016,84.793
2.045,85.038
2.2854,85.038
2.5024,84.745
2.6647,84.305
2.782,83.719
2.8768,83.23
2.9443,82.791
2.9873,82.449
3.0088,82.156
3.0137,81.814
3.0039,81.277
2.9844,80.69
2.9541,79.909
2.914,79.176
2.8641,78.346
2.8104,77.662
2.7507,76.978
2.6804,76.49
2.6012,76.099
2.5132,75.757
2.4194,75.366
2.3206,74.976
2.2199,74.536
2.1212,74.097
2.0283,73.657
1.9433,73.217
1.87,72.729
1.8104,72.387
1.7664,71.85
1.7341,71.361
1.7067,70.873
1.6833,70.433
1.6647,70.482
1.6491,71.996
1.6344,76.49
1.6197,85.624
1.6051,99.447
1.5894,115.76
1.5738,130.76
1.5562,141.01
1.5406,145.31
1.5249,145.02
1.5054,141.94
1.4819,138.13
1.4575,134.61
1.4321,132.32
1.4086,131.1
1.3861,130.56
1.3656,129.97
1.3451,128.8
1.3255,126.7
1.3069,123.62
1.2903,119.81
1.2786,115.66
1.2698,111.41
1.259,107.36
1.2473,103.6
1.2356,100.18
1.2199,96.907
1.2004,93.878
1.1789,91.045
1.1603,88.506
1.1574,86.552
1.1838,85.282
1.2522,84.696
1.347,84.696
1.4761,84.94
1.6618,85.233
1.8856,85.477
2.1261,85.575
2.3597,85.379
2.5689,85.038
2.741,84.549
2.8719,84.061
2.9648,83.572
3.0254,83.133
3.0596,82.595
3.0733,82.107
3.0684,81.57
3.0508,80.935
3.0254,80.153
2.9892,79.421
2.9433,78.688
2.8876,77.906
2.8211,77.174
2.7458,76.539
2.6618,76.001
2.5718,75.562
2.4751,75.171
2.3754,74.731
2.2854,74.341
2.2014,73.999
2.1114,73.51
2.0244,73.071
1.9443,72.631
1.8729,72.192
1.8133,71.752
1.7644,71.312
1.7253,70.824
1.694,70.189
1.6686,69.603
1.6481,69.505
1.6295,70.726
1.6139,74.878
1.5992,83.426
1.5826,96.76
1.564,112.88
1.5435,128.17
1.522,138.91
1.4995,143.94
1.4761,144.14
1.4506,141.45
1.4252,137.74
1.3998,134.22
1.3754,131.73
1.3558,130.36
1.3392,129.73
1.3187,129.09
1.2972,127.97
1.2757,125.97
1.2551,123.04
1.2356,119.37
1.217,115.32
1.2004,111.17
1.1848,107.12
1.1701,103.35
1.1544,99.886
1.1369,96.565
1.1212,93.439
1.1065,90.41
1.0899,87.822
1.0831,85.721
1.0968,84.305
1.1466,83.621
1.2454,83.572
1.3959,83.816
1.5924,84.256
1.8231,84.598
2.0674,84.793
2.303,84.745
2.4907,84.403
2.6364,83.914
2.7634,83.377
2.8612,82.791
2.9286,82.302
2.9697,81.863
2.9902,81.423
2.9941,80.935
2.9844,80.446
2.9638,79.811
2.9316,79.127
2.8895,78.444
2.8358,77.613
2.7791,76.881
2.7165,76.197
2.6403,75.562
2.5533,75.073
2.4585,74.634
2.3568,74.292
2.2532,73.901
2.1505,73.559
2.0508,73.12
1.9599,72.68
1.8788,72.192
1.8084,71.752
1.7537,71.361
1.7107,70.922
1.6716,70.384
1.6373,69.749
1.609,69.066
1.5855,68.431
1.565,68.626
1.5464,70.873
1.5288,76.929
1.5122,87.871
1.4966,103.06
1.4809,119.37
1.4653,132.86
1.4526,140.92
1.4399,143.26
1.4223,141.55
1.4018,137.94
1.3793,133.98
1.3568,130.8
1.3343,128.75
1.3109,127.68
1.2874,127.04
1.2649,126.26
1.2414,124.7
1.219,122.31
1.2033,119.03
1.1906,115.17
1.176,111.12
1.1623,106.97
1.1486,103.11
1.1339,99.495
1.1183,96.125
1.0987,92.853
1.0743,89.824
1.0499,86.991
1.0323,84.745
1.0332,83.133
1.0694,82.302
1.1329,82.107
1.2336,82.302
1.3842,82.742
1.5767,83.133
1.8025,83.426
2.0391,83.572
2.263,83.475
2.4575,83.23
2.6139,82.84
2.7302,82.498
2.8084,82.107
2.8563,81.716
2.8778,81.228
2.8817,80.69
2.8768,80.104
2.8622,79.421
2.8377,78.688
2.8035,77.906
2.7586,77.174
2.7038,76.539
2.6383,76.05
2.5621,75.66
2.477,75.366
2.3832,75.171
2.2845,74.927
2.1945,74.634
2.1085,74.243
2.0156,73.803
1.9228,73.217
1.8358,72.631
1.7586,71.996
1.6911,71.361
1.6344,70.726
1.5885,70.091
1.5523,69.603
1.5249,69.261
1.5034,69.359
1.4888,70.922
1.479,75.611
1.4673,84.842
1.4545,98.812
1.4399,114.98
1.4233,129.63
1.4057,139.35
1.3861,143.26
1.3666,142.43
1.347,138.91
1.3275,134.66
1.3069,130.85
1.2913,128.26
1.2776,126.8
1.261,126.16
1.2424,125.63
1.2248,124.41
1.2082,122.45
1.1916,119.47
1.175,115.81
1.1593,111.61
1.1447,107.41
1.13,103.5
1.1153,99.789
1.0997,96.418
1.088,93.292
1.0762,90.362
1.0577,87.675
1.0401,85.575
1.0342,84.061
1.0518,83.279
1.1075,83.279
1.2111,83.67
1.3675,84.256
1.5689,84.745
1.7996,84.94
2.0381,84.842
2.2385,84.5
2.4027,84.012
2.5562,83.475
2.6794,82.986
2.7683,82.547
2.827,82.156
2.8592,81.716
2.8719,81.228
2.869,80.593
2.8543,79.909
2.8289,79.176
2.7928,78.346
2.7468,77.564
2.697,76.783
2.6413,76.099
2.5738,75.464
2.4966,74.927
2.4086,74.487
2.3138,73.999
2.2141,73.608
2.1124,73.217
2.0137,72.875
1.9208,72.533
1.8397,72.192
1.7703,71.752
1.7185,71.312
1.6804,70.873
1.6471,70.482
1.6197,69.994
1.5982,69.554
1.5806,69.261
1.564,69.554
1.5494,71.605
1.5347,77.125
1.52,87.431
1.5044,102.04
1.4888,118.45
1.4731,132.42
1.4604,141.11
1.4477,144.04
1.4321,142.72
1.4145,139.11
1.3949,135.01
1.3744,131.49
1.3529,129.24
1.3314,128.26
1.3099,127.87
1.2903,127.29
1.2727,125.97
1.2551,123.72
1.2424,120.55
1.2326,116.79
1.2209,112.68
1.2102,108.63
1.1994,104.82
1.1877,101.3
1.174,97.981
1.1584,94.855
1.1398,91.876
1.1202,89.043
1.1065,86.698
1.1105,84.94
1.1447,84.012
1.2023,83.816
1.2952,84.11
1.4428,84.696
1.6393,85.184
1.8671,85.477
2.1056,85.477
2.3324,85.184
2.5318,84.745
2.6931,84.11
2.8133,83.572
2.8954,83.035
2.9462,82.547
2.9697,82.107
2.9726,81.667
2.9658,81.13
2.9482,80.495
2.9218,79.811
2.8856,78.981
2.8416,78.248
2.7879,77.467
2.7243,76.783
2.652,76.197
2.5709,75.611
2.4809,75.171
2.3842,74.78
2.2952,74.341
2.2102,73.901
2.1173,73.559
2.0244,73.12
1.9374,72.729
1.8602,72.289
1.7957,71.947
1.7419,71.605
1.6989,71.215
1.6647,70.824
1.6364,70.287
1.6139,69.798
1.5982,69.652
1.5846,70.97
1.5679,75.171
1.5503,83.816
1.5318,97.053
1.5112,112.93
1.4888,127.73
1.4663,138.23
1.4438,143.06
1.4203,143.11
1.3959,140.43
1.3715,136.76
1.348,133.34
1.3294,131
1.3138,129.68
1.2952,129.09
1.2757,128.56
1.2561,127.48
1.2366,125.48
1.217,122.7
1.1994,119.03
1.1828,114.98
1.1672,110.88
1.1544,106.92
1.1427,103.16
1.1349,99.691
1.1281,96.321
1.1144,93.048
1.0968,90.069
1.0782,87.382
1.0684,85.282
1.0811,83.914
1.129,83.23
1.2229,83.182
1.3675,83.475
1.5572,84.012
1.7781,84.354
2.0117,84.549
2.2121,84.354
2.3793,84.012
2.5396,83.475
2.6735,82.84
2.7742,82.302
2.8426,81.716
2.8856,81.228
2.9071,80.739
2.912,80.251
2.9032,79.665
2.8827,78.981
2.8504,78.297
2.8113,77.564
2.7654,76.929
2.7087,76.343
2.6422,75.855
2.566,75.415
2.48,74.976
2.3871,74.536
2.2874,74.048
2.1848,73.559
2.0811,72.924
1.9804,72.24
1.8866,71.557
1.8025,70.873
1.737,70.287
1.6843,69.652
1.6354,69.163
1.5943,68.626
1.5601,68.04
1.5318,67.503
1.5093,67.161
1.4897,67.942
1.4731,71.068
1.4565,78.248
1.4399,90.362
1.4223,106.04
1.4096,122.06
1.3969,134.52
1.3793,141.26
1.3597,142.67
1.3382,140.57
1.3167,136.91
1.2952,133.25
1.2747,130.36
1.2542,128.7
1.2297,127.92
1.2043,127.48
1.1808,126.7
1.1623,125.14
1.1476,122.55
1.13,119.18
1.1105,115.32
1.0909,111.17
1.0723,107.12
1.0538,103.31
1.0362,99.74
1.0166,96.369
0.99413,93.097
0.9697,89.971
0.94526,87.138
0.93157,84.793
0.93451,83.23
0.96481,82.449
1.0371,82.302
1.1603,82.547
1.3372,83.133
1.5572,83.621
1.8025,84.061
2.0508,84.256
2.2815,84.158
2.479,83.914
2.6334,83.572
2.7458,83.035
2.8133,82.595
2.8495,82.107
2.871,81.618
2.8778,80.984
2.871,80.349
2.8514,79.665
2.8211,78.932
2.781,78.248
2.7302,77.467
2.6696,76.929
2.6002,76.441
2.522,76.001
2.435,75.66
2.3519,75.415
2.2678,75.122
2.1711,74.878
2.0694,74.487
1.9677,73.999
1.871,73.364
1.783,72.631
1.7067,71.947
1.6422,71.312
1.5904,70.726
1.5503,70.189
1.52,69.749
1.5005,69.554
1.4868,70.433
1.4751,73.657
1.4643,80.886
1.4536,92.95
1.4409,108.53
1.4262,124.36
1.4096,136.62
1.392,143.16
1.3734,144.43
1.3529,142.14
1.3304,138.23
1.3079,134.22
1.2903,131.05
1.2747,129.05
1.2561,127.97
1.2375,127.29
1.218,126.26
1.1994,124.41
1.1808,121.72
1.1642,118.25
1.1496,114.25
1.1359,110.09
1.1232,105.99
1.1095,102.23
1.0997,98.665
1.0899,95.441
1.0733,92.364
1.0518,89.531
1.0293,87.04
1.0147,85.038
1.0186,83.816
1.0547,83.279
1.1369,83.377
1.2727,83.67
1.4575,84.11
1.6794,84.403
1.9198,84.403
2.129,84.158
2.3079,83.816
2.4819,83.377
2.6285,82.986
2.741,82.693
2.8172,82.351
2.8622,82.107
2.8817,81.814
2.8837,81.374
2.871,80.788
2.8456,80.104
2.8104,79.323
2.7693,78.444
2.7214,77.613
2.6628,76.881
2.5943,76.246
2.5171,75.611
2.4321,75.122
2.3412,74.634
2.2434,74.194
2.1427,73.755
2.042,73.315
1.9462,72.875
1.8563,72.387
1.7761,71.947
1.7136,71.41
1.6647,70.97
1.6217,70.531
1.5875,70.091
1.5601,69.603
1.5386,69.163
1.523,68.919
1.5103,69.603
1.4985,72.631
1.4858,79.469
1.4741,91.192
1.4624,106.68
1.4526,122.75
1.4428,135.35
1.4291,142.48
1.4125,144.29
1.3939,142.43
1.3744,138.91
1.3529,135.2
1.3304,132.17
1.3079,130.32
1.2854,129.44
1.2639,128.85
1.2434,127.92
1.2239,126.26
1.2092,123.58
1.1984,120.06
1.1857,116
1.172,111.76
1.1593,107.6
1.1476,103.74
1.1359,100.23
1.1232,96.907
1.1075,93.781
1.088,90.801
1.0684,88.066
1.0567,85.868
1.0596,84.305
1.086,83.572
1.1515,83.426
1.2669,83.67
1.433,84.061
1.6422,84.305
1.8788,84.403
2.1212,84.305
2.349,84.061
2.5445,83.621
2.6999,83.035
2.8133,82.547
2.8905,82.107
2.9335,81.667
2.9521,81.277
2.9589,80.886
2.9531,80.349
2.9365,79.762
2.9081,79.127
2.869,78.444
2.8201,77.76
2.7615,77.125
2.6921,76.49
2.6129,76.001
2.5249,75.562
2.4418,75.171
2.3587,74.731
2.263,74.292
2.1613,73.803
2.0606,73.315
1.9648,72.875
1.8759,72.436
1.7977,72.045
1.7312,71.654
1.6755,71.312
1.6305,70.873
1.5953,70.384
1.566,69.749
1.5455,69.114
1.5298,68.919
1.5132,70.042
1.4966,73.901
1.48,82.058
1.4633,94.806
1.4457,110.49
1.4282,125.58
1.4086,136.57
1.3891,141.94
1.3685,142.48
1.348,140.04
1.3324,136.47
1.3187,133.1
1.3011,130.66
1.2815,129.29
1.261,128.7
1.2405,128.07
1.2199,126.95
1.2004,124.85
1.1808,121.91
1.1623,118.3
1.1466,114.2
1.132,110.05
1.1193,105.99
1.1114,102.18
1.1046,98.665
1.0929,95.295
1.0762,92.12
1.0567,89.092
1.0352,86.503
1.0215,84.5
1.0293,83.133
1.0723,82.547
1.1603,82.498
1.3011,82.791
1.4897,83.23
1.6804,83.67
1.8719,83.865
2.0899,83.816
2.3021,83.475
2.4888,82.986
2.6373,82.449
2.7468,81.814
2.8201,81.277
2.8631,80.739
2.8837,80.251
2.8876,79.665
2.8788,79.03
2.8592,78.444
2.8299,77.76
2.7918,77.125
2.7439,76.49
2.6852,76.001
2.6158,75.464
2.5376,75.122
2.4506,74.78
2.3568,74.438
2.2581,74.048
2.1564,73.608
2.0538,73.12
1.9541,72.631
1.87,71.947
1.8006,71.215
1.7331,70.531
1.6891,69.847
1.6637,69.261
1.6364,68.626
1.61,67.991
1.5885,67.356
1.5689,66.868
1.5513,66.916
1.5357,68.675
1.52,73.608
1.5064,83.133
1.4936,97.102
1.478,113.32
1.4594,127.87
1.4379,137.59
1.4164,141.6
1.3939,141.06
1.3724,137.98
1.3509,134.17
1.3304,130.8
1.3099,128.41
1.2903,127.14
1.2717,126.51
1.2581,125.72
1.2463,124.41
1.2326,122.26
1.217,119.18
1.2014,115.42
1.1857,111.36
1.1701,107.31
1.1554,103.45
1.1408,99.789
1.1251,96.369
1.1065,93.097
1.085,90.069
1.0665,87.138
1.0508,84.598
1.0381,82.791
1.044,81.667
1.0841,81.277
1.1711,81.374
1.3109,81.814
1.4995,82.302
1.7234,82.693
1.9638,82.84
2.1984,82.84
2.4086,82.742
2.5816,82.498
2.7019,82.253
2.7801,81.863
2.8377,81.472
2.8749,81.13
2.8925,80.739
2.8954,80.251
2.8856,79.762
2.8641,79.127
2.8328,78.346
2.7908,77.662
2.739,77.027
2.6764,76.49
2.6129,76.05
2.5455,75.757
2.4643,75.415
2.3724,75.122
2.2737,74.731
2.172,74.243
2.0704,73.608
1.9707,72.924
1.8788,72.192
1.7957,71.41
1.7253,70.726
1.6676,70.091
1.6227,69.652
1.5924,69.359
1.5718,69.163
1.5552,69.359
1.5425,70.922
1.5327,75.318
1.5239,84.012
1.5142,97.297
1.5034,113.07
1.4917,127.63
1.478,137.59
1.4624,141.94
1.4448,141.6
1.4301,138.57
1.4164,134.57
1.3988,130.95
1.3803,128.26
1.3617,126.75
1.3431,125.87
1.3255,125.04
1.3069,123.82
1.2884,121.67
1.2698,118.79
1.2512,115.17
1.2336,111.17
1.217,107.12
1.2053,103.26
1.1955,99.593
1.1828,96.174
1.1681,92.95
1.1505,89.971
1.131,87.284
1.1124,85.135
1.1036,83.572
1.1153,82.791
1.1623,82.693
1.2551,82.986
1.3988,83.426
1.5562,83.719
1.7292,83.865
1.9423,83.67
2.1642,83.23
2.3724,82.742
2.5503,82.156
2.6901,81.667
2.7908,81.277
2.8573,80.935
2.8954,80.593
2.911,80.251
2.9101,79.762
2.8964,79.176
2.8729,78.59
2.8416,77.906
2.8016,77.32
2.7527,76.685
2.694,76.197
2.6276,75.66
2.5523,75.318
2.4702,74.927
2.3822,74.536
2.2884,74.243
2.1926,73.901
2.0978,73.559
2.0186,73.12
1.9492,72.68
1.8807,72.094
1.8192,71.605
1.7674,71.068
1.7243,70.482
1.6901,69.847
1.6637,69.31
1.6432,68.87
1.6256,68.919
1.61,70.531
1.5963,75.171
1.5826,84.305
1.5718,97.932
1.5611,113.86
1.5474,128.36
1.5327,138.23
1.5161,142.43
1.4985,142.04
1.4809,139.01
1.4624,134.91
1.4428,131.29
1.4242,128.8
1.4066,127.43
1.39,126.75
1.3783,126.07
1.3675,124.7
1.3558,122.5
1.3431,119.42
1.3304,115.76
1.3167,111.76
1.303,107.75
1.2903,103.94
1.2776,100.42
1.2639,97.249
1.2483,94.171
1.2297,91.29
1.2092,88.603
1.1955,86.308
1.1906,84.598
1.1994,83.621
1.2385,83.23
1.3206,83.377
1.4516,83.67
1.6295,84.012
1.8426,84.061
2.0733,83.914
2.3001,83.621
2.5054,83.182
2.6764,82.742
2.7957,82.302
2.8749,81.863
2.9355,81.472
2.9746,81.13
2.9941,80.69
2.9971,80.251
2.9873,79.665
2.9668,79.03
2.9345,78.346
2.8915,77.662
2.8377,77.027
2.7732,76.441
2.7067,75.904
2.6364,75.366
2.5543,74.927
2.4624,74.487
2.3646,74.048
2.2639,73.608
2.1632,73.12
2.0674,72.68
1.9775,72.24
1.8974,71.85
1.828,71.508
1.7713,71.117
1.7243,70.677
1.6901,70.189
1.6647,69.554
1.6422,68.968
1.6217,68.919
1.6031,70.287
1.5865,74.536
1.5699,83.182
1.5533,96.223
1.5357,111.85
1.5171,126.36
1.4976,136.57
1.477,141.31
1.4604,141.45
1.4448,138.81
1.4252,135.25
1.4047,131.93
1.3832,129.63
1.3617,128.36
1.3412,127.73
1.3196,127.14
1.2991,125.87
1.2786,123.67
1.259,120.55
1.2405,116.79
1.2239,112.68
1.2141,108.48
1.2072,104.48
1.1984,100.81
1.1877,97.346
1.174,94.123
1.1564,91.045
1.1349,88.164
1.1144,85.721
1.1026,83.816
1.1114,82.547
1.1535,82.009
1.2395,82.058
1.349,82.351
1.4868,82.791
1.6755,83.23
1.8935,83.426
2.1183,83.377
2.3284,83.133
2.5103,82.693
2.6559,82.253
2.7634,81.863
2.8348,81.423
2.8739,80.984
2.8895,80.544
2.8905,80.007
2.8788,79.323
2.8573,78.541
2.828,77.809
2.7889,77.125
2.74,76.441
2.6813,75.855
2.6129,75.318
2.5347,74.878
2.4477,74.487
2.3529,74.194
2.2532,73.852
2.1525,73.51
2.0645,73.071
1.9844,72.533
1.8993,72.045
1.8182,71.508
1.7449,70.97
1.6823,70.433
1.6315,69.945
1.5904,69.359
1.5582,68.821
1.5337,68.382
1.5142,68.675
1.4985,70.873
1.4839,76.49
1.4731,86.796
1.4633,101.06
1.4516,116.49
1.4379,129.53
1.4213,137.59
1.4037,140.38
1.3842,139.25
1.3636,136.08
1.3421,132.42
1.3216,129.44
1.3011,127.53
1.2815,126.56
1.2669,125.92
1.2551,125.04
1.2395,123.43
1.2219,120.94
1.2023,117.62
1.1838,113.81
1.1672,109.66
1.1505,105.55
1.1369,101.6
1.1232,97.981
1.1085,94.611
1.0919,91.436
1.0723,88.408
1.0567,85.819
1.045,83.67
1.0371,82.156
1.0479,81.374
1.0909,81.13
1.1789,81.277
1.3167,81.667
1.4985,82.058
1.7116,82.351
1.9365,82.547
2.1535,82.498
2.346,82.302
2.4888,82.009
2.5904,81.716
2.6725,81.423
2.7302,81.13
2.7654,80.69
2.782,80.153
2.783,79.616
2.7713,78.883
2.7498,78.102
2.7185,77.369
2.6774,76.685
2.6256,76.05
2.563,75.464
2.5005,74.976
2.435,74.634
2.3568,74.292
2.2688,73.999
2.175,73.657
2.0782,73.315
1.9814,72.778
1.8886,72.24
1.8035,71.654
1.7283,71.068
1.6637,70.482
1.6109,69.945
1.5728,69.407
1.5455,69.066
1.522,69.066
1.5044,70.238
1.4897,74.097
1.478,82.156
1.4673,94.904
1.4565,110.63
1.4467,125.68
1.434,136.57
1.4194,141.6
1.4027,141.75
1.3842,138.86
1.3685,134.86
1.3529,131.05
1.3324,128.31
1.3099,126.6
1.2864,125.72
1.2639,124.94
1.2414,123.62
1.219,121.48
1.1984,118.54
1.1799,114.93
1.1632,110.97
1.1466,106.92
1.1359,103.01
1.1281,99.3
1.1173,95.93
1.1026,92.755
1.085,89.727
1.0635,86.991
1.0401,84.793
1.0235,83.23
1.0244,82.498
1.0567,82.351
1.132,82.742
1.2571,83.377
1.4301,83.865
1.608,84.158
1.7898,84.158
2,83.914
2.2072,83.572
2.391,83.133
2.5396,82.693
2.6491,82.351
2.7224,82.009
2.7654,81.618
2.784,81.228
2.7849,80.69
2.7722,80.055
2.7498,79.372
2.7204,78.59
2.6833,77.906
2.6383,77.32
2.5846,76.685
2.523,76.099
2.4516,75.611
2.3705,75.171
2.2815,74.731
2.1867,74.292
2.0909,73.852
1.9961,73.413
1.9052,72.924
1.8299,72.436
1.7683,71.947
1.7107,71.361
1.6608,70.824
1.6197,70.091
1.5875,69.407
1.563,68.919
1.5455,69.114
1.5318,71.117
1.521,76.636
1.5112,86.943
1.5015,101.79
1.4946,118.25
1.4878,132.32
1.477,140.92
1.4643,143.8
1.4506,142.38
1.435,138.81
1.4184,134.76
1.4008,131.39
1.3832,129.19
1.3646,128.07
1.347,127.53
1.3294,126.8
1.3167,125.38
1.306,122.99
1.2923,119.77
1.2776,115.86
1.263,111.76
1.2502,107.7
1.2385,103.94
1.2268,100.42
1.2131,97.249
1.1965,94.22
1.176,91.387
1.1525,88.75
1.132,86.552
1.1232,84.842
1.1339,83.914
1.173,83.67
1.2551,83.914
1.39,84.305
1.5728,84.696
1.7918,84.842
2.0274,84.745
2.2571,84.5
2.4624,84.061
2.6325,83.572
2.7625,83.133
2.8465,82.693
2.8954,82.302
2.9267,81.912
2.9413,81.472
2.9423,80.886
2.9306,80.153
2.9081,79.421
2.8759,78.688
2.8358,78.004
2.7869,77.32
2.7292,76.734
2.6618,76.246
2.5855,75.855
2.5103,75.562
2.434,75.171
2.346,74.878
2.2512,74.487
2.1554,74.048
2.0626,73.657
1.9746,73.217
1.8954,72.778
1.827,72.387
1.7703,71.947
1.7243,71.361
1.6872,70.726
1.6608,70.091
1.6413,69.847
1.6227,70.677
1.607,74.048
1.5914,81.57
1.5758,93.878
1.5601,109.61
1.5425,125.19
1.5239,136.81
1.5044,142.82
1.4829,143.75
1.4614,141.55
1.4399,138.13
1.4223,134.76
1.4066,132.32
1.3891,130.85
1.3715,130.17
1.3519,129.68
1.3324,128.61
1.3138,126.6
1.2952,123.67
1.2786,119.86
1.263,115.66
1.2473,111.41
1.2336,107.41
1.2258,103.74
1.2199,100.33
1.2102,97.053
1.1965,93.927
1.1789,90.997
1.1574,88.31
1.1388,86.112
1.1349,84.598
1.1584,83.865
1.2219,83.719
1.3343,84.012
1.4966,84.5
1.6999,84.94
1.8964,85.233
2.086,85.233
2.2903,84.94
2.4819,84.403
2.6442,83.816
2.7693,83.182
2.8592,82.595
2.9179,82.107
2.9511,81.618
2.9648,81.032
2.9638,80.495
2.9492,79.86
2.9247,79.127
2.8915,78.346
2.8485,77.613
2.7947,76.929
2.7302,76.343
2.6569,75.855
2.5748,75.464
2.4839,75.171
2.3871,74.878
2.2864,74.536
2.1848,74.194
2.086,73.755
1.9922,73.217
1.9159,72.729
1.8534,72.192
1.7937,71.654
1.741,71.117
1.697,70.482
1.6618,69.847
1.6325,69.407
1.608,69.798
1.5885,72.192
1.5709,78.053
1.5533,88.554
1.5367,103.11
1.5249,118.94
1.5142,132.22
1.4995,140.43
1.4809,143.16
1.4594,141.99
1.436,138.91
1.4125,135.44
1.39,132.56
1.3675,130.61
1.346,129.53
1.3245,128.95
1.304,127.97
1.2845,126.31
1.2688,123.67
1.2571,120.3
1.2444,116.35
1.2307,112.19
1.216,108.09
1.2033,104.18
1.1926,100.57
1.1808,97.102
1.1662,93.781
1.1486,90.606
1.1281,87.675
1.1095,85.184
1.1017,83.279
1.1124,82.107
1.1505,81.667
1.2307,81.814
1.3597,82.156
1.5357,82.547
1.7478,82.84
1.9775,82.986
2.2053,82.84
2.4125,82.547
2.5855,82.156
2.7195,81.716
2.8152,81.374
2.8729,80.984
2.9032,80.593
2.9198,80.153
2.9228,79.762
2.914,79.176
2.8944,78.541
2.8641,77.906
2.8231,77.32
2.7693,76.685
2.7048,76.099
2.6305,75.66
2.5464,75.22
2.4663,74.927
2.3851,74.634
2.2913,74.243
2.1896,73.803
2.086,73.315
1.9863,72.68
1.8925,72.045
1.8084,71.41
1.7351,70.726
1.6725,70.091
1.6217,69.505
1.5816,68.919
1.5503,68.626
1.5308,69.163
1.5171,71.752
1.5034,77.906
1.4907,88.945
1.478,103.84
1.4653,119.81
1.4516,133
1.436,140.87
1.4203,143.26
1.4037,141.75
1.3871,138.33
1.3695,134.61
1.3548,131.54
1.3412,129.53
1.3236,128.56
1.304,127.92
1.2845,126.99
1.263,125.24
1.2414,122.7
1.2199,119.33
1.2004,115.42
1.1818,111.36
1.1642,107.36
1.1476,103.5
1.131,99.935
1.1183,96.565
1.1056,93.341
1.085,90.362
1.0606,87.724
1.0362,85.624
1.0215,84.256
1.0293,83.621
1.0743,83.572
1.1681,83.914
1.3128,84.403
1.5054,84.745
1.7302,84.842
1.9374,84.745
2.1261,84.403
2.3196,84.11
2.4917,83.719
2.6295,83.426
2.7292,83.182
2.7937,82.937
2.8309,82.693
2.8456,82.302
2.8426,81.814
2.827,81.179
2.7996,80.446
2.7654,79.665
2.7243,78.932
2.6735,78.248
2.6139,77.613
2.5455,77.027
2.4682,76.636
2.3832,76.246
2.2913,76.001
2.1945,75.806
2.0968,75.464
2,75.073
1.9071,74.438
1.8231,73.803
1.7566,73.12
1.7028,72.436
1.654,71.752
1.6129,71.117
1.5797,70.726
1.5543,71.166
1.5357,73.852
1.521,80.3
1.5083,91.68
1.4966,107.07
1.4848,123.14
1.4721,136.08
1.4624,143.36
1.4526,145.26
1.4379,143.46
1.4194,139.99
1.3988,136.32
1.3773,133.34
1.3548,131.63
1.3324,130.76
