1.4809,89.531
1.4682,88.945
1.4633,88.31
1.4741,87.626
1.5083,86.845
1.5679,86.161
1.6579,85.477
1.7742,84.94
1.911,84.403
2.0567,84.012
2.2014,83.621
2.3324,83.23
2.4457,82.937
2.5279,82.595
2.5855,82.253
2.6334,81.863
2.6657,81.472
2.6813,81.179
2.6843,80.886
2.6774,80.544
2.6618,80.251
2.6354,79.909
2.6012,79.567
2.5621,79.176
2.5161,78.688
2.4702,78.102
2.4252,77.564
2.3773,77.125
2.3294,76.881
2.2845,77.174
2.2424,78.541
2.2014,82.009
2.1623,88.164
2.1261,96.369
2.089,104.82
2.0528,111.56
2.0176,115.57
1.9834,117.32
1.9541,117.47
1.9267,116.88
1.8974,115.76
1.8671,114.49
1.8387,113.12
1.8113,111.8
1.784,110.39
1.7566,108.82
1.7283,106.92
1.7009,104.67
1.6755,102.04
1.652,99.251
1.6334,96.369
1.6168,93.878
1.5992,91.778
1.5797,90.313
1.5591,89.189
1.5386,88.261
1.5171,87.48
1.4936,86.796
1.4692,85.966
1.4487,85.184
1.4399,84.354
1.4506,83.426
1.4868,82.547
1.5386,81.667
1.61,80.886
1.7136,80.104
1.8387,79.421
1.9746,78.786
2.1114,78.297
2.2385,77.858
2.35,77.467
2.4409,77.125
2.5093,76.734
2.5591,76.441
2.5904,76.197
2.6041,76.001
2.6031,75.757
2.5894,75.415
2.564,75.073
2.5288,74.634
2.4858,74.243
2.4379,73.755
2.3861,73.12
2.3324,72.387
2.2796,71.752
2.2258,71.215
2.175,70.922
2.1281,71.068
2.089,71.85
2.0508,74.097
2.0098,78.737
1.9677,85.819
1.9238,94.22
1.8798,101.89
1.8348,107.26
1.7859,110.05
1.737,110.92
1.6901,110.68
1.6442,109.75
1.6012,108.48
1.5679,107.12
1.5406,105.6
1.5112,104.14
1.4819,102.57
1.4545,100.91
1.4282,99.056
1.4047,96.809
1.3832,94.318
1.3627,91.729
1.3402,89.434
1.3167,87.529
1.2903,86.308
1.2649,85.428
1.2463,84.793
1.2297,84.256
1.2063,83.67
1.1799,82.986
1.1544,82.253
1.1369,81.472
1.1339,80.739
1.1535,80.104
1.2023,79.469
1.2815,78.932
1.3881,78.346
1.5161,77.809
1.6403,77.32
1.7595,76.881
1.8876,76.539
2.0078,76.343
2.1124,76.246
2.1975,76.246
2.26,76.343
2.303,76.441
2.3294,76.49
2.3372,76.49
2.3294,76.441
2.3099,76.294
2.2796,76.099
2.2473,75.806
2.2102,75.464
2.1642,75.122
2.1163,74.78
2.0674,74.536
2.0205,74.438
1.9775,74.438
1.9374,74.731
1.8993,75.66
1.8612,78.102
1.824,82.84
1.7869,89.971
1.7537,98.177
1.7263,105.41
1.696,110.49
1.6647,112.98
1.6334,113.76
1.6012,113.32
1.5699,112.19
1.5406,110.68
1.5122,108.97
1.4839,107.26
1.4575,105.5
1.4321,103.74
1.4135,101.99
1.4008,100.03
1.3891,97.981
1.3773,95.734
1.3636,93.634
1.349,91.925
1.3324,90.655
1.3157,89.824
1.3011,89.092
1.2854,88.506
1.2688,87.871
1.2737,87.236
1.2923,86.601
1.304,85.917
1.3167,85.233
1.3353,84.549
1.3695,84.012
1.4301,83.426
1.52,82.937
1.6373,82.498
1.7752,82.058
1.9238,81.716
2.0723,81.374
2.2102,81.032
2.3294,80.788
2.4174,80.544
2.478,80.3
2.5249,80.055
2.5572,79.811
2.5738,79.567
2.5777,79.323
2.5699,79.03
2.5523,78.786
2.5288,78.492
2.4976,78.053
2.4604,77.613
2.4203,77.125
2.3783,76.685
2.3402,76.246
2.303,75.855
2.2649,75.66
2.2278,75.757
2.1896,76.636
2.1525,78.981
2.1173,83.67
2.0841,90.655
2.0528,98.665
2.0235,105.75
1.9951,110.49
1.9687,112.88
1.9472,113.32
1.9306,112.68
1.913,111.51
1.8944,110
1.8768,108.39
1.8592,106.72
1.8397,105.26
1.8172,103.7
1.7957,102.13
1.7752,100.33
1.7556,98.225
1.7361,96.125
1.7165,93.976
1.7009,92.169
1.6872,90.801
1.6706,89.824
1.653,89.043
1.6344,88.408
1.6139,87.822
1.5934,87.236
1.5748,86.601
1.5591,85.917
1.5513,85.282
1.5591,84.696
1.5894,84.012
1.6354,83.426
1.7009,82.84
1.7986,82.351
1.9189,81.912
2.0518,81.618
2.1877,81.277
2.3167,81.032
2.4301,80.886
2.52,80.593
2.5855,80.446
2.6276,80.153
2.6491,79.909
2.653,79.665
2.6461,79.421
2.6295,79.176
2.6041,78.883
2.5709,78.492
2.5327,78.053
2.4907,77.662
2.4448,77.174
2.3969,76.685
2.349,76.246
2.3011,75.855
2.2542,75.66
2.2092,75.855
2.1701,76.929
2.1349,79.762
2.0987,85.184
2.0626,92.804
2.0283,101.06
1.9941,107.95
1.9589,112.29
1.9277,114.3
1.8983,114.64
1.871,114
1.8456,112.93
1.8221,111.61
1.8006,110.24
1.7849,108.87
1.7722,107.51
1.7566,106.14
1.739,104.58
1.7204,102.72
1.7019,100.67
1.6823,98.323
1.6647,95.979
1.6471,93.927
1.6295,92.315
1.6139,91.094
1.5992,90.215
1.5885,89.482
1.5767,88.799
1.5591,88.164
1.5376,87.529
1.5181,86.845
1.5044,86.161
1.5064,85.428
1.5337,84.793
1.5894,84.158
1.6735,83.621
1.784,83.133
1.9159,82.693
2.0587,82.302
2.1848,82.009
2.2952,81.716
2.4066,81.57
2.5064,81.277
2.5855,81.13
2.6442,80.935
2.6833,80.69
2.7038,80.446
2.7087,80.104
2.6989,79.86
2.6794,79.567
2.653,79.225
2.6227,78.786
2.5885,78.248
2.5474,77.613
2.5024,76.978
2.4555,76.343
2.4096,75.904
2.3617,75.66
2.3157,75.904
2.2737,77.125
2.2356,80.3
2.1994,86.063
2.1652,93.927
2.13,102.18
2.0987,108.87
2.0714,112.98
2.042,114.73
2.0117,114.93
1.9814,114.3
1.9521,113.17
1.9238,111.85
1.8983,110.53
1.8729,109.26
1.8485,107.85
1.824,106.43
1.8016,104.82
1.784,102.87
1.7693,100.57
1.7527,98.03
1.7341,95.637
1.7155,93.439
1.697,91.729
1.6764,90.508
1.654,89.531
1.6315,88.75
1.607,88.066
1.5787,87.382
1.5503,86.601
1.5279,85.917
1.5161,85.135
1.521,84.354
1.5503,83.572
1.609,82.693
1.697,81.814
1.8133,80.984
1.9501,80.251
2.0968,79.616
2.2414,79.03
2.3754,78.444
2.4927,77.858
2.5885,77.369
2.653,76.929
2.695,76.539
2.7273,76.197
2.7468,75.806
2.7527,75.366
2.7458,74.927
2.7283,74.438
2.7019,73.852
2.6667,73.315
2.6237,72.729
2.5758,72.094
2.5259,71.41
2.479,70.824
2.434,70.238
2.3861,69.994
2.3402,70.042
2.2952,70.824
2.2522,73.071
2.2111,77.662
2.1711,84.745
2.129,92.999
2.088,100.33
2.0479,105.31
2.0088,107.8
1.9717,108.43
1.9413,107.99
1.912,106.87
1.8749,105.5
1.8358,103.99
1.7977,102.47
1.7615,100.91
1.7292,99.349
1.6989,97.737
1.6696,95.881
1.6413,93.683
1.6149,91.29
1.5894,88.945
1.5699,86.845
1.5533,85.282
1.5308,84.305
1.5034,83.572
1.4751,82.937
1.4448,82.302
1.4096,81.667
1.3744,80.935
1.3441,80.153
1.3236,79.372
1.3196,78.541
1.3382,77.809
1.3871,77.027
1.4536,76.441
1.5376,75.904
1.653,75.415
1.7898,74.976
1.9365,74.683
2.0782,74.341
2.2043,74.048
2.3099,73.852
2.3939,73.608
2.4526,73.51
2.4868,73.364
2.5015,73.315
2.5024,73.217
2.4927,73.12
2.4721,72.973
2.4428,72.875
2.4047,72.631
2.3607,72.289
2.3099,71.947
2.2542,71.557
2.1965,71.361
2.1388,71.361
2.0841,71.557
2.0342,72.045
1.9853,73.364
1.9433,76.246
1.9071,81.423
1.8661,88.75
1.8221,96.76
1.7771,103.6
1.7331,108.19
1.6911,110.39
1.652,110.92
1.6149,110.44
1.5816,109.36
1.5494,107.99
1.5171,106.43
1.4927,104.87
1.4721,103.31
1.4487,101.79
1.4233,100.18
1.4008,98.372
1.3822,96.223
1.3675,93.976
1.3548,91.925
1.3431,90.215
1.3324,89.043
1.3216,88.261
1.3099,87.626
1.2952,87.138
1.2845,86.601
1.2747,85.966
1.263,85.379
1.2532,84.745
1.2512,84.11
1.2659,83.426
1.306,82.84
1.3763,82.302
1.48,81.863
1.6139,81.423
1.7732,81.032
1.9433,80.739
2.0919,80.446
2.2239,80.104
2.3548,79.86
2.4692,79.616
2.563,79.372
2.6325,79.127
2.6774,78.932
2.7019,78.737
2.7087,78.492
2.7009,78.248
2.6823,77.906
2.6549,77.564
2.6197,77.125
2.5836,76.636
2.5455,76.099
2.5024,75.611
2.4565,75.171
2.4115,74.878
2.3685,74.878
2.3284,75.318
2.2893,76.929
2.2532,80.495
2.219,86.405
2.1857,94.074
2.1515,101.55
2.1202,107.16
2.0909,110.44
2.0616,111.56
2.0323,111.22
2.002,110.19
1.9717,108.82
1.9433,107.31
1.9159,105.75
1.8905,104.23
1.8661,102.82
1.8407,101.25
1.8143,99.544
1.7879,97.688
1.7664,95.637
1.7478,93.536
1.7283,91.729
1.7087,90.313
1.6901,89.238
1.6716,88.408
1.651,87.822
1.6276,87.236
1.6002,86.601
1.5728,85.966
1.5494,85.379
1.5337,84.696
1.5298,84.061
1.5406,83.426
1.5728,82.84
1.6354,82.351
1.7283,81.863
1.8485,81.472
1.9873,81.13
2.1369,80.739
2.2864,80.446
2.4233,80.055
2.5396,79.762
2.6315,79.421
2.6989,79.127
2.739,78.883
2.7576,78.688
2.7634,78.492
2.7556,78.346
2.7351,78.199
2.7048,77.906
2.6667,77.613
2.6227,77.174
2.5758,76.685
2.5279,76.197
2.479,75.757
2.4282,75.415
2.3822,75.22
2.3402,75.366
2.2972,76.343
2.2551,79.176
2.216,84.403
2.1779,91.778
2.1398,99.691
2.1026,106.28
2.0665,110.49
2.0323,112.44
1.998,112.68
1.9619,112.1
1.9257,111.07
1.8954,109.75
1.87,108.39
1.8407,106.97
1.8113,105.6
1.782,104.18
1.7527,102.57
1.7263,100.72
1.7028,98.616
1.6804,96.418
1.6579,94.367
1.6364,92.608
1.6149,91.29
1.5973,90.313
1.5797,89.482
1.5562,88.75
1.5308,88.066
1.5044,87.382
1.478,86.698
1.4545,86.063
1.4409,85.379
1.4467,84.745
1.477,84.158
1.5406,83.621
1.6373,83.133
1.7634,82.693
1.8886,82.302
2.0147,81.912
2.1613,81.618
2.3079,81.374
2.4399,81.179
2.5494,80.984
2.6334,80.886
2.6931,80.593
2.7322,80.349
2.7527,80.104
2.7576,79.811
2.7478,79.469
2.7283,79.127
2.7019,78.737
2.6657,78.297
2.6227,77.809
2.5728,77.223
2.5191,76.685
2.4633,76.197
2.4106,75.806
2.3617,75.611
2.3157,76.197
2.2717,78.053
2.2278,82.107
2.1906,88.701
2.1544,96.76
2.1124,104.38
2.0684,109.8
2.0254,112.73
1.9824,113.66
1.9394,113.42
1.8964,112.49
1.8553,111.22
1.8162,109.95
1.7781,108.53
1.7449,107.12
1.7175,105.75
1.697,104.18
1.6804,102.43
1.6608,100.37
1.6403,98.03
1.6197,95.539
1.5963,93.243
1.5718,91.387
1.5494,89.873
1.5249,88.75
1.4995,87.724
1.4721,86.845
1.4409,86.063
1.4135,85.233
1.392,84.354
1.3744,83.475
1.3675,82.595
1.3803,81.716
1.4213,80.886
1.4966,80.104
1.6031,79.421
1.7351,78.737
1.8837,78.053
2.0391,77.467
2.1906,76.929
2.3265,76.441
2.4291,76.001
2.5044,75.562
2.567,75.122
2.6119,74.78
2.6364,74.487
2.6442,74.194
2.6373,73.803
2.6178,73.413
2.5865,73.12
2.5464,72.729
2.5005,72.387
2.4477,71.85
2.3978,71.361
2.347,70.824
2.2893,70.238
2.2307,69.847
2.172,69.749
2.1144,70.091
2.0587,71.508
2.0039,74.78
1.9501,80.593
1.8983,88.31
1.8485,96.125
1.7996,102.23
1.7527,105.85
1.7146,107.31
1.6804,107.31
1.6422,106.43
1.6022,105.16
1.5621,103.74
1.523,102.23
1.4848,100.72
1.4467,99.3
1.4115,97.786
1.3793,96.125
1.35,94.171
1.3109,91.925
1.2708,89.531
1.2424,87.382
1.2141,85.575
1.1857,84.305
1.1574,83.426
1.129,82.742
1.0978,82.058
1.0626,81.423
1.0283,80.739
0.99804,80.055
0.97654,79.372
0.96872,78.59
0.98143,77.858
1.0127,77.174
1.0665,76.49
1.1554,75.855
1.2786,75.318
1.4262,74.878
1.5875,74.438
1.7488,74.097
1.8983,73.901
2.0264,73.755
2.129,73.608
2.2023,73.51
2.2502,73.51
2.2776,73.51
2.2854,73.559
2.2776,73.608
2.2581,73.608
2.2287,73.608
2.1906,73.51
2.1466,73.315
2.0978,73.12
2.045,72.875
1.9902,72.729
1.9365,72.68
1.8837,72.778
1.8358,73.168
1.7977,74.097
1.7644,76.294
1.7273,80.544
1.6882,87.138
1.6491,94.904
1.607,102.23
1.565,107.41
1.5239,110.24
1.4839,111.12
1.4457,110.83
1.4096,109.85
1.3763,108.48
1.3529,106.87
1.3353,105.26
1.3148,103.6
1.2952,101.99
1.2766,100.42
1.259,98.763
1.2414,96.809
1.2248,94.758
1.2092,92.755
1.1955,90.997
1.1818,89.727
1.1681,88.799
1.1544,88.115
1.1457,87.48
1.1417,86.991
1.1329,86.356
1.1212,85.721
1.1114,85.135
1.1075,84.5
1.1183,83.816
1.1505,83.133
1.2111,82.449
1.3069,81.814
1.433,81.277
1.5846,80.788
1.7302,80.446
1.871,80.104
2.0225,79.811
2.1672,79.567
2.2952,79.323
2.3998,79.03
2.479,78.786
2.5318,78.541
2.5611,78.297
2.5689,78.102
2.5601,77.858
2.5396,77.613
2.5064,77.369
2.4682,76.978
2.4301,76.636
2.3881,76.197
2.3431,75.66
2.2972,75.171
2.2532,74.78
2.2111,74.536
2.1701,74.683
2.13,75.562
2.0909,78.199
2.0528,83.035
2.0166,90.117
1.9863,97.884
1.958,104.48
1.9267,108.73
1.8944,110.68
1.8622,110.97
1.8289,110.24
1.7937,108.97
1.7595,107.55
1.7273,106.04
1.697,104.58
1.6706,103.06
1.6461,101.55
1.6227,99.984
1.6041,98.225
1.5875,96.369
1.5679,94.318
1.5464,92.364
1.5259,90.801
1.5064,89.531
1.4848,88.603
1.4614,87.871
1.436,87.236
1.4086,86.601
1.3812,85.966
1.3548,85.379
1.3372,84.696
1.3304,84.012
1.3324,83.377
1.3529,82.791
1.4018,82.302
1.4839,81.814
1.5973,81.423
1.7361,80.984
1.8876,80.69
2.042,80.446
2.1887,80.153
2.3167,79.909
2.4115,79.665
2.479,79.421
2.5318,79.225
2.5689,78.981
2.5885,78.786
2.5924,78.59
2.5836,78.444
2.563,78.102
2.5347,77.809
2.4985,77.369
2.4536,76.881
2.4027,76.294
2.349,75.806
2.3001,75.318
2.2542,75.073
2.2063,74.976
2.1593,75.415
2.1163,77.027
2.0762,80.69
2.0401,86.796
2.0049,94.562
1.9707,102.23
1.9365,108.04
1.9022,111.36
1.87,112.63
1.8446,112.49
1.8211,111.66
1.7957,110.53
1.7693,109.17
1.7429,107.8
1.7185,106.43
1.697,105.06
1.6764,103.55
1.6559,101.94
1.6354,100.03
1.6139,97.932
1.5934,95.734
1.5738,93.683
1.5572,92.071
1.5425,90.85
1.5269,89.922
1.5112,89.189
1.4946,88.506
1.478,87.871
1.4585,87.236
1.437,86.601
1.4223,85.917
1.4194,85.233
1.435,84.598
1.478,83.914
1.5367,83.377
1.6168,82.791
1.7331,82.351
1.8749,82.009
2.0323,81.667
2.1926,81.423
2.3431,81.13
2.4731,80.886
2.5787,80.544
2.6569,80.3
2.7097,80.007
2.7419,79.762
2.7556,79.469
2.7517,79.225
2.7361,78.981
2.7126,78.737
2.6804,78.444
2.6373,78.053
2.5875,77.467
2.5347,76.881
2.48,76.246
2.4262,75.757
2.3754,75.366
2.3275,75.366
2.2805,76.05
2.2405,78.199
2.2053,82.498
2.1672,89.189
2.129,97.2
2.0899,104.58
2.0547,109.8
2.0235,112.49
1.9922,113.17
1.9609,112.73
1.9286,111.8
1.8974,110.68
1.868,109.36
1.8387,108.09
1.8143,106.87
1.7928,105.5
1.7674,103.84
1.741,101.99
1.7146,99.935
1.6901,97.591
1.6696,95.197
1.652,92.95
1.6354,91.045
1.6168,89.531
1.5963,88.408
1.5748,87.48
1.5572,86.601
1.5386,85.721
1.5142,84.793
1.4888,83.816
1.4682,82.84
1.4604,82.009
1.4731,81.13
1.5132,80.3
1.5885,79.567
1.6989,78.981
1.8387,78.346
1.9971,77.76
2.1623,77.174
2.3021,76.734
2.4203,76.294
2.5337,75.757
2.6295,75.318
2.7019,74.976
2.7732,74.731
2.8358,74.341
2.8622,73.901
2.8661,73.657
2.8534,73.51
2.827,73.168
2.7908,72.778
2.7517,72.387
2.7077,71.947
2.6569,71.508
2.6012,70.97
2.5455,70.384
2.4907,69.945
2.437,69.798
2.3842,70.042
2.3343,71.166
2.2825,73.901
2.2278,79.03
2.175,86.308
2.1232,94.171
2.0792,100.81
2.0401,104.92
1.998,106.82
1.9541,106.97
1.9091,106.28
1.8651,105.16
1.824,103.79
1.7879,102.28
1.7537,100.72
1.7224,99.154
1.6931,97.591
1.6647,95.979
1.6422,94.171
1.6237,92.071
1.6002,89.824
1.5767,87.675
1.5543,85.917
1.5337,84.598
1.5142,83.719
1.4936,83.035
1.4731,82.351
1.4487,81.667
1.4203,80.886
1.39,80.055
1.3636,79.225
1.347,78.492
1.3441,77.76
1.3607,76.978
1.4047,76.294
1.4819,75.757
1.5914,75.22
1.7283,74.78
1.8817,74.438
2.0401,74.048
2.1916,73.657
2.3245,73.364
2.434,73.217
2.5112,73.12
2.5621,73.12
2.6002,73.12
2.6227,73.12
2.6305,73.168
2.6237,73.217
2.6041,73.315
2.5738,73.217
2.5347,73.12
2.4878,72.875
2.4379,72.533
2.3861,72.289
2.3353,72.24
2.2903,72.387
2.2493,72.68
2.2063,73.364
2.1632,74.878
2.1202,78.004
2.0762,83.377
2.0313,90.655
1.9883,98.323
1.9453,104.58
1.9032,108.48
1.8651,110.19
1.8299,110.39
1.8025,109.61
1.7801,108.39
1.7537,106.87
1.7273,105.26
1.7019,103.74
1.6784,102.23
1.6579,100.72
1.6393,99.105
1.6217,97.249
1.6051,95.295
1.5885,93.292
1.5728,91.485
1.5582,90.117
1.5484,89.092
1.5406,88.408
1.5298,87.822
1.5161,87.284
1.5024,86.747
1.4907,86.112
1.4819,85.428
1.479,84.696
1.4839,83.914
1.5054,83.182
1.5523,82.498
1.6295,81.863
1.7175,81.374
1.8201,80.935
1.9541,80.544
2.1065,80.104
2.2659,79.762
2.4213,79.421
2.5611,79.176
2.6794,78.932
2.7722,78.688
2.8387,78.492
2.8807,78.248
2.9022,78.053
2.9052,77.809
2.8944,77.564
2.8729,77.32
2.8436,76.929
2.8084,76.539
2.7683,76.197
2.7224,75.66
2.6774,75.22
2.6364,74.78
2.5963,74.487
2.5582,74.341
2.521,74.683
2.4858,75.904
2.4516,79.127
2.4184,84.598
2.3822,92.071
2.3441,99.74
2.306,105.8
2.2678,109.36
2.2307,110.68
2.1945,110.49
2.1593,109.56
2.1241,108.29
2.0899,106.87
2.0557,105.41
2.0254,103.94
2,102.47
1.9736,101.01
1.9472,99.349
1.9208,97.542
1.8954,95.49
1.8719,93.341
1.8495,91.436
1.828,89.873
1.8074,88.75
1.7889,87.919
1.7703,87.284
1.7507,86.698
1.7341,86.112
1.7195,85.477
1.7009,84.842
1.6813,84.256
1.6657,83.621
1.6657,82.986
1.6901,82.351
1.7458,81.814
1.8368,81.277
1.957,80.935
2.1017,80.544
2.26,80.3
2.3978,80.055
2.5171,79.762
2.6373,79.469
2.7429,79.176
2.828,78.883
2.8915,78.59
2.9335,78.444
2.956,78.297
2.9619,78.199
2.9511,78.004
2.9286,77.662
2.8954,77.32
2.8534,76.929
2.8094,76.49
2.7644,76.05
2.7165,75.464
2.6706,75.073
2.6246,74.683
2.5797,74.536
2.5386,74.878
2.5005,76.246
2.4653,79.469
2.4291,85.233
2.391,92.804
2.3539,100.57
2.3206,106.68
2.2903,110.39
2.2581,111.85
2.2239,111.85
2.1906,110.97
2.1593,109.8
2.13,108.43
2.1007,106.97
2.0733,105.6
2.0459,104.23
2.0186,102.82
1.9961,101.3
1.9756,99.495
1.957,97.493
1.9413,95.295
1.9257,93.097
1.9101,91.29
1.8935,89.971
1.8749,89.043
1.8524,88.31
1.8289,87.675
1.8035,87.138
1.7752,86.503
1.7458,85.868
1.7204,85.233
1.7058,84.598
1.7048,84.012
1.7253,83.377
1.7771,82.791
1.8631,82.253
1.9814,81.667
2.1261,81.228
2.2884,80.788
2.4545,80.495
2.6129,80.153
2.7527,80.007
2.8661,79.811
2.9511,79.616
3.0029,79.421
3.0293,79.127
3.042,78.786
3.042,78.492
3.0283,78.248
3.0039,78.053
2.9707,77.809
2.9286,77.467
2.8807,77.125
2.8299,76.636
2.7761,76.05
2.7224,75.464
2.6755,75.073
2.6325,74.731
2.5865,74.878
2.5425,75.855
2.5015,78.688
2.4614,83.914
2.4194,91.241
2.3773,99.251
2.3363,105.85
2.2952,110.05
2.2551,111.85
2.2151,112
2.1271,111.22
2.0225,110.05
1.958,108.68
1.9101,107.31
1.87,105.94
1.8348,104.58
1.8065,103.11
1.784,101.5
1.7634,99.544
1.7429,97.346
1.7214,94.904
1.6999,92.511
1.6764,90.41
1.6569,88.75
1.6403,87.529
1.6217,86.552
1.6012,85.624
1.5777,84.793
1.5494,84.012
1.5191,83.133
1.4907,82.253
1.4712,81.374
1.4663,80.544
1.4858,79.762
1.5396,78.932
1.6315,78.248
1.7361,77.613
1.8553,76.978
2.0108,76.49
2.1799,76.001
2.346,75.464
2.4976,75.122
2.6246,74.731
2.7214,74.487
2.7889,74.243
2.8338,73.999
2.8592,73.803
2.8651,73.51
2.8543,73.168
2.8328,72.778
2.8025,72.436
2.7615,71.996
2.7097,71.508
2.652,70.97
2.5875,70.482
2.52,69.847
2.4555,69.359
2.393,68.968
2.3333,68.724
2.2766,68.87
2.2209,69.798
2.173,72.24
2.13,76.978
2.0821,84.061
2.0313,92.071
1.9804,99.056
1.9316,103.6
1.8856,105.8
1.8426,106.24
1.8025,105.6
1.7605,104.58
1.7175,103.16
1.6774,101.69
1.6452,100.23
1.6178,98.763
1.5885,97.297
1.5572,95.783
1.5279,93.976
1.5015,91.925
1.4751,89.678
1.4477,87.382
1.4203,85.379
1.391,83.865
1.3568,82.84
1.3206,82.156
1.2825,81.618
1.2502,81.032
1.2199,80.495
1.1857,79.811
1.1544,79.127
1.129,78.346
1.1173,77.613
1.129,76.929
1.173,76.294
1.2532,75.757
1.3695,75.22
1.5161,74.78
1.6813,74.341
1.8309,74.048
1.9668,73.852
2.1065,73.755
2.2346,73.608
2.3412,73.608
2.4203,73.657
2.4731,73.755
2.5034,73.852
2.5142,74.048
2.5093,74.243
2.4917,74.341
2.4643,74.438
2.4311,74.438
2.393,74.341
2.347,74.243
2.2952,73.999
2.2385,73.852
2.1818,73.803
2.1261,73.852
2.0714,74.097
2.0205,74.731
1.9736,76.441
1.9286,79.86
1.8847,85.575
1.8426,92.853
1.8074,100.18
1.7761,105.8
1.7419,109.07
1.7058,110.19
1.6706,109.95
1.6354,108.92
1.6002,107.51
1.566,105.85
1.5357,104.23
1.5093,102.62
1.4858,101.01
1.4673,99.447
1.4575,97.737
1.4526,95.93
1.4477,93.976
1.4418,92.071
1.437,90.362
1.4311,89.092
1.4262,88.261
1.4203,87.529
1.4154,86.991
1.4096,86.405
1.4047,85.868
1.3959,85.184
1.3861,84.5
1.3832,83.816
1.3871,83.133
1.4027,82.498
1.4399,81.863
1.5064,81.374
1.6061,80.886
1.737,80.446
1.8915,80.007
2.0596,79.616
2.2278,79.323
2.3851,78.932
2.523,78.59
2.6246,78.248
2.696,78.004
2.7517,77.662
2.7889,77.467
2.8094,77.32
2.8113,77.027
2.7977,76.881
2.7713,76.539
2.7341,76.197
2.6882,75.806
2.6383,75.415
2.5846,74.927
2.5308,74.487
2.4839,74.048
2.4399,73.657
2.3939,73.413
2.347,73.51
2.3021,74.097
2.2581,76.099
2.2141,80.3
2.172,86.796
2.132,94.66
2.0929,101.89
2.0547,106.87
2.0166,109.41
1.9834,110.09
1.955,109.66
1.9247,108.53
1.8915,107.12
1.8563,105.55
1.8211,103.99
1.7879,102.47
1.7537,101.01
1.7204,99.544
1.6882,97.981
1.6588,96.223
1.6334,94.367
1.61,92.413
1.5914,90.655
1.5748,89.287
1.5562,88.31
1.5357,87.48
1.5152,86.845
1.4936,86.259
1.4712,85.575
1.4457,84.94
1.4223,84.256
1.4037,83.621
1.3969,82.986
1.4115,82.302
1.4418,81.716
1.4976,81.179
1.5924,80.69
1.7204,80.251
1.8749,79.86
2.043,79.567
2.2111,79.225
2.3685,78.981
2.5064,78.688
2.6207,78.346
2.7058,78.053
2.7634,77.809
2.7996,77.564
2.8133,77.223
2.8094,76.978
2.7937,76.734
2.7654,76.539
2.7253,76.294
2.6784,76.001
2.6266,75.611
2.5718,75.122
2.5181,74.634
2.4653,74.048
2.4145,73.608
2.3646,73.364
2.3206,73.364
2.2805,74.194
2.2395,76.49
2.1975,81.13
2.1554,88.066
2.1153,96.125
2.0762,103.31
2.0371,108.19
1.9971,110.63
1.9589,111.12
1.9228,110.63
1.8856,109.56
1.8495,108.24
1.8192,106.87
1.7937,105.55
1.7674,104.28
1.74,103.01
1.7136,101.55
1.6862,99.886
1.6588,97.981
1.6334,95.93
1.61,93.732
1.5855,91.778
1.5601,90.166
1.5327,89.043
1.5093,88.261
1.4897,87.675
1.4663,87.138
1.4409,86.552
1.4145,85.917
1.39,85.233
1.3773,84.5
1.3783,83.816
1.3988,83.133
1.4477,82.498
1.5298,81.912
1.6442,81.374
1.7889,80.935
1.9316,80.544
2.0733,80.251
2.2317,79.909
2.3851,79.616
2.52,79.323
2.6315,78.932
2.7165,78.59
2.7752,78.297
2.8113,78.053
2.828,77.809
2.827,77.613
2.8113,77.369
2.7879,77.125
2.7566,76.881
2.7155,76.539
2.6686,76.197
2.6158,75.66
2.5591,75.122
2.5024,74.536
2.4467,74.048
2.391,73.755
2.3372,73.657
2.2854,74.097
2.2356,75.806
2.1896,79.567
2.1505,85.721
2.1163,93.634
2.0811,101.3
2.045,107.07
2.0088,110.29
1.9756,111.36
1.9404,111.17
1.9042,110.24
1.869,109.07
1.8338,107.75
1.8016,106.38
1.7722,105.01
1.7488,103.7
1.7273,102.28
1.7038,100.72
1.6784,99.007
1.654,96.907
1.6295,94.758
1.6061,92.56
1.5816,90.655
1.5582,89.238
1.5337,88.164
1.5083,87.284
1.4829,86.503
1.4624,85.673
1.4438,84.94
1.4213,84.061
1.3978,83.182
1.3822,82.302
1.3851,81.423
1.4145,80.593
1.477,79.811
1.5748,78.981
1.7038,78.297
1.8602,77.662
2.0313,77.027
2.2033,76.539
2.346,76.099
2.4624,75.757
2.5709,75.366
2.6628,74.927
2.7341,74.536
2.783,74.097
2.8123,73.755
2.825,73.364
2.8221,73.071
2.8055,72.729
2.7752,72.485
2.7341,72.094
2.6882,71.752
2.6383,71.361
2.5816,70.873
2.523,70.238
2.4643,69.603
2.4057,69.066
2.349,68.626
2.2942,68.479
2.2405,68.724
2.1877,69.994
2.1378,72.973
2.088,78.444
2.0362,85.819
1.9902,93.634
1.9472,99.935
1.8993,103.7
1.8504,105.11
1.8025,105.06
1.7546,104.23
1.7077,103.06
1.6647,101.69
1.6246,100.23
1.5865,98.763
1.5474,97.346
1.5093,95.93
1.479,94.367
1.4526,92.657
1.4203,90.752
1.3871,88.506
1.3539,86.308
1.3245,84.5
1.2991,83.182
1.2727,82.302
1.2454,81.667
1.217,81.032
1.1867,80.446
1.1544,79.811
1.1212,79.03
1.0968,78.297
1.0821,77.467
1.0762,76.734
1.089,76.001
1.13,75.318
1.2063,74.731
1.3187,74.243
1.4604,73.755
1.6227,73.364
1.7928,72.973
1.9589,72.729
2.1095,72.436
2.2248,72.192
2.3118,71.947
2.3851,71.752
2.4379,71.557
2.4702,71.361
2.4829,71.312
2.478,71.166
2.4585,71.117
2.4272,71.068
2.3851,70.922
2.3343,70.824
2.2786,70.629
2.2199,70.384
2.1701,70.091
2.1232,69.847
2.0733,69.798
2.0264,69.847
1.9785,70.189
1.9306,70.97
1.8827,72.875
1.8358,76.685
1.7908,82.937
1.7488,90.801
1.7067,98.567
1.6657,104.38
1.6344,107.7
1.608,108.82
1.5767,108.63
1.5425,107.7
1.5093,106.38
1.4761,104.87
1.4438,103.26
1.4115,101.74
1.3812,100.33
1.3529,98.909
1.3265,97.346
1.303,95.734
1.2815,93.927
1.2688,92.12
1.261,90.508
1.2512,89.189
1.2405,88.164
1.2268,87.48
1.2121,86.845
1.1955,86.259
1.176,85.575
1.1574,84.842
1.1408,84.256
1.132,83.572
1.1349,82.84
1.1515,82.253
1.1877,81.618
1.2561,81.13
1.3607,80.593
1.4995,80.153
1.6667,79.811
1.8524,79.421
2.0401,79.127
2.218,78.737
2.3773,78.492
2.5112,78.248
2.6168,78.004
2.6931,77.76
2.738,77.467
2.7605,77.223
2.7703,76.978
2.7674,76.685
2.7517,76.441
2.7224,76.197
2.6833,75.855
2.6393,75.464
2.5914,75.073
2.5435,74.634
2.4976,74.097
2.4516,73.608
2.4086,73.217
2.3675,72.924
2.3245,72.924
2.2815,73.413
2.2385,75.122
2.1965,78.883
2.1554,85.135
2.1134,92.804
2.0684,100.18
2.0235,105.6
1.9795,108.53
1.9365,109.41
1.8954,108.97
1.8612,107.85
1.8338,106.48
1.8074,104.92
1.784,103.35
1.7615,101.89
1.7361,100.47
1.7107,99.056
1.6843,97.542
1.6598,95.783
1.6364,93.781
1.6149,91.729
1.5934,89.824
1.5758,88.164
1.5601,86.991
1.5415,86.161
1.52,85.673
1.4966,85.184
1.4712,84.696
1.4438,84.158
1.4154,83.572
1.392,82.84
1.3803,82.253
1.3881,81.618
1.4223,80.984
1.4917,80.446
1.5777,79.909
1.6813,79.421
1.8211,78.981
1.9834,78.59
2.1535,78.297
2.3167,78.053
2.4624,77.76
2.5826,77.467
2.6745,77.174
2.739,76.929
2.7801,76.636
2.7977,76.343
2.8045,76.197
2.8025,75.904
2.7859,75.757
2.7576,75.611
2.7185,75.415
2.6725,75.122
2.6217,74.731
2.566,74.292
2.5093,73.755
2.4526,73.217
2.3969,72.729
2.3431,72.436
2.2903,72.289
2.2434,72.778
2.2023,74.487
2.1642,78.248
2.1261,84.403
2.088,92.315
2.0499,100.03
2.0137,105.85
1.9775,109.12
1.9413,110.09
1.9052,109.85
1.87,108.87
1.8387,107.6
1.8123,106.24
1.7869,104.87
1.7576,103.5
1.7292,102.18
1.7009,100.81
1.6735,99.349
1.6481,97.737
1.6217,95.783
1.5973,93.683
1.5748,91.729
1.5543,90.117
1.5347,88.847
1.52,87.968
1.5064,87.236
1.4858,86.601
1.4633,85.966
1.4379,85.233
1.4106,84.549
1.3861,83.816
1.3715,83.133
1.3724,82.498
1.3959,81.863
1.4526,81.277
1.5474,80.886
1.6784,80.349
1.8133,80.007
1.9541,79.616
2.1173,79.225
2.2835,78.883
2.437,78.492
2.5679,78.199
2.6725,77.858
2.7498,77.613
2.8016,77.418
2.8299,77.223
2.8377,77.027
2.8299,76.881
2.8113,76.636
2.784,76.343
2.7458,76.05
2.6979,75.66
2.6442,75.318
2.5865,74.878
2.5279,74.341
2.4692,73.852
2.4125,73.413
2.3607,73.12
2.3148,72.924
2.2698,73.217
2.2248,74.487
2.1857,77.564
2.1476,83.133
2.1065,90.655
2.0665,98.47
2.0274,104.87
1.9863,108.73
1.9453,110.29
1.9052,110.29
1.8671,109.51
1.8319,108.29
1.7986,106.87
1.7674,105.5
1.7429,104.04
1.7214,102.67
1.6989,101.35
1.6774,99.886
1.6559,98.225
1.6354,96.321
1.6149,94.171
1.5924,91.973
1.5679,89.971
1.5445,88.31
1.5239,86.991
1.5024,85.966
1.479,85.135
1.4594,84.354
1.4418,83.572
1.4194,82.742
1.3949,82.009
1.3763,81.179
1.3705,80.349
1.3871,79.567
1.436,78.737
1.522,78.004
1.6442,77.32
1.7967,76.636
1.9707,76.001
2.129,75.464
2.2717,75.073
2.4194,74.683
2.5543,74.292
2.6657,73.999
2.7507,73.608
2.8074,73.217
2.8407,72.875
2.8543,72.485
2.8514,72.045
2.8338,71.654
2.8045,71.361
2.7634,71.117
2.7185,70.824
2.6706,70.482
2.6149,70.189
2.5562,69.749
2.4936,69.261
2.4301,68.626
2.3685,68.04
2.3109,67.503
2.2542,67.161
2.1984,67.258
2.1437,68.04
2.089,70.384
2.042,74.976
1.999,82.009
1.9521,89.971
1.9042,97.053
1.8573,101.79
1.8104,103.99
1.7634,104.38
1.7175,103.7
1.6735,102.47
1.6305,101.06
1.5885,99.495
1.5484,97.932
1.5103,96.467
1.479,95.099
1.4516,93.683
1.4203,92.12
1.3871,90.215
1.3548,88.115
1.3245,85.966
1.2981,84.061
1.2727,82.547
1.2473,81.57
1.2219,80.788
1.1955,80.153
1.1672,79.469
1.1427,78.786
1.1202,78.004
1.0919,77.223
1.0665,76.441
1.0508,75.66
1.0528,74.927
1.0831,74.243
1.1476,73.559
1.2493,72.924
1.3881,72.387
1.5533,71.947
1.7331,71.508
1.911,71.068
2.0567,70.726
2.1769,70.433
2.2893,70.189
2.3803,69.945
2.4448,69.749
2.4848,69.603
2.5054,69.505
2.5093,69.505
2.4976,69.554
2.4741,69.603
2.4389,69.603
2.3949,69.652
2.3509,69.749
2.304,69.652
2.2512,69.554
2.1965,69.505
2.1398,69.407
2.0841,69.554
2.0303,69.798
1.9775,70.287
1.9257,71.215
1.8749,73.168
1.827,76.929
1.7791,82.84
1.7331,90.41
1.696,97.884
1.6628,103.55
1.6256,106.82
1.5865,108.04
1.5474,107.85
1.5093,106.92
1.4721,105.7
1.437,104.18
1.4037,102.67
1.3724,101.16
1.3441,99.74
1.3167,98.323
1.2972,96.76
1.2815,95.051
1.263,93.292
1.2454,91.485
1.2297,89.824
1.218,88.408
1.2092,87.431
1.2023,86.796
1.1965,86.259
1.1887,85.624
1.1789,84.989
1.1691,84.256
1.1593,83.475
1.1574,82.742
1.1652,82.058
1.1848,81.472
1.2229,80.935
1.2903,80.446
1.393,80.055
1.5288,79.616
1.6921,79.176
1.8749,78.737
2.0635,78.346
2.2454,78.004
2.4086,77.662
2.5318,77.369
2.6227,77.125
2.6979,76.783
2.7507,76.636
2.783,76.343
2.7937,76.197
2.7859,76.001
2.7644,75.757
2.7331,75.464
2.6931,75.171
2.6442,74.878
2.5885,74.536
2.5308,74.194
2.479,73.755
2.4311,73.217
2.3832,72.729
2.3392,72.387
2.2962,72.094
2.2532,72.24
2.2219,72.973
2.1965,75.22
2.1623,79.811
2.1232,86.552
2.0831,94.367
2.042,101.3
2.0049,105.99
1.9697,108.29
1.9306,108.73
1.8944,108.09
1.8592,106.92
1.824,105.5
1.7908,103.99
1.7595,102.57
1.7283,101.11
1.6979,99.789
1.6686,98.47
1.6403,97.053
1.6188,95.344
1.6031,93.536
1.5865,91.68
1.5689,90.069
1.5523,88.75
1.5327,87.724
1.5103,87.04
1.4868,86.405
1.4614,85.819
1.433,85.184
1.4027,84.5
1.3734,83.816
1.3509,83.133
1.3402,82.449
1.346,81.863
1.3734,81.277
1.4311,80.739
1.52,80.251
1.6413,79.811
1.7849,79.469
1.9404,79.176
2.0978,78.883
2.2424,78.541
2.3666,78.297
2.4663,78.004
2.5327,77.76
2.5748,77.467
2.6031,77.223
2.6158,77.027
2.6149,76.881
2.6012,76.685
2.5758,76.49
2.5435,76.294
2.5064,76.05
2.4633,75.66
2.4154,75.318
2.3666,74.878
2.3177,74.292
2.2737,73.803
2.2336,73.413
2.1906,73.168
2.1476,73.168
2.1046,73.755
2.0635,75.611
2.0235,79.616
1.9824,86.063
1.9423,93.927
1.9052,101.45
1.869,106.82
1.8338,109.66
1.8035,110.53
1.7781,110.29
1.7507,109.41
1.7234,108.29
1.696,107.12
1.6676,105.85
1.6383,104.62
1.61,103.45
1.5836,102.18
1.5582,100.67
1.5327,99.007
1.5083,97.053
1.4829,95.002
1.4633,93.048
1.4477,91.436
1.4301,90.215
1.4115,89.287
1.392,88.506
1.3695,87.822
1.3441,87.138
1.3177,86.405
1.2933,85.721
1.2737,85.038
1.2639,84.354
1.2688,83.67
1.2884,83.133
1.3304,82.595
1.4027,82.107
1.5054,81.667
1.6364,81.277
1.7849,80.935
1.9404,80.544
2.0909,80.251
2.2268,79.909
2.3431,79.616
2.434,79.323
2.4985,79.03
2.5406,78.786
2.563,78.541
2.5679,78.248
2.5601,78.004
2.5425,77.76
2.5171,77.467
2.4829,77.125
2.4418,76.734
2.3939,76.343
2.3412,75.855
2.2874,75.415
2.2375,74.927
2.1906,74.438
2.1496,74.097
2.1114,73.999
2.0723,74.341
2.0323,75.855
1.9932,79.421
1.955,85.575
1.9189,93.341
1.8807,101.16
1.8407,107.07
1.8025,110.39
1.7674,111.56
1.7351,111.36
1.7038,110.63
1.6784,109.56
1.6559,108.39
1.6315,107.12
1.607,105.85
1.5816,104.67
1.5572,103.35
1.5327,101.89
1.5083,100.13
1.4829,98.03
1.4594,95.783
1.4379,93.536
1.4174,91.534
1.4027,89.922
1.39,88.799
1.3724,87.968
1.35,87.382
1.3255,86.747
1.2991,86.112
1.2717,85.428
1.2444,84.745
1.2219,84.11
1.2141,83.475
1.2317,82.791
1.2796,82.156
1.3607,81.57
1.4545,81.032
1.5611,80.593
1.696,80.153
1.8436,79.86
1.9892,79.567
2.1241,79.323
2.2385,78.981
2.3275,78.737
2.392,78.541
2.437,78.297
2.4643,78.053
2.4751,77.809
2.4731,77.564
2.4604,77.369
2.435,77.125
2.3988,76.881
2.3548,76.539
2.305,76.246
2.2512,75.806
2.1975,75.318
2.1437,74.731
2.0909,74.194
2.0391,73.803
1.9902,73.559
1.9462,73.657
1.912,74.683
1.8827,77.369
1.8504,82.351
1.8172,89.531
1.782,97.493
1.7449,104.28
1.7067,108.68
1.6686,110.63
1.6334,110.88
1.6022,110.24
1.5748,109.12
1.5484,107.85
1.5279,106.53
1.5103,105.26
1.4907,103.99
1.4712,102.62
1.4516,101.16
1.4321,99.495
1.4106,97.444
1.3861,95.099
1.3597,92.657
1.3324,90.508
1.3069,88.75
1.2815,87.382
1.2561,86.356
1.2375,85.477
1.2219,84.696
1.2023,83.914
1.1789,83.035
1.1544,82.253
1.1349,81.423
1.1251,80.593
1.131,79.762
1.1603,78.981
1.219,78.248
1.3089,77.613
1.4252,76.978
1.5435,76.49
1.6628,76.099
1.7967,75.757
1.9296,75.415
2.0489,75.171
2.1476,74.878
2.2248,74.634
2.2805,74.292
2.3157,73.999
2.3333,73.657
2.3372,73.364
2.3275,72.973
2.3089,72.68
2.2825,72.387
2.2463,72.045
2.2023,71.654
2.1535,71.215
2.1026,70.726
2.0528,70.189
2.0029,69.554
1.955,68.968
1.9091,68.528
1.8622,68.382
1.8152,68.528
1.7703,69.554
1.7331,72.094
1.6989,76.929
1.6618,84.012
1.6246,91.778
1.5885,98.372
1.5523,102.57
1.5152,104.43
1.4809,104.62
1.4477,103.99
1.4145,102.87
1.3832,101.55
1.3529,100.18
1.3294,98.812
1.3196,97.493
1.3118,96.174
1.2933,94.758
1.2698,93.097
1.2444,91.241
1.217,89.189
1.1906,87.04
1.1662,85.233
1.1437,83.816
1.1232,82.791
1.1017,82.107
1.0792,81.57
1.0635,80.935
1.0489,80.251
1.0244,79.567
0.99707,78.786
0.97165,78.102
0.95503,77.369
0.95503,76.636
0.98045,76.001
1.0391,75.366
1.1349,74.78
1.263,74.438
1.4135,74.097
1.5552,73.901
1.6891,73.755
1.8289,73.657
1.9599,73.608
2.0704,73.608
2.1554,73.657
2.2151,73.755
2.2502,73.852
2.2649,74.048
2.2639,74.292
2.2483,74.536
2.2199,74.731
2.1848,74.927
2.1486,75.122
2.1095,75.171
2.0616,75.122
2.0088,74.927
1.9511,74.78
1.8935,74.683
1.8407,74.683
1.7918,74.878
1.7458,75.318
1.7028,76.294
1.6618,78.737
1.6217,83.182
1.5885,89.678
1.5591,97.004
1.5259,103.31
1.4927,107.51
1.4594,109.41
1.4252,109.66
1.391,108.97
1.3587,107.85
1.3284,106.48
1.2991,105.06
1.2698,103.55
1.2444,102.13
1.2248,100.62
1.2151,99.056
1.2111,97.297
1.2082,95.441
1.2053,93.488
1.2033,91.729
1.2043,90.313
1.2043,89.238
1.2033,88.506
1.1994,87.871
1.1945,87.284
1.1867,86.601
1.174,85.917
1.1652,85.184
1.1593,84.5
1.1554,83.816
1.1584,83.133
1.176,82.498
1.217,81.863
1.2854,81.374
1.3812,80.886
1.5015,80.446
1.6403,80.104
1.7928,79.86
1.9453,79.567
2.085,79.323
2.1945,78.981
2.2786,78.737
2.349,78.492
2.3978,78.199
2.4272,77.906
2.437,77.662
2.4291,77.369
2.4076,77.125
2.3763,76.783
2.3402,76.636
2.2972,76.343
2.2522,76.05
2.2121,75.66
2.175,75.318
2.1359,74.78
2.0948,74.292
2.0567,73.852
2.0235,73.559
1.9912,73.608
1.958,74.292
1.9228,76.49
1.8866,80.984
1.8514,87.822
1.8172,95.734
1.783,102.91
1.7546,107.95
1.7292,110.44
1.7009,111.12
1.6735,110.68
1.6491,109.75
1.6266,108.53
1.6041,107.31
1.5787,106.04
1.5513,104.87
1.5249,103.7
1.5005,102.38
1.477,100.86
1.4594,99.056
1.4448,97.053
1.4262,94.855
1.4057,92.853
1.3842,91.29
1.3627,90.117
1.3412,89.189
1.3206,88.408
1.2991,87.724
1.2757,86.991
1.2502,86.308
1.2248,85.575
1.2033,84.94
1.1935,84.256
1.1984,83.621
1.2209,82.986
1.2688,82.351
1.347,81.863
1.4555,81.423
1.5875,81.032
1.7331,80.69
1.8807,80.349
2.0186,80.055
2.1378,79.762
2.2375,79.421
2.3069,79.127
2.3519,78.883
2.3832,78.59
2.3969,78.444
2.3949,78.248
2.3832,78.004
2.3646,77.809
2.3382,77.564
2.305,77.223
2.2669,76.929
2.2258,76.539
2.1818,76.099
2.1378,75.611
2.0968,75.122
2.0587,74.731
2.0186,74.438
1.9785,74.438
1.9384,74.927
1.9003,76.636
1.8641,80.3
1.8289,86.601
1.7947,94.611
1.7605,102.47
1.7273,108.43
1.694,111.85
1.6657,113.12
1.6432,113.17
1.6178,112.63
1.5914,111.8
1.564,110.83
1.5376,109.8
1.5142,108.73
1.4927,107.7
1.4702,106.43
1.4477,104.92
1.4252,103.11
1.4027,101.01
1.3803,98.567
1.3636,96.076
1.3509,93.732
1.3353,91.925
1.3196,90.606
1.303,89.727
1.2864,89.043
1.2678,88.408
1.2463,87.822
1.2239,87.187
1.2043,86.503
1.1906,85.868
1.1887,85.184
1.2033,84.549
1.2424,84.012
1.3118,83.426
1.4096,82.84
1.5337,82.351
1.6764,82.009
1.827,81.667
1.9756,81.423
2.1114,81.179
2.2239,80.935
2.3128,80.69
2.3783,80.446
2.4213,80.055
2.4457,79.762
2.4585,79.469
2.4604,79.225
2.4526,78.981
2.434,78.786
2.4086,78.541
2.3744,78.199
2.3314,77.858
2.2835,77.418
2.2307,76.978
2.1779,76.441
2.1261,75.904
2.0821,75.464
2.044,75.171
2.0059,75.171
1.9668,76.001
1.9267,78.297
1.8895,83.035
1.8563,90.215
1.8221,98.567
1.7879,105.94
1.7537,110.97
1.7195,113.51
1.6843,114.25
1.6559,114.05
1.6315,113.42
1.6022,112.63
1.5718,111.66
1.5435,110.73
1.5181,109.66
1.4946,108.53
1.4712,107.16
1.4487,105.5
1.4272,103.5
1.4096,101.25
1.3949,98.812
1.3851,96.418
1.3822,94.367
1.3822,92.755
1.3783,91.485
1.3705,90.508
1.3597,89.678
1.346,88.847
1.3294,88.066
1.3695,87.284
1.4418,86.552
1.478,85.819
1.5103,85.038
1.5572,84.305
1.6178,83.621
1.7028,82.937
1.826,82.302
1.9785,81.667
2.1466,81.032
2.3177,80.495
2.4809,79.909
2.6217,79.372
2.7341,78.932
2.8231,78.492
2.8895,78.053
2.9345,77.662
2.9609,77.32
2.9707,76.929
2.9668,76.539
2.9521,76.197
2.9257,75.806
2.8876,75.366
2.8416,74.927
2.7898,74.438
2.7341,73.901
2.6774,73.364
2.6217,72.778
2.5679,72.24
2.5152,71.801
2.4692,71.557
2.4291,71.508
2.3871,72.094
2.3431,74.048
2.2981,78.199
2.2551,84.793
2.2141,92.95
2.174,100.57
2.1349,106.04
2.0958,108.97
2.0567,110
2.0176,109.8
1.9804,109.12
1.9521,108.24
1.9286,107.26
1.9003,106.14
1.87,104.92
1.8387,103.7
1.8084,102.23
1.7801,100.62
1.7537,98.616
1.7273,96.369
1.7009,93.878
1.6755,91.436
1.6461,89.287
1.6217,87.724
1.6012,86.601
1.5767,85.819
1.5513,85.038
1.5239,84.305
1.4966,83.475
1.4692,82.595
1.4457,81.814
1.4311,80.984
1.4321,80.153
1.4585,79.421
1.5152,78.737
1.6051,78.199
1.7077,77.613
1.826,77.125
1.9717,76.685
2.13,76.294
2.2884,76.001
2.4301,75.66
2.5464,75.318
2.6373,74.976
2.6999,74.683
2.7361,74.438
2.7507,74.194
2.7507,73.901
2.741,73.657
2.7234,73.51
2.695,73.217
2.6559,73.071
2.6109,72.778
2.5611,72.485
2.5054,72.094
2.4467,71.752
2.3891,71.312
2.3314,70.922
2.2747,70.677
2.2239,70.531
2.1789,70.824
2.1437,71.41
2.1134,73.168
2.0782,76.881
2.0411,83.182
2.0049,91.436
1.9707,99.691
1.9374,105.99
1.9052,109.66
1.8729,111.17
1.8397,111.41
1.8094,111.07
1.781,110.44
1.7605,109.61
1.7439,108.68
1.7195,107.75
1.6911,106.72
1.6637,105.6
1.6373,104.28
1.6109,102.67
1.5865,100.67
1.565,98.421
1.5445,96.223
1.5239,94.318
1.5044,92.804
1.4858,91.729
1.4751,90.948
1.4673,90.215
1.4536,89.482
1.433,88.75
1.4086,87.968
1.3871,87.236
1.3744,86.503
1.3763,85.819
1.3998,85.135
1.4555,84.5
1.5455,83.914
1.6686,83.377
1.7967,82.84
1.9335,82.351
2.0968,82.009
2.2659,81.618
2.4242,81.374
2.563,81.13
2.6764,80.788
2.7615,80.495
2.8221,80.153
2.8602,79.86
2.8798,79.567
2.8827,79.323
2.87,79.03
2.8475,78.786
2.8201,78.59
2.7849,78.346
2.7449,78.053
2.6989,77.76
2.65,77.32
2.6031,76.783
2.5591,76.294
2.5161,75.855
2.4731,75.464
2.4321,75.366
2.393,75.66
2.3607,77.125
2.3314,80.495
2.2972,86.356
2.262,94.22
2.2268,102.28
2.1935,108.63
2.1642,112.39
2.1359,113.9
2.1095,114.05
2.0831,113.56
2.0567,112.68
2.0323,111.76
2.0137,110.68
1.998,109.61
1.9804,108.43
1.9619,107.12
1.9433,105.55
1.9238,103.7
1.9042,101.5
1.8847,99.056
1.8661,96.614
1.8436,94.416
1.8162,92.755
1.7879,91.436
1.7605,90.508
1.741,89.727
1.7243,89.043
1.7028,88.31
1.6813,87.626
1.6618,86.845
1.6471,86.259
1.6432,85.575
1.6608,84.842
1.7067,84.305
1.7849,83.719
1.8944,83.23
2.0303,82.791
2.1632,82.351
2.2933,82.009
2.4389,81.667
2.5816,81.374
2.7077,81.13
2.8113,80.788
2.8895,80.495
2.9413,80.153
2.9707,79.86
2.9814,79.567
2.9795,79.323
2.9648,79.03
2.9404,78.786
2.912,78.541
2.8778,78.297
2.8348,78.004
2.7859,77.662
2.7322,77.223
2.6804,76.783
2.6315,76.246
2.5855,75.757
2.5415,75.366
2.4985,75.122
2.4585,75.171
2.4184,75.855
2.3861,77.906
2.3587,82.351
2.3284,89.434
2.2972,97.884
2.2659,105.6
2.2336,111.12
2.2033,113.9
2.175,114.88
2.1476,114.73
2.1212,114.2
2.0948,113.42
2.0694,112.54
2.045,111.61
2.0264,110.63
2.0088,109.51
1.9892,108.19
1.9697,106.53
1.9501,104.62
1.9306,102.23
1.911,99.74
1.8915,97.297
1.8719,95.197
1.8514,93.536
1.828,92.315
1.8045,91.241
1.7889,90.362
1.7742,89.531
1.7537,88.799
1.7322,88.066
1.7136,87.284
1.7009,86.552
1.7028,85.917
1.7263,85.233
1.7801,84.696
1.87,84.11
1.9922,83.67
2.1388,83.23
2.2991,82.84
2.4418,82.547
2.5337,82.302
2.61,82.009
2.6979,81.667
2.7761,81.374
2.8368,81.032
2.8768,80.69
2.9003,80.3
2.9091,80.007
2.9032,79.665
2.8847,79.372
2.8563,79.127
2.825,78.883
2.7889,78.59
2.7429,78.297
2.694,77.858
2.6422,77.467
2.5846,76.978
2.5249,76.49
2.4663,76.001
2.4086,75.611
2.3558,75.366
2.3089,75.415
2.2669,76.099
2.2287,78.346
2.1975,83.035
2.1701,90.313
2.1388,98.812
2.1065,106.48
2.0723,111.8
2.0401,114.54
2.0108,115.42
1.9814,115.32
1.9531,114.73
1.9257,114.05
1.8993,113.22
1.8759,112.39
1.8573,111.41
1.8416,110.39
1.8231,109.07
1.8035,107.36
1.783,105.36
1.7625,103.01
1.7419,100.33
1.7214,97.688
1.7009,95.295
1.6804,93.439
1.6598,92.071
1.6354,90.997
1.608,90.166
1.5875,89.434
1.5699,88.75
1.5494,88.066
1.5308,87.382
1.5181,86.601
1.52,85.917
1.5455,85.282
1.6012,84.598
1.6931,84.061
1.8192,83.572
1.9756,83.133
2.1496,82.742
2.306,82.449
2.4448,82.156
2.5826,81.863
2.7019,81.57
2.7957,81.277
2.8671,81.032
2.9159,80.739
2.9423,80.349
2.9501,80.055
2.9423,79.762
2.9208,79.469
2.8915,79.176
2.8524,78.932
2.8104,78.688
2.7634,78.346
2.7077,78.053
2.6491,77.76
2.5728,77.223
2.5034,76.734
2.4555,76.246
2.4057,75.757
2.3578,75.366
2.3138,75.22
2.2708,75.562
2.2307,76.929
2.1984,80.3
2.1691,86.259
2.1329,94.171
2.0929,102.28
2.0518,108.63
2.0147,112.29
1.9804,113.81
1.9472,113.9
1.9159,113.42
1.8866,112.68
1.8573,111.8
1.8289,110.88
1.8016,109.8
1.7791,108.53
1.7605,107.16
1.739,105.41
1.7165,103.35
1.695,101.01
1.6725,98.421
1.6491,95.734
1.6266,93.243
1.6051,91.241
1.5826,89.678
1.5572,88.554
1.5308,87.626
1.5112,86.747
1.4946,85.868
1.4721,84.989
1.4506,84.11
1.434,83.279
1.4291,82.498
1.4477,81.716
1.4956,81.032
1.5758,80.446
1.6901,79.811
1.8319,79.323
1.9922,78.883
2.1613,78.492
2.3099,78.102
2.4399,77.809
2.567,77.418
2.6745,76.978
2.7576,76.539
2.8152,76.197
2.8495,75.757
2.8631,75.318
2.8612,74.878
2.8465,74.487
2.8182,74.097
2.7781,73.803
2.7341,73.51
2.6862,73.168
2.6315,72.924
2.5689,72.631
2.5054,72.24
2.4457,71.752
2.392,71.215
2.3441,70.677
2.3001,70.091
2.259,69.652
2.2199,69.407
2.1808,69.505
2.1476,70.189
2.1144,72.24
2.0753,76.539
2.0362,83.475
2.001,91.876
1.9677,99.544
1.9365,104.87
1.9071,107.55
1.8788,108.39
1.8485,108.24
1.8162,107.7
1.783,106.87
1.7488,105.94
1.7214,104.82
1.6989,103.7
1.6755,102.43
1.654,101.01
1.6325,99.447
1.6119,97.493
1.5914,95.295
1.5718,92.999
1.5523,90.801
1.5318,88.847
1.5132,87.48
1.4936,86.405
1.479,85.575
1.4643,84.745
1.4428,84.012
1.4184,83.182
1.393,82.449
1.3675,81.716
1.35,81.13
1.346,80.495
1.3636,80.007
1.4135,79.616
1.5034,79.323
1.6295,79.03
1.784,78.883
1.9355,78.737
2.0831,78.59
2.2454,78.541
2.3988,78.492
2.5288,78.492
2.6315,78.492
2.7067,78.444
2.7586,78.444
2.7879,78.444
2.7977,78.444
2.7918,78.492
2.7752,78.541
2.7537,78.59
2.7234,78.688
2.6843,78.688
2.6403,78.541
2.5904,78.248
2.5347,77.906
2.478,77.467
2.4252,77.027
2.3666,76.636
2.3148,76.246
2.2786,76.001
2.2414,75.904
2.2053,76.246
2.176,77.564
2.1486,80.69
2.1183,86.259
2.085,93.781
2.0538,101.55
2.0254,107.75
2.0029,111.51
1.9853,113.12
1.9687,113.32
1.9541,112.88
1.9394,112.1
1.9257,111.12
1.915,110.05
1.9042,108.87
1.8886,107.6
1.8729,106.24
1.8583,104.62
1.8436,102.82
1.8309,100.67
1.8192,98.372
1.8065,96.174
1.7947,94.22
1.7859,92.755
1.7781,91.534
1.7703,90.606
1.7654,89.727
1.7595,88.994
1.7478,88.261
1.7312,87.431
1.7126,86.601
1.696,85.819
1.6901,85.038
1.7038,84.403
1.7458,83.865
1.8201,83.377
1.9296,82.986
2.0704,82.595
2.2111,82.253
2.3519,81.863
2.5103,81.57
2.6657,81.179
2.8035,80.886
2.9159,80.544
3.001,80.153
3.0606,79.811
3.0479,79.421
2.9902,79.127
2.9521,78.786
2.9189,78.541
2.8827,78.297
2.8446,78.102
2.8006,77.858
2.7458,77.564
2.6872,77.223
2.6256,76.783
2.563,76.343
1.8338,111.76
1.8133,110.09
1.7918,108.09
1.7742,105.8
1.7595,103.16
1.7439,100.42
1.7302,97.737
1.7175,95.344
1.7019,93.488
1.6852,92.071
1.6667,90.948
1.6442,89.971
1.6188,89.092
1.5934,88.31
1.5718,87.626
1.5591,87.04
1.5621,86.503
1.5816,85.917
1.6256,85.379
1.6979,84.793
1.7977,84.305
1.9218,83.816
2.0645,83.377
2.2141,82.986
2.3587,82.595
2.4868,82.302
2.5914,81.912
2.6735,81.618
2.7263,81.374
2.7586,81.13
2.782,80.788
2.7937,80.495
2.7947,80.104
2.7849,79.762
2.7644,79.323
2.7341,78.932
2.695,78.59
2.6491,78.297
2.5973,78.053
2.5435,77.809
2.4936,77.564
2.4448,77.369
2.3949,77.027
2.3451,76.685
2.2962,76.246
2.2522,75.66
2.2121,75.122
2.175,74.536
2.1388,74.194
2.1017,74.097
2.0645,74.731
2.0264,76.783
1.9902,81.374
1.9619,88.701
1.9355,97.591
1.9081,105.94
1.8827,112
1.8553,115.47
1.827,116.98
1.8016,117.47
1.7791,117.47
1.7595,117.18
1.741,116.74
1.7224,116.2
1.7048,115.42
1.6901,114.34
1.6764,112.98
1.6608,111.17
1.6413,108.97
1.6188,106.43
1.5963,103.55
1.5728,100.57
1.5494,97.688
1.5259,95.197
1.5024,93.195
1.479,91.778
1.4545,90.801
1.4282,89.922
1.4076,89.238
1.393,88.554
1.3783,87.919
1.3695,87.236
1.3754,86.601
1.4008,86.063
1.4536,85.575
1.5347,85.038
1.6422,84.598
1.7703,84.158
1.9081,83.719
2.0469,83.279
2.1623,82.986
2.2571,82.693
2.35,82.351
2.4291,82.009
2.4888,81.667
2.5288,81.277
2.5503,80.984
2.5552,80.69
2.5464,80.349
2.5259,80.007
2.4946,79.567
2.4545,79.127
2.4066,78.688
2.3597,78.297
2.3128,77.906
2.26,77.662
2.2043,77.369
2.1486,77.125
2.0948,76.783
2.043,76.539
1.9951,76.197
1.9521,75.757
1.914,75.318
1.8768,74.878
1.8407,74.536
1.8094,74.341
1.783,74.683
1.7566,76.05
1.7322,79.567
1.7067,85.819
1.6823,94.22
1.6579,103.06
1.6344,110.05
1.6119,114.34
1.5924,116.35
1.5738,117.03
1.5562,117.13
1.5386,116.93
1.5239,116.64
1.5122,116.1
1.4976,115.42
1.48,114.49
1.4594,113.22
1.4379,111.61
1.4164,109.61
1.3969,107.16
1.3783,104.28
1.3607,101.25
1.3431,98.128
1.3265,95.441
1.3157,93.243
1.3069,91.729
1.2952,90.752
1.2796,89.971
1.259,89.238
1.2385,88.506
1.2219,87.822
1.2121,87.187
1.2151,86.503
1.2366,85.868
1.2864,85.282
1.3666,84.793
1.4721,84.354
1.5797,84.012
1.6901,83.621
1.8162,83.23
1.9404,82.84
2.0538,82.498
2.1505,82.058
2.2287,81.716
2.2854,81.472
2.3226,81.228
2.3441,80.935
2.3529,80.544
2.3519,80.153
2.3412,79.762
2.3226,79.372
2.2972,78.932
2.2639,78.492
2.2209,78.053
2.172,77.662
2.1193,77.223
2.0655,76.881
2.0137,76.539
1.9648,76.197
1.9169,75.806
1.871,75.366
1.8289,74.878
1.7967,74.194
1.7703,73.559
1.7429,72.924
1.7165,72.436
1.6901,72.094
1.6637,72.094
1.6373,73.12
1.6129,76.05
1.5904,81.667
1.5689,89.727
1.5494,98.421
1.5318,105.7
1.5191,110.29
1.5064,112.54
1.4917,113.37
1.4741,113.51
1.4536,113.32
1.4321,112.93
1.4106,112.29
1.391,111.51
1.3724,110.44
1.3548,109.17
1.3372,107.6
1.3196,105.6
1.306,103.35
1.2952,100.72
1.2805,97.932
1.2649,95.099
1.2483,92.413
1.2326,90.215
1.216,88.701
1.1965,87.48
1.175,86.552
1.1496,85.721
1.1212,84.94
1.0938,84.11
1.0723,83.426
1.0645,82.742
1.0753,82.107
1.1095,81.472
1.1994,80.886
1.3245,80.3
1.4467,79.811
1.5728,79.323
1.697,78.786
1.8152,78.346
1.9218,77.906
2.0137,77.564
2.087,77.174
2.1369,76.881
2.1681,76.636
2.1877,76.294
2.1965,76.05
2.1945,75.66
2.1828,75.22
2.1652,74.78
2.1427,74.341
2.1134,73.901
2.0762,73.51
2.0352,73.168
1.9912,72.875
1.9462,72.631
1.9081,72.387
1.8739,72.192
1.8377,71.947
1.8016,71.605
1.7654,71.215
1.7292,70.824
1.694,70.287
1.6608,69.749
1.6305,69.261
1.6031,69.163
1.5797,69.505
1.5572,70.091
1.5386,71.801
1.523,75.611
1.5073,82.156
1.4888,90.655
1.4692,98.909
1.4506,105.16
1.4321,108.73
1.4135,110.29
1.3949,110.73
1.3763,110.63
1.3587,110.09
1.3421,109.41
1.3255,108.48
1.3138,107.51
1.305,106.43
1.2933,105.11
1.2786,103.6
1.2639,101.89
1.2502,99.886
1.2375,97.542
1.2258,95.197
1.2151,92.999
1.2043,91.241
1.1926,89.971
1.1789,89.092
1.1691,88.408
1.1623,87.822
1.1505,87.236
1.1369,86.698
1.1251,86.161
1.1183,85.624
1.1222,85.135
1.1437,84.598
1.1848,84.158
1.2512,83.719
1.3412,83.426
1.4506,83.133
1.5718,82.84
1.6804,82.595
1.7771,82.351
1.8719,82.107
1.9511,81.863
2.0147,81.618
2.0616,81.374
2.0929,80.984
2.1114,80.593
2.1193,80.251
2.1183,79.86
2.1085,79.469
2.0919,79.127
2.0723,78.786
2.0479,78.444
2.0186,78.053
1.9863,77.809
1.9521,77.467
1.9189,77.174
1.8866,76.881
1.8573,76.49
1.8299,76.099
1.8055,75.757
1.7859,75.22
1.7683,74.78
1.7517,74.341
1.738,73.999
1.7263,73.755
1.7126,73.755
1.6979,74.438
1.6823,76.636
1.6686,81.277
1.6559,88.554
1.6461,97.102
1.6373,104.92
1.6276,110.44
1.6178,113.51
1.607,114.88
1.5992,115.22
1.5934,115.08
1.5846,114.54
1.5728,113.81
1.5562,112.78
1.5396,111.66
1.523,110.39
1.5083,108.82
1.4956,107.12
1.4829,105.11
1.4692,102.82
1.4545,100.23
1.4389,97.591
1.4272,95.197
1.4194,93.195
1.4115,91.534
1.4018,90.362
1.3891,89.385
1.3754,88.506
1.3607,87.675
1.347,86.991
1.3363,86.308
1.3304,85.673
1.3372,85.038
1.3636,84.549
1.4047,84.012
1.4643,83.572
1.5503,83.035
1.654,82.693
1.7674,82.302
1.8837,82.009
1.9922,81.667
2.088,81.374
2.1681,81.032
2.2297,80.788
2.2717,80.495
2.2972,80.104
2.3079,79.762
2.3079,79.372
2.3001,78.981
2.2874,78.59
2.2678,78.248
2.2405,77.809
2.2033,77.418
2.1603,77.027
2.1153,76.734
2.0694,76.441
2.0244,76.099
1.9844,76.001
1.9482,75.855
1.9189,75.611
1.8935,75.122
1.869,74.536
1.8456,74.048
1.824,73.51
1.8055,73.12
1.7859,72.924
1.7654,73.12
1.7458,74.194
1.7263,77.125
1.7058,82.693
1.6862,90.557
1.6676,99.154
1.653,106.48
1.6432,111.36
1.6305,113.9
1.6168,114.98
1.6041,115.22
1.5904,115.08
1.5758,114.69
1.5621,114.1
1.5474,113.37
1.5318,112.54
1.5181,111.41
1.5044,110
1.4946,108.19
1.4878,105.99
1.4761,103.45
1.4643,100.62
1.4526,97.737
1.4409,95.051
1.4282,92.804
1.4154,91.045
1.4018,89.824
1.3871,88.847
1.3715,88.066
1.3578,87.382
1.348,86.698
1.3421,86.063
1.3392,85.428
1.346,84.793
1.3705,84.256
1.4164,83.67
1.4878,83.23
1.5816,82.791
1.6901,82.449
1.8055,82.058
1.9198,81.716
2.0264,81.423
2.1183,81.13
2.1857,80.788
2.2336,80.495
2.2708,80.153
2.2952,79.811
2.3069,79.323
2.3089,78.883
2.304,78.492
2.2923,78.102
2.2737,77.662
2.2454,77.223
2.2111,76.978
2.172,76.734
2.1339,76.441
2.0968,76.099
2.0547,75.806
2.0117,75.464
1.9707,75.171
1.9335,74.878
1.8993,74.487
1.868,74.097
1.8426,73.755
1.8221,73.364
1.8045,72.973
1.7879,72.875
1.7703,73.071
1.7537,74.292
1.739,77.418
1.7224,83.23
1.7038,91.29
1.6852,99.935
1.6686,107.12
1.654,111.8
1.6413,114.2
1.6295,115.13
1.6188,115.37
1.6051,115.13
1.5904,114.69
1.5797,113.9
1.5679,113.12
1.5513,112.05
1.5337,110.88
1.5181,109.41
1.5044,107.7
1.4946,105.55
1.4878,103.06
1.4819,100.37
1.4731,97.493
1.5191,94.855
1.5934,92.657
1.6237,90.997
1.6364,89.678
1.6373,88.701
1.6285,87.871
1.6149,87.138
1.5992,86.503
1.5885,85.868
1.5885,85.233
1.6061,84.696
1.6481,84.11
1.7204,83.572
1.8221,82.986
1.9482,82.547
2.0723,82.107
2.1955,81.716
2.3324,81.423
2.4663,81.032
2.5865,80.739
2.6852,80.495
2.7615,80.251
2.8172,79.909
2.8543,79.567
2.8749,79.176
2.8807,78.737
2.8749,78.297
2.8592,77.858
2.8377,77.467
2.8094,77.174
2.7703,76.881
2.7253,76.49
2.6745,76.197
2.6168,75.855
2.5572,75.562
2.4985,75.318
2.4438,74.976
2.3949,74.683
2.3519,74.341
2.3109,73.901
2.2757,73.559
2.2444,73.12
2.2092,72.778
2.176,72.631
2.1476,72.729
2.1241,73.755
2.1026,76.539
2.0821,82.009
2.0626,89.678
2.043,98.177
2.0254,105.41
2.0088,110.24
1.9912,112.68
1.9756,113.56
1.9599,113.61
1.9423,113.32
1.9267,112.73
1.9101,112
1.8915,111.12
1.8759,110.05
1.8583,108.82
1.8397,107.26
1.824,105.41
1.8104,103.31
1.7967,100.81
1.7869,98.03
1.7781,95.246
1.7644,92.56
1.7498,90.215
1.739,88.506
1.7273,87.187
1.7116,86.112
1.696,85.282
1.6804,84.5
1.6647,83.816
1.654,83.133
1.6549,82.449
1.6745,81.716
1.7077,81.032
1.7615,80.446
1.8475,79.86
1.9629,79.372
2.1007,78.883
2.2522,78.444
2.4066,78.053
2.5503,77.662
2.6735,77.32
2.7732,76.929
2.8485,76.539
2.9013,76.099
2.9306,75.757
2.9433,75.366
2.9462,74.927
2.9404,74.536
2.9277,74.194
2.9071,73.803
2.8759,73.413
2.8338,72.973
2.784,72.533
2.7292,72.192
2.6716,71.85
2.6149,71.557
2.563,71.312
2.5191,70.97
2.48,70.726
2.4409,70.433
2.4037,70.042
2.3675,69.603
2.3353,69.114
2.304,68.528
2.2708,68.186
2.2366,67.991
2.2023,68.089
2.1672,68.968
2.1369,71.557
2.1144,76.539
2.0929,84.061
2.0714,92.56
2.0508,100.03
2.0313,105.06
2.0117,107.55
1.9922,108.39
1.9717,108.29
1.9501,107.75
1.9277,106.92
1.9032,105.99
1.8788,104.87
1.8534,103.7
1.8348,102.43
1.8192,101.06
1.8016,99.349
1.7859,97.346
1.7713,95.099
1.7576,92.755
1.7468,90.313
1.7351,88.115
1.7204,86.405
1.7058,85.184
1.6882,84.158
1.6696,83.377
1.6559,82.693
1.6442,81.912
1.6285,81.228
1.6149,80.544
1.608,79.909
1.6139,79.323
1.6413,78.737
1.696,78.297
1.781,77.858
1.8944,77.467
2.0313,77.223
2.1808,77.027
2.3314,76.881
2.4565,76.636
2.5601,76.441
2.6569,76.197
2.7351,76.05
2.7918,75.904
2.828,75.806
2.8456,75.66
2.8485,75.562
2.8397,75.464
2.8231,75.366
2.7967,75.318
2.7644,75.171
2.7322,75.122
2.6989,75.073
2.6579,74.976
2.6119,74.976
2.565,75.073
2.5191,75.073
2.4712,74.927
2.4233,74.683
2.3783,74.341
2.3382,73.901
2.304,73.51
2.2747,73.168
2.2502,72.973
2.2268,73.071
2.1984,73.657
2.1691,75.464
2.1398,79.421
2.1124,85.819
2.087,93.683
2.0655,101.3
2.045,106.97
2.0244,110.24
2.0049,111.66
1.9853,111.95
1.9658,111.51
1.9501,110.83
1.9384,109.8
1.9316,108.68
1.9267,107.36
1.9208,105.99
1.913,104.43
1.9062,102.67
1.8993,100.81
1.8915,98.665
1.8837,96.418
1.8788,94.123
1.8739,92.071
1.8719,90.313
1.869,88.945
1.8612,87.919
1.8514,87.138
1.8397,86.356
1.826,85.673
1.8074,84.989
1.7889,84.305
1.7761,83.67
1.7761,83.035
1.7977,82.498
1.8456,82.009
1.9238,81.618
2.0117,81.179
2.1134,80.788
2.2444,80.446
2.3891,80.104
2.5318,79.762
2.6608,79.421
2.7713,79.127
2.8592,78.786
2.9218,78.492
2.9629,78.102
2.9824,77.809
2.9824,77.467
2.9697,77.125
2.9472,76.734
2.915,76.343
2.8768,76.001
2.8348,75.66
2.7898,75.318
2.7419,75.073
2.6921,74.78
2.6413,74.536
2.5924,74.292
2.5464,73.999
2.5044,73.657
2.4643,73.217
2.4301,72.778
2.3998,72.387
2.3705,71.947
2.3412,71.605
2.3099,71.557
2.2805,72.045
2.2532,73.803
2.2268,77.76
2.2004,84.256
2.174,92.511
2.1496,100.42
2.1281,106.48
2.1114,110.05
2.0968,111.66
2.0792,112.05
2.0596,111.95
1.9599,111.51
1.8221,110.83
1.7429,109.95
1.694,108.97
1.6608,107.85
1.6373,106.53
1.6188,105.01
1.6031,103.11
1.5885,100.91
1.5777,98.421
1.5689,95.783
1.5582,93.195
1.5455,90.997
1.5327,89.238
1.5161,87.968
1.4946,87.04
1.4702,86.259
1.4428,85.575
1.4154,84.94
1.3939,84.354
1.3793,83.816
1.3793,83.279
1.3978,82.742
1.4409,82.253
1.5142,81.716
1.6197,81.277
1.7527,80.935
1.9052,80.544
2.0655,80.153
2.2219,79.86
2.3656,79.567
2.4878,79.323
2.5806,79.03
2.6471,78.737
2.6872,78.444
2.7058,78.053
2.7116,77.76
2.7048,77.369
2.6862,77.027
2.6579,76.636
2.6217,76.246
2.5806,75.855
2.5327,75.562
2.48,75.22
2.4252,74.976
2.3695,74.731
2.3177,74.487
2.2698,74.243
2.2229,73.852
2.176,73.413
2.129,72.973
2.087,72.533
2.0518,72.094
2.0215,71.801
1.9922,71.605
1.9638,71.752
1.9345,72.875
1.9032,75.904
1.871,81.57
1.8456,89.434
1.8221,97.932
1.7977,105.06
1.7752,109.66
1.7537,112
1.7331,112.78
1.7126,112.93
1.694,112.63
1.6764,112
1.6569,111.22
1.6393,110.39
1.6237,109.36
1.61,108.19
1.5982,106.82
1.5865,105.06
1.5738,103.06
1.5601,100.67
1.5464,98.128
1.5337,95.49
1.5171,93.195
1.4946,91.29
1.4702,89.824
1.4457,88.603
1.4242,87.675
1.4027,86.845
1.3871,86.063
1.3763,85.379
1.3675,84.696
1.3675,84.061
1.3851,83.475
1.4252,82.986
1.4946,82.498
1.5963,82.107
1.7283,81.667
1.8817,81.277
2.0459,80.935
2.2082,80.544
2.3412,80.251
2.4487,79.909
2.5474,79.567
2.6276,79.225
2.6872,78.932
2.7292,78.59
2.7537,78.297
2.7625,78.053
2.7586,77.662
2.7449,77.32
2.7214,76.929
2.6872,76.49
2.6471,76.099
2.6061,75.806
2.566,75.415
2.522,75.171
2.477,74.927
2.4321,74.683
2.3881,74.438
2.3421,74.097
2.2972,73.657
2.2551,73.217
2.2131,72.729
2.172,72.289
2.1329,71.996
2.1007,71.85
2.0723,72.387
2.045,74.194
2.0176,78.102
1.9902,84.696
1.9629,92.95
1.9365,101.01
1.9091,107.07
1.8827,110.63
1.8573,112.1
1.8348,112.49
1.8133,112.29
1.7928,111.76
1.7761,110.97
1.7605,110.09
1.7429,109.17
1.7243,108.09
1.7048,106.87
1.6843,105.36
1.6647,103.5
1.6461,101.3
1.6305,98.86
1.6158,96.125
1.6012,93.439
1.5875,90.948
1.5777,88.994
1.566,87.529
1.5484,86.552
1.5279,85.819
1.5034,85.233
1.48,84.745
1.4594,84.256
1.4438,83.67
1.4428,83.182
1.4682,82.595
1.523,82.107
1.6109,81.618
1.7097,81.13
1.825,80.69
1.9736,80.3
2.1369,79.909
2.3011,79.616
2.4536,79.323
2.5875,79.03
2.6979,78.786
2.782,78.492
2.8377,78.248
2.869,77.906
2.8807,77.613
2.8778,77.32
2.8651,76.978
2.8416,76.636
2.8094,76.246
2.7703,75.855
2.7253,75.464
2.6774,75.171
2.6256,74.878
2.5689,74.634
2.5122,74.341
2.4565,74.048
2.4047,73.755
2.3587,73.364
2.3196,72.875
2.2845,72.289
2.2502,71.654
2.216,71.117
2.1818,70.726
2.1486,70.677
2.1153,71.361
2.0831,73.657
2.0547,78.346
2.0293,85.477
2.0049,93.732
1.9824,101.06
1.9609,106.14
1.9433,108.73
1.9267,109.61
1.9042,109.51
1.8817,108.92
1.8602,108.09
1.8397,107.12
1.8192,106.04
1.7996,104.87
1.7791,103.6
1.7586,102.18
1.739,100.47
1.7185,98.567
1.7019,96.369
1.6862,93.927
1.6686,91.436
1.65,89.189
1.6325,87.382
1.6168,85.966
1.6022,84.94
1.5865,84.012
1.565,83.182
1.5357,82.449
1.5005,81.618
1.4682,80.886
1.4448,80.104
1.437,79.372
1.4516,78.688
1.4956,78.004
1.5738,77.369
1.6833,76.783
1.8201,76.343
1.9775,75.904
2.1437,75.562
2.306,75.171
2.4545,74.878
2.5806,74.487
2.6813,74.194
2.7478,73.803
2.7879,73.413
2.8152,72.973
2.827,72.631
2.824,72.24
2.8113,71.85
2.7879,71.508
2.7546,71.166
2.7146,70.873
2.6706,70.531
2.6217,70.287
2.5689,70.042
2.5171,69.749
2.4721,69.407
2.4301,69.114
2.3851,68.724
2.3392,68.284
2.2923,67.844
2.2473,67.356
2.2014,66.916
2.1544,66.623
2.1095,66.477
2.0665,66.721
1.9971,67.747
1.9179,70.384
1.869,75.415
1.8348,82.791
1.8045,90.997
1.7761,97.981
1.7488,102.62
1.7243,104.82
1.7019,105.41
1.6813,105.26
1.6608,104.58
1.6413,103.6
1.6197,102.47
1.5953,101.25
1.9218,78.688
2.045,78.444
2.1711,78.102
2.2903,77.662
2.391,77.223
2.4663,76.881
2.5181,76.539
2.5533,76.197
2.5748,75.806
2.5816,75.366
2.5445,75.073
2.4829,74.78
2.436,74.536
2.393,74.194
2.35,73.755
2.3001,73.364
2.2434,73.12
2.1848,72.778
2.1261,72.387
2.0684,71.947
2.0117,71.557
1.9599,71.166
1.9169,70.677
1.8827,70.189
1.8534,69.652
1.8201,69.407
1.7859,69.554
1.7507,70.433
1.7175,72.729
1.6852,77.467
1.651,84.745
1.6178,93.097
1.5865,100.47
1.5572,105.41
1.5279,108.04
1.4985,108.97
1.477,109.12
1.4614,108.82
1.4448,108.09
1.4311,107.16
1.4164,106.19
1.3988,105.01
1.3812,103.7
1.3636,102.13
1.3441,100.18
1.3255,97.932
1.3109,95.49
1.2962,92.95
1.2854,90.362
1.2796,88.066
1.2717,86.259
1.26,85.135
1.2473,84.256
1.2336,83.475
1.2199,82.693
1.2063,81.814
1.1916,81.032
1.1789,80.446
1.1711,79.86
1.173,79.225
1.1935,78.59
1.2297,78.053
1.2854,77.76
1.3724,77.467
1.4868,77.125
1.6197,76.734
1.7586,76.441
1.8954,76.197
2.0196,76.05
2.1202,75.806
2.1975,75.562
2.2502,75.318
2.2805,75.22
2.2942,75.171
2.2952,75.122
2.2874,74.976
2.2688,74.976
2.2414,75.122
2.2063,75.22
2.1642,75.318
2.1163,75.366
2.0635,75.464
2.0088,75.611
1.957,75.757
1.911,75.66
1.871,75.415
1.8377,75.22
1.8094,75.22
1.7771,75.22
1.7468,75.22
1.7195,75.22
1.695,75.66
1.6755,76.978
1.6588,80.055
1.6432,85.477
1.6276,92.853
1.6129,100.81
1.5982,107.41
1.5855,111.76
1.5709,113.9
1.5494,114.69
1.5259,114.73
1.5015,114.34
1.48,113.66
1.4663,112.63
1.4555,111.32
1.4467,109.85
1.4409,108.29
1.4399,106.43
1.4428,104.28
1.4457,101.94
1.4487,99.544
1.4506,97.2
1.4516,94.904
1.4516,92.853
1.4487,91.387
1.4438,90.215
1.437,89.385
1.4301,88.506
1.4233,87.626
1.4164,86.845
1.4096,86.259
1.4057,85.624
1.4096,84.94
1.4223,84.354
1.4477,83.914
1.4927,83.621
1.5621,83.23
1.6549,82.791
1.7693,82.449
1.8974,82.107
2.0274,81.912
2.1476,81.618
2.2522,81.228
2.3353,80.886
2.393,80.544
2.4252,80.3
2.4379,79.909
2.437,79.469
2.4233,79.03
2.3988,78.737
2.3675,78.444
2.3304,78.004
2.2864,77.613
2.2395,77.418
2.1916,77.223
2.1447,76.929
2.0997,76.539
2.0606,76.246
2.0254,75.904
1.9863,75.611
1.9472,75.122
1.9101,74.536
1.8759,74.097
1.8465,73.901
1.8172,73.852
1.7879,74.048
1.7625,75.318
1.739,78.541
1.7175,84.403
1.697,92.364
1.6833,100.62
1.6725,107.41
1.6608,111.85
1.6471,114.25
1.6334,115.08
1.6197,115.17
1.6041,114.93
1.5855,114.54
1.567,113.81
1.5474,112.73
1.5269,111.51
1.5093,110.09
1.4946,108.48
1.4809,106.48
1.4663,104.14
1.4555,101.55
1.4438,98.909
1.4282,96.418
1.4135,94.123
1.3978,92.169
1.3803,90.801
1.3646,89.824
1.348,88.945
1.3294,88.066
1.3089,87.187
1.2933,86.552
1.2815,85.917
1.2727,85.282
1.2737,84.598
1.2933,84.11
1.3402,83.719
1.4174,83.426
1.52,83.035
1.6432,82.693
1.7771,82.351
1.912,82.107
2.0362,81.863
2.132,81.472
2.2033,81.13
2.262,80.788
2.304,80.544
2.3265,80.153
2.3343,79.811
2.3333,79.421
2.3236,79.127
2.305,78.883
2.2776,78.444
2.2424,78.053
2.1984,77.76
2.1476,77.467
2.1007,77.223
2.0557,76.783
2.0049,76.441
1.9531,76.099
1.9062,75.806
1.8651,75.318
1.826,74.731
1.7889,74.243
1.7566,73.901
1.7273,73.803
1.7009,73.852
1.6764,74.731
1.6569,77.418
1.6403,82.693
1.6217,90.362
1.5992,98.86
1.5738,106.28
1.5503,111.56
1.5279,114.44
1.5064,115.61
1.4878,116
1.4731,115.91
1.4643,115.76
1.4585,115.22
1.4555,114.44
1.4536,113.32
1.4497,112
1.4438,110.49
1.437,108.63
1.4282,106.28
1.4184,103.7
1.4066,100.91
1.3939,98.177
1.3842,95.539
1.3754,93.243
1.3675,91.534
1.3597,90.313
1.3558,89.385
1.3519,88.506
1.3412,87.626
1.3275,86.943
1.3148,86.308
1.305,85.721
1.3021,85.038
1.3148,84.5
1.35,84.061
1.4115,83.67
1.5034,83.23
1.6227,82.791
1.741,82.449
1.8543,82.156
1.9795,81.912
2.0987,81.57
2.2014,81.179
2.2825,80.935
2.3969,80.739
2.5161,80.349
2.5718,79.909
2.5904,79.469
2.5865,79.225
2.5689,78.981
2.5435,78.59
2.5152,78.199
2.4848,77.858
2.4448,77.613
2.3978,77.32
2.348,76.929
2.2952,76.539
2.2385,76.294
2.1818,76.001
2.129,75.562
2.0821,74.976
2.0391,74.487
1.999,74.194
1.9658,73.901
1.9365,73.755
1.9042,74.243
1.8768,76.294
1.8514,80.788
1.828,87.871
1.8084,96.174
1.7908,104.04
1.7752,109.85
1.7595,113.17
1.7439,114.54
1.7283,114.93
1.7136,114.93
1.7019,114.69
1.6921,114.2
1.6764,113.32
1.6569,112.24
1.6422,110.97
1.6305,109.51
1.6207,107.55
1.6139,105.26
1.609,102.67
1.6031,99.886
1.5963,96.809
1.5885,93.683
1.5826,90.85
1.5738,88.799
1.5601,87.431
1.5464,86.308
1.5298,85.282
1.5122,84.549
1.4956,84.012
1.4819,83.377
1.4731,82.595
1.4721,81.814
1.4868,81.179
1.5279,80.69
1.6002,80.055
1.6852,79.421
1.7859,78.883
1.9159,78.541
2.0596,78.248
2.2033,77.809
2.3363,77.418
2.4497,77.027
2.5406,76.734
2.6051,76.343
2.6452,75.855
2.6647,75.415
2.6686,75.073
2.6628,74.731
2.651,74.292
2.6295,73.803
2.6002,73.413
2.563,73.12
2.5142,72.875
2.4555,72.436
2.39,71.996
2.3216,71.605
2.2551,71.361
2.1916,70.922
2.1339,70.433
2.0841,69.847
2.0479,69.505
2.0225,69.114
1.998,68.675
1.9746,68.382
1.9482,68.479
1.9198,69.407
1.8944,71.85
1.87,76.685
1.8485,83.914
1.8299,92.511
1.8133,100.18
1.7977,105.36
1.7859,108.04
1.7761,109.07
1.7634,109.31
1.7498,109.07
1.7331,108.39
1.7116,107.41
1.6862,106.38
1.6598,105.16
1.6354,103.79
1.6119,102.13
1.5904,100.18
1.5709,98.03
1.5533,95.686
1.5445,93.048
1.5406,90.362
1.5347,87.968
1.5279,86.308
1.521,85.135
1.5132,84.061
1.5054,83.182
1.4956,82.449
1.4839,81.716
1.4682,81.032
1.4526,80.251
1.4428,79.469
1.4418,78.932
1.4526,78.492
1.4809,78.053
1.5347,77.564
1.6168,77.125
1.7214,76.881
1.8475,76.539
1.9844,76.197
2.1193,75.806
2.2414,75.562
2.3402,75.415
2.4115,75.171
2.4594,74.878
2.4868,74.634
2.4985,74.487
2.5005,74.438
2.4956,74.292
2.4839,74.194
2.4633,74.194
2.4321,74.243
2.392,74.341
2.3431,74.341
2.2884,74.292
2.2346,74.341
2.1857,74.438
2.1437,74.292
2.1105,74.097
2.0802,73.803
2.0538,73.755
2.0293,73.657
2.0059,73.657
1.9824,73.803
1.9599,74.292
1.9365,75.855
1.914,79.176
1.8915,84.94
1.871,92.511
1.8524,100.37
1.8397,106.82
1.8299,110.83
1.8172,112.73
1.8055,113.37
1.7957,113.42
1.7889,113.07
1.783,112.24
1.7791,111.07
1.7771,109.66
1.7761,108.24
1.7732,106.53
1.7683,104.58
1.7654,102.28
1.7644,99.984
1.7576,97.542
1.7507,95.051
1.7458,92.804
1.739,90.997
1.7341,89.678
1.7312,88.75
1.7263,87.919
1.7165,87.138
1.7058,86.356
1.696,85.673
1.6901,84.989
1.6882,84.305
1.6911,83.572
1.7038,82.986
1.737,82.595
1.7937,82.302
1.8749,81.912
1.9814,81.57
2.1095,81.228
2.2532,81.032
2.3988,80.788
2.5337,80.446
2.6491,80.007
2.7292,79.665
2.784,79.421
2.8289,79.127
2.8592,78.688
2.8739,78.297
2.8739,78.004
2.8583,77.76
2.8338,77.369
2.8025,76.978
2.7644,76.685
2.7185,76.49
2.6657,76.246
2.6158,75.855
2.5709,75.415
2.522,75.122
2.4712,74.78
2.4223,74.341
2.3812,73.803
2.3451,73.315
2.3118,72.924
2.2805,72.778
2.2502,72.924
2.2199,73.755
2.1896,76.197
2.1593,81.179
2.1329,88.554
2.1105,96.858
2.0899,104.04
2.0704,109.07
2.0489,111.85
2.0264,113.12
2.0078,113.42
1.9912,113.17
1.9756,112.63
1.9638,111.85
1.9541,110.92
1.9453,109.61
1.9374,108.09
1.9296,106.43
1.9179,104.58
1.9003,102.43
1.8827,99.935
1.8661,97.2
1.8504,94.562
1.8387,92.315
1.8289,90.508
1.8201,89.043
1.8123,87.919
1.8006,87.138
1.7869,86.405
1.7771,85.819
1.7664,85.135
1.7478,84.354
1.7273,83.816
1.7146,83.377
1.7195,82.937
1.7488,82.449
1.8065,82.009
1.8964,81.667
2.0127,81.423
2.1447,81.13
2.2825,80.69
2.3578,80.349
2.393,80.104
2.4565,79.909
2.5191,79.616
2.5679,79.323
2.6012,78.932
2.6178,78.688
2.6188,78.444
2.607,78.102
2.5865,77.76
2.5591,77.369
2.5239,77.174
2.4809,76.881
2.437,76.49
2.393,76.05
2.3441,75.66
2.2933,75.366
2.2424,75.073
2.1965,74.536
2.1574,74.048
2.1232,73.608
2.0919,73.364
2.0616,73.168
2.0323,73.315
2.0059,74.292
1.9834,77.174
1.9629,82.693
1.9423,90.362
1.9218,98.665
1.9013,105.8
1.8798,110.68
1.8563,113.37
1.8289,114.49
1.8006,114.78
1.7722,114.69
1.7458,114.25
1.7253,113.61
1.7077,112.68
1.696,111.41
1.6862,110
1.6745,108.39
1.6608,106.48
1.6471,104.23
1.6334,101.55
1.6197,98.616
1.6051,95.783
1.5904,93.292
1.5767,91.192
1.5621,89.531
1.5484,88.31
1.5376,87.48
1.5249,86.845
1.5083,86.308
1.4927,85.673
1.479,85.038
1.4712,84.5
1.4741,84.012
1.4946,83.475
1.5376,82.986
1.607,82.498
1.7038,82.107
1.8221,81.863
1.9521,81.57
2.0684,81.228
2.173,80.935
2.2786,80.69
2.3715,80.495
2.4457,80.153
2.5024,79.762
2.5396,79.323
2.5601,78.981
2.567,78.737
2.5601,78.444
2.5425,78.053
2.5152,77.76
2.4839,77.467
2.4467,77.223
2.4018,76.929
2.3529,76.49
2.2981,76.05
2.2405,75.757
2.1867,75.366
2.1378,74.927
2.0919,74.292
2.0499,73.803
2.0127,73.413
1.9795,73.364
1.9511,73.559
1.9296,74.683
1.912,77.613
1.8925,83.23
1.8719,91.094
1.8514,99.544
1.8299,106.43
1.8084,110.97
1.7869,113.42
1.7654,114.54
1.7439,114.88
1.7243,114.73
1.7077,114.25
1.696,113.56
1.6862,112.73
1.6745,111.56
1.6608,110.05
1.6471,108.29
1.6334,106.28
1.6197,103.99
1.6051,101.45
1.5875,98.567
1.5679,95.686
1.5513,93.097
1.5357,91.094
1.52,89.678
1.5093,88.506
1.5015,87.431
1.4946,86.601
1.4878,85.917
1.477,85.282
1.4643,84.696
1.4545,84.012
1.4516,83.279
1.4624,82.742
1.4966,82.253
1.5601,81.716
1.65,81.13
1.7468,80.593
1.8504,80.153
1.9697,79.811
2.0899,79.372
2.2004,78.883
2.2893,78.346
2.3548,78.004
2.3988,77.613
2.4203,77.174
2.4242,76.685
2.4135,76.099
2.392,75.66
2.3636,75.366
2.3353,74.927
2.303,74.487
2.2639,73.999
2.2209,73.608
2.1769,73.217
2.1329,72.875
2.0899,72.436
2.0469,71.85
2.0039,71.41
1.9629,70.97
1.9208,70.531
1.8788,70.091
1.8436,69.798
1.8113,69.798
1.7781,70.531
1.7449,72.68
1.7146,77.027
1.6852,83.719
1.6559,91.973
1.6305,99.74
1.6109,105.5
1.5934,108.73
1.5777,110.05
1.563,110.39
1.5503,110.19
1.5425,109.66
1.5347,108.87
1.5239,107.7
1.5112,106.24
1.4995,104.72
1.4897,103.06
1.4819,101.16
1.4721,99.007
1.4624,96.418
1.4536,93.683
1.4457,90.997
1.4379,88.554
1.434,86.552
1.4321,84.94
1.4282,83.719
1.4184,82.84
1.4027,82.058
1.3842,81.277
1.3646,80.495
1.348,79.811
1.3353,79.176
1.3294,78.688
1.3353,78.199
1.3617,77.613
1.4047,77.125
1.4673,76.685
1.5572,76.343
1.6686,76.099
1.7918,75.855
1.9179,75.562
2.0362,75.318
2.1359,75.122
2.2121,74.927
2.2649,74.536
2.2952,74.194
2.306,73.803
2.303,73.559
2.2903,73.315
2.2698,72.973
2.2414,72.729
2.2082,72.533
2.1681,72.387
2.1212,72.24
2.0694,72.045
2.0156,71.801
1.9638,71.508
1.9179,71.117
1.8778,70.677
1.8397,70.287
1.8084,70.042
1.782,69.945
1.7546,69.994
1.7302,70.384
1.7107,71.508
1.6901,74.243
1.6686,79.372
1.651,86.943
1.6315,95.49
1.6109,103.01
1.5904,108.24
1.5679,111.17
1.5455,112.63
1.5288,113.17
1.5171,113.22
1.5054,112.93
1.4966,112.19
1.4888,111.17
1.478,109.85
1.4653,108.39
1.4516,106.63
1.436,104.62
1.4203,102.43
1.4076,99.935
1.3978,97.346
1.393,94.904
1.39,92.853
1.3851,91.241
1.3793,89.971
1.3695,88.994
1.3558,88.164
1.3412,87.382
1.3284,86.601
1.3187,85.917
1.3109,85.233
1.305,84.598
1.3089,84.061
1.3284,83.572
1.3617,83.035
1.4135,82.595
1.4936,82.156
1.5973,81.863
1.7204,81.57
1.8514,81.228
1.9863,80.935
2.1163,80.593
2.2209,80.251
2.3011,79.909
2.3558,79.665
2.3871,79.372
2.4008,79.03
2.4018,78.688
2.393,78.346
2.3744,78.053
2.346,77.76
2.3109,77.467
2.2669,77.223
2.2209,76.929
2.173,76.539
2.1212,76.197
2.0714,75.806
2.0264,75.366
1.9863,74.878
1.9531,74.341
1.9277,73.901
1.9042,73.608
1.8817,73.51
1.8592,73.901
1.8368,75.562
1.8133,79.225
1.7869,85.477
1.7586,93.634
1.7331,101.69
1.7136,107.99
1.696,111.85
1.6843,113.76
1.6745,114.49
1.6618,114.64
1.6481,114.3
1.6344,113.66
1.6197,112.68
1.6051,111.41
1.5904,109.95
1.5758,108.24
1.5611,106.28
1.5464,104.14
1.5318,101.69
1.5191,99.105
1.5132,96.467
1.5103,94.123
1.5054,92.12
1.4985,90.557
1.4917,89.287
1.4829,88.261
1.4712,87.382
1.4565,86.552
1.4399,85.868
1.4242,85.233
1.4106,84.696
1.4018,84.11
1.4027,83.621
1.4203,83.182
1.4585,82.742
1.5191,82.351
1.6041,82.058
1.7126,81.716
1.8348,81.423
1.958,81.179
2.0704,80.935
2.1672,80.593
2.2444,80.3
2.2981,79.909
2.3284,79.616
2.3421,79.323
2.3431,78.932
2.3343,78.59
2.3157,78.248
2.2864,77.906
2.2493,77.613
2.2092,77.32
2.1632,76.929
2.1144,76.636
2.0645,76.294
2.0166,75.904
1.9746,75.464
1.9404,75.073
1.9101,74.536
1.8768,74.048
1.8436,73.657
1.8104,73.51
1.7791,73.559
1.7546,74.438
1.7351,76.978
1.7175,82.058
1.7019,89.531
1.6862,98.03
1.6716,105.55
1.6569,110.83
1.6461,113.76
1.6373,115.08
1.6256,115.47
1.6119,115.57
1.5982,115.22
1.5836,114.54
1.5689,113.61
1.5513,112.39
1.5327,110.88
1.52,109.12
1.5103,107.07
1.5015,104.67
1.4966,101.99
1.4946,99.154
1.4897,96.321
1.4839,93.683
1.479,91.534
1.4751,89.922
1.4692,88.701
1.4624,87.724
1.4555,86.991
1.4467,86.308
1.437,85.673
1.4282,85.135
1.4223,84.598
1.4223,84.158
1.434,83.67
1.4594,83.23
1.5093,82.791
1.5865,82.449
1.6872,82.156
1.8035,81.912
1.9277,81.667
2.0479,81.472
2.1554,81.228
2.2463,80.935
2.3157,80.593
2.3607,80.251
2.3871,79.86
2.4008,79.421
2.4018,79.03
2.393,78.688
2.3744,78.346
2.346,78.102
2.3109,77.809
2.2669,77.467
2.2209,77.174
2.176,76.783
2.13,76.441
2.089,76.001
2.0518,75.464
2.0137,74.976
1.9765,74.536
1.9433,74.097
1.9159,73.803
1.8905,73.608
1.8671,73.657
1.8446,74.487
1.8182,76.783
1.7889,81.472
1.7615,88.75
1.738,97.297
1.7214,105.16
1.7077,110.83
1.6931,114.05
1.6784,115.61
1.6637,116.2
1.6491,116.25
1.6344,116
1.6197,115.37
1.6051,114.44
1.5904,113.22
1.5748,111.76
1.5572,110
1.5455,107.95
1.5357,105.6
1.521,103.06
1.5064,100.23
1.4956,97.346
1.4868,94.66
1.479,92.413
1.4712,90.606
1.4653,89.287
1.4604,88.261
1.4545,87.382
1.4477,86.601
1.4409,85.966
1.437,85.379
1.437,84.793
1.4389,84.305
1.4497,83.816
1.478,83.377
1.5327,82.937
1.6129,82.547
1.7175,82.156
1.8407,81.863
1.9736,81.618
2.1046,81.374
2.2209,81.13
2.3099,80.886
2.3763,80.593
2.4282,80.349
2.4614,80.007
2.478,79.616
2.4809,79.225
2.4712,78.883
2.4516,78.541
2.4252,78.199
2.3939,77.809
2.3578,77.467
2.3167,77.125
2.2688,76.734
2.2229,76.441
2.1779,76.099
2.1271,75.757
2.0782,75.366
2.0323,74.878
1.9892,74.438
1.9511,73.901
1.9198,73.559
1.8925,73.315
1.868,73.364
1.8446,74.292
1.8221,76.929
1.8035,82.058
1.7869,89.531
1.7693,98.03
1.7556,105.6
1.8446,98.421
1.8309,95.979
1.8162,93.878
1.8006,92.218
1.781,91.045
1.7576,90.166
1.7331,89.385
1.7077,88.75
1.6823,88.164
1.6628,87.626
1.6569,87.04
1.6725,86.503
1.7028,85.966
1.7546,85.428
1.8407,84.842
1.957,84.354
2.0938,83.914
2.2405,83.475
2.3842,83.182
2.5152,82.84
2.6266,82.547
2.7155,82.351
2.781,82.107
2.825,81.912
2.8456,81.667
2.8485,81.472
2.8416,81.179
2.825,80.886
2.7986,80.495
2.7634,80.007
2.7234,79.469
2.6774,78.932
2.6276,78.297
2.5787,77.613
2.5308,77.027
2.4839,76.636
2.4418,76.294
2.4066,76.685
2.3754,78.444
2.3431,82.351
2.3099,88.75
2.2766,96.614
2.2444,104.14
2.2141,109.75
2.1848,112.88
2.1554,114.1
2.1271,113.9
2.0987,112.98
2.0733,111.51
2.0547,109.66
2.042,107.7
2.0283,105.6
2.0147,103.6
2.002,101.5
1.9873,99.154
1.9687,96.76
1.9482,94.123
1.9267,91.534
1.9042,89.434
1.8837,87.871
1.8622,86.747
1.8377,85.966
1.8152,85.379
1.7918,84.745
1.7625,84.11
1.7351,83.475
1.7146,82.791
1.7087,82.156
1.7253,81.423
1.7722,80.69
1.8504,80.007
1.956,79.372
2.085,78.883
2.2248,78.346
2.3441,78.004
2.4457,77.613
2.5455,77.369
2.6305,77.125
2.6931,76.881
2.7302,76.685
2.7439,76.441
2.741,76.246
2.7253,76.001
2.6979,75.757
2.6608,75.415
2.6168,75.073
2.566,74.683
2.5161,74.194
2.4673,73.608
2.4145,73.071
2.3607,72.631
2.3099,72.387
2.2639,72.289
2.2209,72.631
2.1808,73.803
2.1437,76.539
2.1075,81.716
2.0704,89.043
2.0352,97.053
2.0049,103.84
1.9775,108.39
1.9462,110.68
1.9159,111.36
1.8866,111.07
1.8612,110
1.8397,108.48
1.8201,106.72
1.8025,104.82
1.7849,102.87
1.7674,100.81
1.7507,98.616
1.7341,96.223
1.7195,93.732
1.7087,91.241
1.697,89.092
1.6843,87.626
1.6676,86.552
1.6481,85.868
1.6276,85.379
1.6041,84.842
1.5797,84.354
1.5582,83.865
1.5415,83.279
1.5376,82.791
1.5484,82.302
1.5787,81.863
1.6393,81.423
1.7283,81.13
1.8436,80.788
1.9785,80.495
2.1222,80.251
2.261,80.055
2.3871,79.86
2.4936,79.762
2.5767,79.616
2.6334,79.567
2.6676,79.421
2.6823,79.372
2.6784,79.323
2.6608,79.127
2.6325,78.932
2.5943,78.688
2.5015,78.346
2.3812,77.906
2.2991,77.467
2.2414,77.027
2.1935,76.734
2.1496,76.539
2.1095,76.49
2.0753,76.734
2.045,77.809
2.0156,80.593
1.9863,85.819
1.957,93.097
1.9267,100.91
1.8944,107.51
1.8622,111.8
1.8319,114
1.8016,114.54
1.7713,114.1
1.7419,112.98
1.7136,111.36
1.6921,109.51
1.6755,107.55
1.6618,105.55
1.652,103.5
1.6442,101.35
1.6373,99.056
1.6295,96.614
1.6188,94.367
1.6051,92.511
1.5894,91.094
1.5718,90.215
1.5494,89.531
1.5288,88.994
1.5093,88.408
1.4888,87.871
1.4682,87.236
1.4526,86.601
1.4477,85.966
1.4604,85.477
1.5005,84.94
1.5699,84.5
1.6686,84.061
1.7928,83.67
1.9326,83.279
2.0762,82.986
2.1984,82.693
2.3011,82.449
2.4018,82.253
2.4848,82.058
2.5445,81.863
2.5846,81.667
2.6051,81.472
2.6051,81.228
2.5894,80.935
2.564,80.593
2.5318,80.251
2.4927,79.811
2.4526,79.225
2.4145,78.737
2.3744,78.248
2.3343,77.809
2.2942,77.467
2.2561,77.369
2.2209,77.613
2.1877,78.737
2.1544,81.57
2.1183,86.747
2.0802,93.976
2.043,101.89
2.0088,108.48
1.9804,112.88
1.9541,114.98
1.9267,115.47
1.8983,114.98
1.8719,113.81
1.8475,112.24
1.8231,110.44
1.7996,108.53
1.7752,106.68
1.7488,104.72
1.7214,102.67
1.6931,100.42
1.6696,97.981
1.6471,95.637
1.6217,93.488
1.5934,91.876
1.5621,90.655
1.5288,89.873
1.4956,89.238
1.4633,88.701
1.434,88.164
1.4096,87.675
1.3939,87.138
1.3959,86.552
1.4233,85.966
1.4673,85.379
1.5337,84.842
1.6364,84.354
1.7683,84.012
1.9189,83.621
2.0753,83.23
2.2258,82.937
2.3607,82.595
2.4761,82.351
2.5679,82.107
2.6334,81.912
2.6735,81.667
2.6911,81.423
2.6891,81.228
2.6745,80.984
2.6481,80.69
2.6139,80.349
2.5718,80.007
2.5239,79.567
2.4712,79.03
2.4174,78.492
2.3646,78.004
2.3128,77.613
2.2639,77.418
2.2239,77.662
2.1867,78.932
2.1476,82.107
2.1095,87.871
2.0723,95.686
2.0342,103.99
1.998,110.83
1.9629,115.22
1.9286,117.37
1.8954,117.91
1.8641,117.42
1.8377,116.3
1.8094,114.88
1.784,113.22
1.7625,111.56
1.739,109.85
1.7136,108.04
1.6891,106.04
1.6657,103.79
1.6422,101.35
1.6227,98.812
1.6012,96.321
1.5787,94.318
1.5562,92.804
1.5308,91.729
1.5093,90.997
1.4917,90.313
1.4712,89.727
1.4497,89.092
1.4311,88.506
1.4252,87.919
1.4389,87.382
1.4809,86.747
1.5533,86.112
1.6579,85.575
1.7918,84.989
1.9443,84.549
2.1036,84.11
2.2385,83.719
2.35,83.426
2.4575,83.182
2.5474,82.986
2.6158,82.742
2.6667,82.547
2.6979,82.351
2.7107,82.058
2.7067,81.814
2.6872,81.472
2.6549,81.13
2.6129,80.69
2.5689,80.251
2.522,79.665
2.4692,79.127
2.4135,78.59
2.3597,78.248
2.3069,78.102
2.259,78.346
2.218,79.616
2.1808,82.742
2.1447,88.359
2.1095,96.223
2.0743,104.67
2.0401,111.76
2.0088,116.35
1.9804,118.74
1.9501,119.42
1.9179,119.13
1.8847,118.11
1.8534,116.79
1.8231,115.22
1.7937,113.56
1.7674,111.85
1.7429,109.95
1.7195,107.85
1.6979,105.5
1.6813,102.87
1.6676,100.03
1.652,97.346
1.6354,95.099
1.6178,93.488
1.5973,92.364
1.5738,91.534
1.5484,90.948
1.5239,90.313
1.5044,89.727
1.4917,89.092
1.4907,88.554
1.5093,87.968
1.5425,87.431
1.5982,86.845
1.6872,86.308
1.8065,85.721
1.9492,85.282
2.1026,84.842
2.2532,84.549
2.393,84.158
2.5152,83.865
2.6149,83.572
2.6901,83.23
2.7449,82.986
2.7771,82.742
2.7898,82.498
2.7918,82.253
2.781,81.863
2.7576,81.472
2.7214,80.984
2.6745,80.446
2.6207,79.86
2.563,79.176
2.5005,78.492
2.4399,77.858
2.3822,77.369
2.3275,77.174
2.2786,77.662
2.2336,79.762
2.1887,84.256
2.1447,91.29
2.1007,99.691
2.0606,107.31
2.0235,112.63
1.9844,115.47
1.9462,116.49
1.9081,116.25
1.8719,115.22
1.8416,113.76
1.8172,112.05
1.7967,110.19
1.7752,108.24
1.7546,106.24
1.737,104.14
1.7195,101.69
1.6989,99.056
1.6794,96.223
1.6608,93.634
1.6413,91.387
1.6188,89.678
1.5934,88.506
1.5464,87.529
1.4917,86.845
1.4516,86.259
1.4174,85.624
1.3871,85.038
1.3666,84.403
1.3636,83.719
1.3842,83.035
1.434,82.302
1.5152,81.618
1.6227,80.984
1.7498,80.446
1.8886,79.909
2.0108,79.567
2.1183,79.176
2.2268,78.883
2.3206,78.59
2.3949,78.444
2.4487,78.248
2.4809,78.004
2.4927,77.809
2.4868,77.564
2.4643,77.32
2.4301,76.929
2.3851,76.539
2.3324,76.099
2.2815,75.611
2.2317,75.073
2.1769,74.487
2.1202,74.048
2.0645,73.803
2.0108,73.803
1.9619,74.097
1.9179,75.415
1.8768,78.492
1.8387,84.11
1.8055,91.778
1.7752,99.984
1.7498,106.72
1.7273,111.12
1.7009,113.32
1.6716,113.86
1.6403,113.42
1.61,112.29
1.5797,110.83
1.5464,109.07
1.5132,107.26
1.4819,105.31
1.4516,103.35
1.4213,101.16
1.3891,98.812
1.3617,96.223
1.3372,93.732
1.3079,91.534
1.2766,89.922
1.2473,88.799
1.219,87.968
1.1877,87.382
1.1564,86.796
1.1271,86.308
1.0997,85.721
1.0792,85.184
1.0733,84.598
1.0841,84.061
1.1163,83.475
1.1789,82.937
1.2747,82.498
1.4008,82.009
1.5474,81.618
1.7028,81.277
1.8573,81.032
1.999,80.788
2.1183,80.593
2.2131,80.495
2.2825,80.446
2.3265,80.349
2.349,80.3
2.3529,80.251
2.3431,80.007
2.3187,79.762
2.2835,79.323
2.2385,78.786
2.1857,78.297
2.13,77.76
2.0753,77.223
2.0205,76.783
1.9697,76.441
1.9267,76.294
1.8925,76.539
1.8641,77.662
1.8368,80.544
1.8094,85.917
1.783,93.488
1.7566,101.6
1.7283,108.48
1.6989,113.07
1.6676,115.42
1.6373,116.1
1.608,115.76
1.5797,114.73
1.5562,113.22
1.5347,111.51
1.5122,109.61
1.4897,107.75
1.4682,105.75
1.4497,103.7
1.434,101.35
1.4203,99.007
1.4076,96.662
1.3939,94.611
1.3754,92.999
1.3539,91.876
1.3284,91.045
1.304,90.362
1.2796,89.824
1.2502,89.189
1.2199,88.554
1.1955,87.871
1.1828,87.236
1.1916,86.601
1.2278,85.966
1.2952,85.379
1.3959,84.842
1.5239,84.354
1.6706,83.914
1.8025,83.572
1.9218,83.182
2.0479,82.84
2.1642,82.595
2.261,82.302
2.3333,82.107
2.3832,81.912
2.4125,81.814
2.4233,81.618
2.4164,81.423
2.3949,81.179
2.3627,80.935
2.3216,80.544
2.2805,80.055
2.2366,79.567
2.1857,78.981
2.1359,78.492
2.089,78.053
2.043,77.858
2,78.004
1.9589,78.932
1.9228,81.374
1.8905,86.161
1.8592,93.195
1.827,101.16
1.7986,108.19
1.7722,112.98
1.7449,115.42
1.7175,116.2
1.6901,115.76
1.6647,114.64
1.6383,113.07
1.6109,111.22
1.5855,109.41
1.5621,107.51
1.5376,105.55
1.5122,103.5
1.4868,101.3
1.4663,99.007
1.4487,96.662
1.4321,94.562
1.4164,92.853
1.4008,91.632
1.3822,90.752
1.3617,89.971
1.3372,89.238
1.3089,88.554
1.2805,87.919
1.2581,87.284
1.2473,86.698
1.2502,86.161
1.2737,85.673
1.3275,85.233
1.4154,84.793
1.5357,84.305
1.6804,83.865
1.8368,83.426
1.9932,83.035
2.1369,82.693
2.259,82.351
2.3558,82.107
2.4252,81.863
2.4682,81.618
2.4868,81.374
2.4868,81.179
2.4731,80.935
2.4467,80.69
2.4106,80.3
2.3666,79.86
2.3177,79.372
2.2688,78.883
2.2199,78.297
2.172,77.809
2.1261,77.418
2.0811,77.32
2.0411,77.467
2.0029,78.444
1.9638,81.032
1.9247,86.112
1.8856,93.488
1.8456,101.79
1.8035,109.07
1.7634,114.05
1.7253,116.69
1.6891,117.47
1.654,117.32
1.6217,116.44
1.5924,115.17
1.5679,113.66
1.5464,112.05
1.5249,110.39
1.5054,108.63
1.4848,106.63
1.4633,104.38
1.4448,101.94
1.4272,99.3
1.4086,96.809
1.3881,94.611
1.3675,93.048
1.3431,91.925
1.3196,91.094
1.2972,90.41
1.2708,89.824
1.2454,89.189
1.2248,88.554
1.2141,87.919
1.2209,87.236
1.2532,86.601
1.3177,85.917
1.4154,85.282
1.5435,84.745
1.694,84.305
1.8553,83.914
1.9961,83.572
2.1193,83.23
2.2405,82.986
2.3451,82.742
2.4262,82.498
2.4839,82.253
2.5191,82.009
2.5357,81.716
2.5357,81.472
2.522,81.228
2.4946,80.984
2.4555,80.69
2.4145,80.251
2.3695,79.762
2.3167,79.176
2.26,78.59
2.2033,78.102
2.1486,77.76
2.1417,77.76
2.1603,78.444
2.1476,80.544
2.1212,84.989
2.088,91.925
2.0528,100.37
2.0176,108.24
1.9873,113.9
1.9609,117.18
1.9326,118.45
1.9032,118.45
1.8749,117.62
1.8475,116.35
1.8211,114.93
1.7977,113.32
1.7752,111.66
1.7537,109.95
1.7351,108.04
1.7185,105.85
1.7048,103.45
1.6931,100.72
1.6774,98.128
1.6588,95.686
1.6393,93.781
1.6197,92.413
1.5992,91.436
1.5777,90.606
1.5543,89.922
1.5318,89.287
1.5132,88.701
1.5034,87.968
1.5103,87.382
1.5308,86.747
1.5709,86.063
1.6442,85.428
1.7488,84.793
1.8768,84.11
2.0205,83.475
2.1672,82.791
2.3089,82.156
2.435,81.57
2.5396,80.935
2.6207,80.446
2.6774,79.909
2.7077,79.469
2.7204,79.127
2.7234,78.688
2.7155,78.297
2.6979,77.858
2.6706,77.32
2.6354,76.734
2.5943,76.05
2.5455,75.318
2.4927,74.536
2.4399,73.852
2.3871,73.364
2.3392,73.12
2.2962,73.315
2.2512,74.341
2.2033,77.125
2.1554,82.351
2.1114,89.922
2.0704,98.323
2.0313,105.5
1.9951,110.29
1.9638,112.78
1.9355,113.61
1.9071,113.32
1.8778,112.39
1.8524,110.97
1.8299,109.36
1.8065,107.6
1.7801,105.75
1.7488,103.84
1.7155,101.79
1.6813,99.495
1.6481,96.858
1.6158,94.171
1.5846,91.68
1.5552,89.629
1.5279,88.164
1.5073,87.187
1.4897,86.503
1.4682,85.868
1.4448,85.233
1.4203,84.598
1.3969,83.914
1.3812,83.23
1.3822,82.498
1.4066,81.814
1.4604,81.179
1.5435,80.544
1.653,80.007
1.7801,79.469
1.8974,79.03
2.0068,78.737
2.1212,78.346
2.2268,78.102
2.3128,77.858
2.3793,77.613
2.4242,77.467
2.4497,77.32
2.4575,77.125
2.4497,76.881
2.4301,76.636
2.3988,76.294
2.3617,75.855
2.3206,75.366
2.2708,74.78
2.216,74.243
2.1593,73.803
2.1036,73.51
2.0489,73.364
1.999,73.413
1.9541,74.048
1.914,75.855
1.8778,79.665
1.8446,86.063
1.8152,94.318
1.7898,102.43
1.7683,108.73
1.7439,112.54
1.7185,114.25
1.6911,114.54
1.6637,114
1.6364,112.88
1.608,111.36
1.5777,109.66
1.5445,107.95
1.5112,106.14
1.48,104.23
1.4545,102.18
1.433,99.886
1.4096,97.297
1.3861,94.855
1.3656,92.755
1.347,91.192
1.3304,90.117
1.3138,89.385
1.2962,88.75
1.2766,88.164
1.26,87.626
1.2473,87.04
1.2424,86.405
1.2493,85.721
1.2708,85.135
1.3157,84.549
1.3871,84.061
1.4868,83.621
1.6139,83.182
1.7605,82.742
1.9159,82.351
2.0684,82.058
2.2092,81.716
2.3294,81.423
2.4242,81.179
2.4888,80.935
2.5298,80.788
2.5562,80.69
2.5679,80.495
2.5679,80.3
2.5552,80.055
2.5308,79.762
2.4976,79.323
2.4585,78.786
2.4164,78.248
2.3724,77.662
2.3294,77.223
2.2874,76.978
2.2522,76.881
2.2219,77.174
2.1887,78.444
2.1535,81.277
2.1183,86.601
2.0831,94.074
2.0479,102.04
2.0137,108.82
1.9834,113.17
1.957,115.22
1.9306,115.76
1.9022,115.17
1.8768,114
1.8534,112.44
1.828,110.68
1.8025,108.87
1.7761,106.97
1.7498,105.11
1.7234,103.11
1.6979,100.91
1.6735,98.567
1.651,96.174
1.6305,94.123
1.61,92.413
1.5894,91.241
1.5718,90.362
1.5533,89.678
1.5279,88.994
1.4985,88.359
1.4702,87.822
1.4467,87.187
1.436,86.601
1.4457,86.063
1.4829,85.477
1.5503,84.989
1.6491,84.5
1.7742,84.012
1.8983,83.572
2.0225,83.182
2.1623,82.84
2.3011,82.547
2.4242,82.302
2.5259,82.009
2.6041,81.716
2.6588,81.472
2.6911,81.228
2.7038,80.984
2.6989,80.788
2.6784,80.495
2.6471,80.153
2.6109,79.762
2.5718,79.225
2.5269,78.737
2.478,78.102
2.4291,77.613
2.3812,77.174
2.3363,76.978
2.2933,76.978
2.2512,77.662
2.2072,79.665
2.1652,83.865
2.1251,90.508
2.0899,98.567
2.0587,106.14
2.0264,111.66
1.998,114.73
1.9736,115.91
1.9521,115.76
1.9306,114.78
1.9101,113.42
1.8895,111.8
1.869,110.05
1.8514,108.29
1.8368,106.48
1.8231,104.62
1.8123,102.57
1.8025,100.23
1.7898,97.786
1.7761,95.49
1.7605,93.488
1.7419,91.973
1.7185,90.948
1.6911,90.117
1.6598,89.482
1.6246,88.847
1.5865,88.31
1.5513,87.675
1.5415,87.04
1.5523,86.405
1.5679,85.819
1.6041,85.233
1.6686,84.696
1.7625,84.158
1.8817,83.67
2.0176,83.279
2.1593,82.937
2.2962,82.547
2.4174,82.253
2.5161,82.009
2.5914,81.716
2.6383,81.472
2.6628,81.228
2.6745,80.984
2.6745,80.739
2.6618,80.446
2.6383,80.104
2.6061,79.762
2.567,79.372
2.5239,78.883
2.4761,78.297
2.4272,77.76
2.3793,77.223
2.3372,76.881
2.3001,76.783
2.263,77.125
2.2268,78.492
2.1906,81.863
2.1535,87.871
2.1183,95.881
2.0821,104.18
2.0459,110.88
2.0108,114.98
1.9775,116.79
1.9472,117.18
1.9218,116.64
1.8983,115.57
1.8729,114.2
1.8475,112.68
1.825,111.12
1.8035,109.56
1.781,107.8
1.7595,105.85
1.739,103.6
1.7195,101.11
1.7019,98.567
1.6833,96.125
1.6647,94.171
1.6491,92.755
1.6325,91.68
1.61,90.801
1.5865,90.117
1.564,89.482
1.5455,88.847
1.5308,88.261
1.5269,87.626
1.5386,86.991
1.5718,86.308
1.6334,85.673
1.7224,85.135
1.8172,84.549
1.9208,84.11
2.0508,83.719
2.1906,83.475
2.3245,83.182
2.4428,82.937
2.5406,82.693
2.6158,82.351
2.6696,82.107
2.7058,81.863
2.7253,81.57
2.7283,81.228
2.7165,80.935
2.696,80.544
2.6686,80.153
2.6315,79.762
2.5885,79.176
2.5415,78.59
2.4936,78.053
2.4487,77.564
2.4057,77.223
2.3646,77.223
2.3245,77.906
2.2874,80.104
2.2522,84.696
2.2199,91.68
2.1906,100.13
2.1593,107.95
1.8974,76.881
2.045,76.441
2.1848,76.05
2.3079,75.66
2.4096,75.318
2.4868,74.976
2.5386,74.683
2.5699,74.487
2.5826,74.243
2.5806,74.048
2.5679,73.755
2.5435,73.51
2.5073,73.168
2.4624,72.778
2.4115,72.387
2.3568,71.85
2.2991,71.312
2.2395,70.824
2.1818,70.384
2.1261,70.091
2.0792,70.042
2.0352,70.482
1.9892,71.996
1.9443,75.366
1.8993,81.179
1.8553,88.945
1.8123,96.662
1.7703,102.67
1.7292,106.28
1.6911,107.75
1.6549,107.7
1.6207,106.82
1.5865,105.55
1.5591,103.99
1.5367,102.28
1.5122,100.67
1.4868,99.154
1.4643,97.591
1.4418,95.881
1.4213,93.927
1.4027,91.876
1.3851,89.824
1.3656,87.968
1.3451,86.698
1.3226,85.917
1.304,85.428
1.2884,85.038
1.2688,84.549
1.2444,84.061
1.219,83.621
1.1965,83.035
1.1828,82.547
1.1838,82.058
1.2082,81.618
1.263,81.13
1.348,80.739
1.4614,80.446
1.5982,80.153
1.7283,79.909
1.8524,79.811
1.9873,79.665
2.1153,79.469
2.2258,79.372
2.3118,79.372
2.3744,79.323
2.4135,79.03
2.433,78.932
2.4379,78.786
2.4311,78.59
2.4135,78.248
2.391,77.906
2.3627,77.613
2.3284,77.174
2.2893,76.539
2.2473,76.05
2.2053,75.757
2.1632,75.464
2.1222,75.22
2.0841,75.464
2.0499,76.685
2.0176,79.469
1.9853,84.598
1.958,91.876
1.9335,99.74
1.9071,106.28
1.8788,110.24
1.8514,112
1.826,112.19
1.8035,111.36
1.782,110
1.7625,108.29
1.7468,106.72
1.7302,105.11
1.7136,103.45
1.6989,101.74
1.6862,100.03
1.6745,98.177
1.6628,96.076
1.65,93.781
1.6393,91.876
1.6276,90.41
1.6139,89.434
1.6002,88.603
1.5836,88.066
1.565,87.675
1.5455,87.04
1.5249,86.308
1.5093,85.624
1.5005,85.135
1.4985,84.549
1.5122,83.865
1.5513,83.182
1.6197,82.742
1.7155,82.253
1.8348,81.667
1.9707,81.13
2.1134,80.739
2.2512,80.495
2.3783,80.153
2.4868,79.762
2.563,79.469
2.6139,79.372
2.653,79.225
2.6755,78.932
2.6813,78.59
2.6735,78.492
2.65,78.297
2.6158,77.906
2.5738,77.418
2.5269,77.027
2.477,76.685
2.4272,76.197
2.3812,75.562
2.3402,75.171
2.3011,74.976
2.263,75.073
2.2258,75.366
2.1906,76.881
2.1564,80.446
2.1222,86.503
2.0899,94.123
2.0587,101.6
2.0283,107.31
1.999,110.68
1.9687,111.85
1.9433,111.56
1.9218,110.44
1.8983,109.12
1.8739,107.6
1.8485,105.99
1.825,104.38
1.8025,102.91
1.781,101.55
1.7595,99.886
1.739,97.884
1.7175,95.783
1.697,93.878
1.6794,92.169
1.6618,90.752
1.6403,89.629
1.6149,88.847
1.5855,88.359
1.5543,87.724
1.522,86.991
1.4897,86.259
1.4624,85.673
1.4467,85.135
1.4506,84.354
1.478,83.67
1.5347,83.133
1.6061,82.742
1.694,82.253
1.8133,81.716
1.9531,81.277
2.0997,80.984
2.2405,80.739
2.3675,80.349
2.4731,80.007
2.5543,79.762
2.6129,79.567
2.6491,79.323
2.6676,78.981
2.6706,78.688
2.6598,78.492
2.6373,78.297
2.607,78.004
2.5709,77.613
2.5288,77.174
2.4829,76.783
2.434,76.294
2.3949,75.806
2.3607,75.318
2.3216,75.073
2.2805,75.122
2.2414,75.904
2.2082,78.248
2.176,82.84
2.1408,89.971
2.1056,98.323
2.0694,105.7
2.0332,110.63
2,113.07
1.9677,113.66
1.9374,113.32
1.9081,112.29
1.8798,110.92
1.8534,109.51
1.8328,108.19
1.8143,106.87
1.7928,105.5
1.7713,103.94
1.7498,102.13
1.7273,100.03
1.7058,97.884
1.6862,95.637
1.6686,93.536
1.651,91.925
1.6334,90.801
1.6168,89.971
1.6002,89.385
1.5846,88.75
1.5709,88.115
1.5562,87.48
1.5435,86.796
1.5396,86.161
1.5523,85.477
1.5885,84.842
1.653,84.158
1.7478,83.572
1.871,83.035
2.0137,82.547
2.1652,82.107
2.2952,81.716
2.4076,81.423
2.52,81.179
2.6178,80.886
2.694,80.544
2.7498,80.251
2.7879,79.909
2.8113,79.762
2.8192,79.469
2.8143,79.176
2.7957,78.883
2.7674,78.492
2.7312,78.102
2.6891,77.662
2.6442,77.125
2.5943,76.539
2.5425,76.001
2.4907,75.562
2.4399,75.366
2.39,75.611
2.3412,76.636
2.2942,79.421
2.2483,84.745
2.2033,92.364
2.1584,100.67
2.1163,107.55
2.0772,111.8
2.0342,113.66
1.9912,113.9
1.9511,113.37
1.913,112.24
1.8768,110.88
1.8436,109.36
1.8133,107.95
1.7859,106.53
1.7634,105.06
1.7458,103.31
1.7331,101.11
1.7263,98.665
1.7214,96.174
1.7165,93.683
1.7126,91.485
1.7087,89.727
1.7028,88.408
1.695,87.48
1.6823,86.747
1.6647,85.966
1.6432,85.135
1.6197,84.158
1.5982,83.182
1.5865,82.351
1.5914,81.618
1.6188,80.788
1.6764,79.909
1.7664,79.176
1.8866,78.541
2.0283,78.102
2.1799,77.662
2.3284,77.174
2.4633,76.685
2.5777,76.246
2.6676,76.001
2.7341,75.806
2.7752,75.562
2.7957,75.22
2.8045,74.878
2.8006,74.536
2.784,74.341
2.7556,74.097
2.7155,73.755
2.6667,73.168
2.6119,72.533
2.5523,71.996
2.4897,71.508
2.4262,70.97
2.3715,70.482
2.3206,70.091
2.2678,70.042
2.216,70.873
2.1642,73.071
2.1134,77.369
2.0606,84.061
2.0078,92.071
1.956,99.544
1.9052,104.87
1.8553,107.7
1.8084,108.48
1.7703,107.99
1.738,106.87
1.7067,105.55
1.6784,104.18
1.652,102.82
1.6256,101.35
1.6002,99.789
1.5758,98.177
1.5523,96.418
1.5298,94.513
1.5054,92.315
1.479,89.971
1.4526,87.871
1.4321,86.405
1.4145,85.624
1.393,85.135
1.3675,84.598
1.3402,84.012
1.3118,83.23
1.2845,82.498
1.262,81.716
1.2483,81.13
1.2532,80.446
1.2825,79.762
1.3392,78.981
1.4115,78.444
1.5034,78.102
1.6285,77.858
1.7742,77.662
1.9267,77.418
2.0733,77.125
2.2053,76.929
2.3148,76.929
2.3988,76.978
2.4565,77.027
2.4917,77.027
2.5083,76.978
2.5093,76.929
2.4985,76.978
2.4809,76.978
2.4536,76.881
2.4174,76.539
2.3734,76.099
2.3245,75.66
2.2737,75.318
2.2229,75.171
2.174,75.122
2.129,75.073
2.088,75.22
2.0479,76.294
2.0137,78.981
1.9824,84.061
1.9501,91.241
1.9169,99.007
1.8827,105.41
1.8504,109.51
1.8192,111.36
1.7889,111.66
1.7595,111.07
1.7302,109.8
1.7028,108.19
1.6774,106.43
1.6559,104.87
1.6393,103.45
1.6256,102.04
1.6119,100.37
1.5992,98.421
1.5865,96.321
1.5748,94.318
1.567,92.608
1.5591,91.192
1.5494,90.069
1.5396,89.092
1.5279,88.506
1.5161,87.968
1.5073,87.48
1.4995,86.845
1.4888,86.063
1.4809,85.233
1.4819,84.598
1.5015,84.061
1.5464,83.475
1.6207,82.84
1.7243,82.156
1.8524,81.618
1.998,81.228
2.1515,80.984
2.3021,80.69
2.4233,80.349
2.5181,80.055
2.6061,79.811
2.6755,79.665
2.7234,79.469
2.7507,79.225
2.7586,78.981
2.7517,78.688
2.7331,78.346
2.7048,78.102
2.6696,77.858
2.6305,77.467
2.5894,76.978
2.5474,76.49
2.5044,75.904
2.4614,75.562
2.4184,75.318
2.3773,75.22
2.3372,75.464
2.2981,76.783
2.261,80.007
2.2248,85.721
2.1887,93.243
2.1505,100.81
2.1114,106.72
2.0772,110.09
2.045,111.36
2.0098,111.17
1.9736,110.09
1.9394,108.68
1.9052,107.16
1.8719,105.7
1.8407,104.14
1.8104,102.67
1.7801,101.25
1.7507,99.74
1.7224,97.932
1.6999,95.783
1.6833,93.536
1.65,91.632
1.608,90.215
1.5787,89.189
1.5562,88.408
1.5357,87.871
1.5161,87.382
1.4956,86.845
1.4741,86.259
1.4536,85.428
1.4409,84.696
1.4438,84.11
1.4614,83.572
1.5005,82.937
1.5738,82.253
1.6804,81.716
1.8172,81.374
1.9726,80.984
2.132,80.544
2.2835,80.104
2.4184,79.86
2.5298,79.665
2.6139,79.421
2.6716,79.176
2.7038,78.981
2.7165,78.883
2.7185,78.786
2.7087,78.492
2.6882,78.199
2.6579,77.858
2.6197,77.613
2.5738,77.174
2.523,76.539
2.4702,76.001
2.4194,75.562
2.3705,75.22
2.3236,74.927
2.2815,74.878
2.2405,75.562
2.1965,77.76
2.1515,82.156
2.1065,88.945
2.0635,97.053
2.0215,104.48
1.9795,109.66
1.9374,112.24
1.8974,112.78
1.8583,112.39
1.8221,111.51
1.7928,110.29
1.7664,108.87
1.738,107.41
1.7097,106.19
1.6813,105.01
1.6549,103.5
1.6295,101.74
1.6041,99.886
1.5797,97.786
1.5562,95.686
1.5327,93.732
1.5112,92.169
1.4888,91.192
1.4702,90.41
1.4545,89.678
1.4321,88.945
1.4047,88.261
1.3783,87.626
1.3597,86.943
1.3509,86.112
1.3597,85.379
1.3969,84.793
1.4673,84.354
1.5718,83.719
1.7077,83.182
1.8426,82.693
1.9775,82.351
2.1339,82.058
2.2903,81.667
2.434,81.277
2.5552,81.032
2.651,80.886
2.7195,80.544
2.7625,80.153
2.784,80.007
2.7879,79.811
2.7771,79.567
2.7556,79.127
2.7243,78.737
2.6823,78.444
2.6325,78.004
2.5767,77.369
2.52,76.734
2.4643,76.246
2.4096,76.001
2.3568,75.806
2.306,75.904
2.2581,76.978
2.2131,80.055
2.1691,85.575
2.13,93.097
2.0948,101.25
2.0577,107.99
2.0205,112.24
1.9834,114
1.9472,114.1
1.914,113.51
1.8827,112.49
1.8524,111.32
1.8221,109.85
1.7928,108.53
1.7644,107.36
1.741,106.14
1.7214,104.48
1.6999,102.47
1.6764,100.33
1.653,97.932
1.6305,95.49
1.607,93.195
1.5836,91.387
1.5582,90.117
1.5318,89.189
1.5054,88.261
1.479,87.284
1.4487,86.503
1.4252,85.721
1.4076,84.94
1.3959,83.865
1.4057,82.937
1.4438,82.156
1.5161,81.423
1.6246,80.544
1.7664,79.762
1.9296,79.127
2.1017,78.59
2.2698,78.102
2.4233,77.467
2.5406,76.978
2.6295,76.685
2.7087,76.343
2.7693,76.001
2.8084,75.562
2.8309,75.318
2.8368,75.073
2.826,74.683
2.8016,74.194
2.7654,73.755
2.7195,73.364
2.6667,72.875
2.608,72.24
2.5503,71.605
2.4956,71.166
2.437,70.873
2.3773,70.629
2.3177,70.629
2.2581,71.361
2.2004,73.657
2.1437,78.102
2.088,84.842
2.0313,92.853
1.9765,100.18
1.9238,105.16
1.8759,107.55
1.8348,108.04
1.7928,107.6
1.7488,106.72
1.7048,105.55
1.6628,104.14
1.6237,102.67
1.5855,101.35
1.5474,100.13
1.5132,98.567
1.4848,96.662
1.4594,94.513
1.434,92.218
1.4115,89.922
1.392,87.822
1.3695,86.259
1.3451,85.282
1.3187,84.696
1.2893,84.061
1.2561,83.279
1.2209,82.547
1.1857,81.912
1.1535,81.228
1.13,80.349
1.1281,79.616
1.1476,78.932
1.1955,78.346
1.2835,77.76
1.4086,77.125
1.5621,76.685
1.7331,76.343
1.9091,76.05
2.0762,75.757
2.2219,75.415
2.3402,75.318
2.4291,75.22
2.4927,75.171
2.5337,75.073
2.5533,75.073
2.5572,75.22
2.5494,75.366
2.5298,75.22
2.4985,75.073
2.4575,74.78
2.4086,74.634
2.3529,74.292
2.2923,73.852
2.2317,73.657
2.174,73.657
2.1183,73.999
2.0704,74.487
2.0274,75.611
1.9814,78.444
1.9355,83.719
1.8886,91.045
1.8426,98.909
1.7977,105.41
1.7546,109.56
1.7126,111.36
1.6725,111.56
1.6373,110.73
1.6061,109.51
1.5767,108.04
1.5523,106.63
1.5308,105.06
1.5073,103.55
1.4839,102.04
1.4624,100.57
1.4418,98.812
1.4223,96.809
1.4047,94.611
1.3891,92.608
1.3744,91.045
1.3607,89.971
1.35,89.238
1.3431,88.701
1.3372,88.164
1.3265,87.675
1.3118,86.991
1.2972,86.259
1.2884,85.428
1.2913,84.745
1.3128,84.158
1.3617,83.572
1.4448,82.937
1.564,82.449
1.7126,82.009
1.8807,81.618
2.0332,81.228
2.1711,80.886
2.3138,80.495
2.4457,80.153
2.5562,79.909
2.6432,79.616
2.7048,79.323
2.7429,79.127
2.7674,78.932
2.7791,78.737
2.7703,78.492
2.7468,78.102
2.7126,77.809
2.6706,77.418
2.6188,76.929
2.564,76.343
2.5083,75.855
2.4526,75.464
2.4008,75.22
2.3529,75.22
2.306,75.66
2.259,77.32
2.2121,80.984
2.1652,87.138
2.1202,94.806
2.0811,102.23
2.045,107.75
2.0059,110.83
1.9668,111.8
1.9286,111.41
1.8915,110.39
1.8563,109.07
1.824,107.7
1.7937,106.24
1.7654,104.82
1.7341,103.35
1.7028,101.94
1.6764,100.33
1.653,98.421
1.6266,96.369
1.5992,94.171
1.5718,92.315
1.5455,90.948
1.52,89.922
1.4966,89.189
1.4751,88.554
1.4526,87.968
1.4301,87.431
1.4086,86.747
1.392,86.063
1.3842,85.379
1.3881,84.696
1.4115,84.061
1.4614,83.426
1.5415,82.791
1.6549,82.253
1.7986,81.716
1.9638,81.374
2.1339,80.984
2.2962,80.69
2.4409,80.349
2.5621,80.251
2.6461,80.104
2.7019,79.909
2.7439,79.665
2.7693,79.469
2.7801,79.323
2.7761,79.03
2.7576,78.737
2.7253,78.346
2.6823,78.004
2.6315,77.564
2.5748,77.027
2.5152,76.441
2.4614,75.855
2.4125,75.464
2.3617,75.415
2.3138,75.611
2.2698,76.636
2.2287,79.372
2.1896,84.745
2.1505,92.364
2.1105,100.62
2.0694,107.36
2.0274,111.51
1.9863,113.32
1.9462,113.51
1.912,112.78
1.8807,111.61
1.8465,110.29
1.8123,109.07
1.7791,107.95
1.7458,106.68
1.7155,105.31
1.6891,103.84
1.6647,102.18
1.6422,100.13
1.6207,97.884
1.6002,95.686
1.5846,93.878
1.5709,92.56
1.5523,91.534
1.5308,90.655
1.5083,89.971
1.4839,89.434
1.4565,88.799
1.4291,88.115
1.4047,87.284
1.392,86.601
1.4018,85.966
1.4418,85.379
1.5161,84.598
1.6061,83.914
1.7175,83.426
1.8661,83.035
2.0352,82.693
2.2092,82.253
2.3734,81.863
2.5181,81.618
2.6373,81.374
2.7302,80.984
2.7957,80.69
2.8377,80.446
2.8592,80.3
2.8602,80.104
2.8456,79.811
2.8201,79.469
2.784,79.225
2.739,78.932
2.6891,78.444
2.6354,77.76
2.5777,77.125
2.52,76.636
2.4633,76.246
2.4057,76.05
2.349,76.343
2.2962,78.053
2.2512,81.912
2.2082,88.31
2.1603,96.321
2.1114,104.18
2.0655,110.05
2.0215,113.32
1.9795,114.34
1.9404,114.1
1.9022,113.37
1.8641,112.39
1.828,111.22
1.7937,109.95
1.7654,108.68
1.739,107.41
1.7097,106.04
1.6813,104.28
1.6569,102.18
1.6354,99.74
1.6149,97.249
1.5953,94.758
1.5767,92.511
1.5582,90.752
1.5386,89.629
1.5171,88.75
1.4917,87.919
1.4692,86.991
1.4448,86.112
1.4145,85.282
1.3871,84.403
1.3734,83.475
1.3842,82.595
1.4282,81.863
1.5093,81.13
1.6285,80.349
1.781,79.469
1.955,78.883
2.1359,78.346
2.2903,77.906
2.4203,77.418
2.5484,77.027
2.6588,76.783
2.7439,76.539
2.8045,76.197
2.8407,75.806
2.8563,75.464
2.8543,75.22
2.8358,74.976
2.8035,74.536
2.7586,74.097
2.7019,73.657
2.6452,73.217
2.5875,72.631
2.5239,71.947
2.4585,71.361
2.3939,71.068
2.3294,70.922
2.2649,71.117
2.2023,72.094
2.1408,74.878
2.0802,80.153
2.0205,87.626
1.9629,95.637
1.913,102.43
1.8671,106.82
1.8182,108.68
1.7683,108.87
1.7195,108.19
1.6745,107.26
1.6325,106.14
1.5924,104.72
1.5552,103.35
1.52,102.13
1.4868,100.91
1.4536,99.447
1.4203,97.346
1.3939,95.051
1.3715,92.608
1.346,90.215
1.3196,88.115
1.2913,86.503
1.261,85.477
1.2287,84.94
1.1965,84.305
1.1642,83.621
1.131,82.84
1.0978,82.253
1.0723,81.618
1.0616,80.788
1.0684,80.007
1.0958,79.323
1.1544,78.737
1.2502,78.199
1.3832,77.564
1.5435,77.125
1.7185,76.929
1.8964,76.734
2.0645,76.49
2.2121,76.294
2.3333,76.343
2.4262,76.49
2.4848,76.636
2.52,76.539
2.5425,76.539
2.5484,76.734
2.5386,76.783
2.5152,76.685
2.4809,76.49
2.437,76.441
2.3861,76.343
2.3275,76.099
2.2649,75.757
2.2014,75.562
2.1447,75.611
2.0948,75.806
2.043,76.197
1.9922,77.467
1.9443,80.544
1.8964,85.966
1.8514,93.097
1.8074,100.57
1.7644,106.68
1.7224,110.49
1.6823,112.1
1.6432,112.05
1.6051,111.22
1.5728,110.05
1.5455,108.73
1.523,107.26
1.5044,105.7
1.4839,104.23
1.4624,102.87
1.4438,101.25
1.4272,99.251
1.4135,97.053
1.4037,94.904
1.3969,93.048
1.392,91.436
1.3891,90.166
1.3891,89.385
1.3871,88.945
1.3812,88.359
1.3734,87.626
1.3646,86.943
1.3568,86.356
1.3529,85.721
1.3607,84.94
1.3881,84.061
1.4418,83.426
1.5279,82.937
1.6471,82.449
1.7732,81.863
1.9071,81.423
2.0674,81.228
2.2346,80.984
2.3939,80.69
2.5337,80.251
2.6491,80.007
2.737,79.811
2.7977,79.469
2.8328,79.03
2.8465,78.786
2.8446,78.688
2.8289,78.492
2.8016,78.199
2.7625,77.809
2.7165,77.467
2.6657,77.125
2.6109,76.539
2.5552,75.855
2.4985,75.366
2.4428,75.171
2.3881,75.122
2.3353,75.464
2.2845,76.978
2.2405,80.593
2.1994,86.698
2.1564,94.367
2.1153,101.89
2.0743,107.55
2.0332,110.88
1.9941,111.95
1.956,111.61
1.9179,110.68
1.8788,109.56
1.8387,108.29
1.7967,106.92
1.7546,105.55
1.7195,104.38
1.6911,103.11
1.6628,101.55
1.6344,99.544
1.6061,97.346
1.5777,95.197
1.5523,93.243
1.5288,91.485
1.5064,90.215
1.4858,89.482
1.4643,88.945
1.4418,88.359
1.4223,87.626
1.4027,86.943
1.3812,86.356
1.3646,85.721
1.3607,84.94
1.3763,84.158
1.4194,83.67
1.4976,83.182
1.6119,82.595
1.7566,82.058
1.9218,81.618
2.0968,81.423
2.2669,81.13
2.4027,80.69
2.5103,80.349
2.607,80.153
2.6852,80.007
2.7419,79.665
2.7771,79.372
2.7937,79.225
2.7937,79.127
2.7801,78.883
2.7527,78.492
2.7136,78.102
2.6637,77.858
2.6129,77.467
2.5611,76.881
2.5024,76.294
2.4448,75.855
2.39,75.611
2.3382,75.464
2.2884,75.806
2.2405,77.467
2.1926,81.374
2.1457,87.675
2.1017,95.539
2.0577,103.26
2.0156,109.07
1.9804,112.24
1.9492,113.17
1.914,112.78
1.8788,112.05
1.8456,111.07
1.8123,109.95
1.7801,108.68
1.7498,107.55
1.7224,106.53
1.696,105.31
1.6716,103.7
1.6481,101.69
1.6305,99.495
1.6149,97.2
1.5963,94.855
1.5767,92.95
1.5562,91.632
1.5357,90.801
1.5132,90.117
1.4888,89.287
1.4614,88.554
1.4321,87.968
1.4066,87.382
1.391,86.601
1.39,85.819
1.4057,85.184
1.4467,84.598
1.5239,84.012
1.6373,83.377
1.782,82.84
1.9511,82.547
2.1329,82.156
2.3109,81.716
2.4731,81.374
2.6129,81.032
2.7234,80.886
2.8045,80.544
2.8534,80.153
2.8798,79.86
2.8925,79.762
2.8905,79.567
2.8759,79.225
2.8495,78.883
2.8113,78.541
2.7625,78.199
2.7077,77.613
2.6491,76.929
2.5894,76.343
2.5288,76.001
2.4702,75.66
2.4194,75.415
2.3724,75.66
2.3245,77.027
2.2766,80.446
2.2297,86.161
2.1838,93.878
2.1388,101.94
2.0958,108.24
2.0528,111.85
2.0088,113.12
1.9658,113.07
1.9238,112.44
1.8866,111.51
1.8534,110.29
1.8211,109.07
1.7879,107.85
1.7556,106.68
1.7234,105.31
1.696,103.55
1.6716,101.55
1.6461,99.3
1.6217,96.858
1.5973,94.367
1.5728,92.169
1.5474,90.557
1.5259,89.434
1.5064,88.506
1.48,87.431
1.4497,86.503
1.4194,85.673
1.392,84.793
1.3724,83.865
1.3666,82.84
1.3812,82.107
1.4252,81.374
1.5054,80.544
1.6237,79.665
1.7498,78.981
1.8856,78.444
2.0518,77.906
2.2268,77.32
2.3949,76.734
2.5425,76.343
2.6628,76.05
2.7527,75.757
2.8123,75.366
2.8475,75.073
2.8612,74.878
2.8583,74.634
2.8426,74.243
2.8055,73.852
2.7654,73.559
2.7312,73.315
2.6833,72.875
2.6266,72.24
2.565,71.605
2.5024,71.117
2.4389,70.531
2.3744,70.042
2.3089,69.749
2.2434,69.994
2.1789,71.068
2.1232,73.657
2.0714,78.59
2.0156,85.868
1.9599,93.976
1.9052,100.81
1.8514,105.01
1.7986,106.72
1.7458,106.97
1.695,106.43
1.6461,105.31
1.6002,103.94
1.5601,102.62
1.523,101.45
1.4936,100.18
1.4692,98.763
1.4418,97.102
1.4125,95.295
1.3842,93.292
1.3548,90.997
1.3226,88.603
1.2884,86.698
1.2551,85.428
1.2219,84.549
1.1887,83.816
1.1554,83.035
1.1281,82.302
1.1036,81.618
1.0753,80.788
1.0479,79.86
1.0303,78.981
1.0323,78.346
1.0616,77.76
1.1251,77.027
1.2248,76.343
1.3656,75.855
1.5396,75.562
1.7292,75.171
1.8983,74.731
2.0499,74.341
2.2043,74.194
2.3412,73.999
2.4516,73.803
2.5347,73.608
2.5885,73.608
2.6178,73.755
2.6285,73.803
2.6237,73.803
2.6022,73.852
2.567,73.999
2.5191,74.048
2.4692,73.901
2.4164,73.657
2.3548,73.413
2.2893,73.364
2.2239,73.364
2.1584,73.364
2.0938,73.559
2.0342,74.243
1.9795,75.66
1.9286,78.688
1.8817,83.865
1.8358,91.192
1.7967,98.909
1.7605,105.16
1.7214,108.82
1.6794,110.19
1.6354,110.24
1.5934,109.51
1.5543,108.29
1.5181,106.82
1.4819,105.31
1.4477,103.94
1.4184,102.57
1.3939,101.11
1.3724,99.544
1.3597,97.786
1.3519,95.93
1.3421,93.927
1.3304,92.071
1.3196,90.557
1.3099,89.629
1.3001,88.994
1.2893,88.359
1.2796,87.626
1.2698,86.943
1.26,86.259
1.2522,85.575
1.2512,84.745
1.2581,83.914
1.2796,83.279
1.3275,82.742
1.4076,82.107
1.5239,81.472
1.6755,80.984
1.8543,80.593
2.0479,80.3
2.2424,80.007
2.4223,79.616
2.5787,79.323
2.7058,79.03
2.7928,78.786
2.8485,78.444
2.8866,78.053
2.9042,77.858
2.9042,77.76
2.8876,77.467
2.8573,77.174
2.8172,76.881
2.7713,76.636
2.7185,76.246
2.6608,75.806
2.6022,75.171
2.5474,74.683
2.4966,74.243
2.4438,73.901
2.391,73.755
2.3275,73.901
2.2708,75.171
2.2317,78.199
2.1867,83.572
2.1398,90.997
2.0909,98.812
2.043,105.11
1.9971,108.92
1.9501,110.29
1.911,110.19
1.8749,109.31
1.8358,108.24
1.7957,106.97
1.7556,105.6
1.7175,104.23
1.6813,103.01
1.6471,101.74
1.6149,100.33
1.5855,98.567
1.5582,96.614
1.5318,94.562
1.5132,92.657
1.4985,90.997
1.4809,89.678
1.4614,88.75
1.4389,88.066
1.4164,87.48
1.393,86.796
1.3656,85.966
1.3372,85.282
1.3118,84.696
1.2981,84.012
1.306,83.23
1.346,82.547
1.4086,82.058
1.4995,81.618
1.6334,81.13
1.7996,80.593
1.9873,80.251
2.1808,80.007
2.3636,79.665
2.523,79.372
2.653,78.981
2.7498,78.688
2.8172,78.444
2.8583,78.199
2.8749,77.906
2.8749,77.613
2.8622,77.418
2.8368,77.223
2.8016,76.929
2.7586,76.49
2.7077,76.05
2.653,75.66
2.5943,75.22
2.5337,74.731
2.4751,74.194
2.4184,73.803
2.3636,73.559
2.3167,73.657
2.2727,74.536
2.2278,76.929
2.1828,81.863
2.1378,89.238
2.0929,97.542
2.0469,104.62
1.999,109.17
1.9501,111.22
1.9022,111.66
1.8583,111.17
1.8192,110.09
1.7869,108.92
1.7586,107.75
1.7283,106.63
1.6989,105.5
1.6725,104.23
1.6461,102.87
1.6217,101.3
1.6002,99.447
1.5806,97.249
1.563,94.855
1.5464,92.657
1.5288,90.997
1.5103,89.824
1.4956,88.847
1.4809,88.115
1.4594,87.431
1.434,86.796
1.4066,86.259
1.3793,85.477
1.3597,84.793
1.3568,84.11
1.3812,83.572
1.4428,82.937
1.5445,82.351
1.6843,81.814
1.828,81.277
1.9765,80.886
2.1525,80.544
2.3343,80.153
2.5024,79.811
2.6452,79.469
2.7586,79.225
2.8426,78.932
2.8983,78.59
2.9296,78.297
2.9413,78.053
2.9374,77.858
2.9208,77.613
2.8935,77.369
2.8563,77.027
2.8094,76.783
2.7527,76.441
2.6862,76.001
2.6149,75.415
2.5406,74.878
2.4682,74.292
2.4008,73.901
2.3372,73.755
2.2786,73.999
2.2258,75.366
2.1818,78.688
2.1427,84.5
2.1007,92.315
2.0577,100.37
2.0166,106.68
1.9765,110.29
1.9365,111.61
1.8886,111.56
1.8475,110.83
1.8182,109.8
1.7869,108.73
1.7546,107.6
1.7224,106.48
1.694,105.31
1.6686,104.18
1.6403,102.82
1.609,101.06
1.5758,99.007
1.5445,96.662
1.5152,94.416
1.4858,92.413
1.4555,90.801
1.4301,89.629
1.4066,88.75
1.3842,87.919
1.3656,87.236
1.349,86.503
1.3275,85.819
1.3069,85.038
1.2972,84.305
1.3079,83.572
1.347,82.84
1.4213,82.253
1.5357,81.716
1.6862,81.179
1.8641,80.739
2.0577,80.3
2.2287,79.909
2.3773,79.567
2.5259,79.225
2.6579,78.932
2.7644,78.59
2.8456,78.297
2.8993,78.004
2.9306,77.76
2.9413,77.418
2.9335,77.125
2.911,76.783
2.8759,76.49
2.828,76.197
2.7761,75.806
2.7214,75.366
2.6588,74.878
2.5787,74.243
2.4897,73.608
2.4076,72.924
2.3304,72.289
2.2571,71.752
2.1887,71.508
2.1251,71.947
2.0645,73.803
2.0049,78.004
1.9531,84.745
1.9062,92.853
1.8563,100.23
1.8055,105.26
1.7537,107.55
1.7038,107.95
1.654,107.31
1.6061,106.19
1.5591,105.01
1.5122,103.7
1.4653,102.43
1.4203,101.11
1.3773,99.886
1.3431,98.47
1.3128,96.858
1.2786,95.002
1.2454,92.853
1.216,90.606
1.1867,88.554
1.1574,86.943
1.13,85.673
1.0997,84.793
1.0665,84.061
1.0293,83.279
0.98925,82.449
0.95406,81.57
0.9218,80.593
0.88856,79.762
0.86804,78.786
0.87195,78.004
0.91496,77.223
1.0059,76.49
1.1457,75.855
1.3284,75.318
1.5445,74.878
1.7742,74.438
1.9961,73.999
2.1975,73.559
2.3519,73.168
2.4653,72.778
2.5591,72.485
2.6285,72.192
2.6706,71.85
2.6882,71.557
2.6852,71.312
2.6637,71.068
2.6266,70.726
2.5758,70.482
2.5142,70.189
2.4448,69.847
2.3763,69.505
2.3089,69.114
2.2346,68.626
2.1584,68.04
2.0821,67.503
2.0078,67.063
1.9365,66.721
1.8651,66.623
1.7967,66.916
1.7312,68.089
1.6647,71.117
1.5992,76.49
1.5376,83.914
1.4868,91.729
1.4409,97.884
1.39,101.35
1.3392,102.57
1.2874,102.38
1.2385,101.45
1.1935,100.23
1.1505,98.86
1.1105,97.542
1.0733,96.223
1.0342,95.002
1.0029,93.732
0.98925,92.413
0.97947,90.85
0.96579,89.092
0.95015,87.236
0.93353,85.575
0.91593,84.305
0.89932,83.475
0.87879,82.986
0.85533,82.595
0.82893,82.253
0.79863,81.716
0.76637,81.277
0.73412,80.788
0.71359,80.3
0.70674,79.811
0.71261,79.323
0.7478,78.932
0.82307,78.59
0.94721,78.444
1.1144,78.199
1.3157,78.004
1.5367,77.858
1.7576,77.76
1.9638,77.662
2.1466,77.564
2.2825,77.369
2.3793,77.125
2.4565,76.881
2.5103,76.685
2.5396,76.49
2.5455,76.343
2.5308,76.246
2.4995,76.05
2.4536,75.855
2.3978,75.66
2.3402,75.415
2.2825,75.122
2.2239,74.683
2.172,74.194
2.1271,73.657
2.0831,73.12
2.0371,72.68
1.9932,72.387
1.9521,72.289
1.914,72.68
1.8778,74.097
1.8446,77.564
1.8143,83.377
1.783,90.948
1.7527,98.323
1.7283,103.84
1.7058,106.82
1.6794,107.75
1.652,107.36
1.6256,106.28
1.6002,105.01
1.5758,103.55
1.5533,102.18
1.5327,100.81
1.5103,99.447
1.4878,98.128
1.4643,96.662
1.4418,95.099
1.4233,93.292
1.4066,91.485
1.3881,89.824
1.3685,88.359
1.349,87.382
1.3304,86.552
1.3109,85.868
1.2874,85.233
1.262,84.549
1.2326,83.865
1.2033,83.182
1.1818,82.449
1.175,81.667
1.1896,80.984
1.2326,80.446
1.3167,79.86
1.4457,79.372
1.6158,78.932
1.8152,78.541
2.0293,78.102
2.2444,77.809
2.4448,77.418
2.6168,77.125
2.7537,76.734
2.8543,76.441
2.915,76.05
2.9453,75.757
2.9609,75.464
2.9599,75.22
2.9413,74.976
2.9091,74.78
2.8651,74.536
2.8113,74.292
2.7478,73.999
2.6804,73.608
2.6119,73.217
2.5425,72.778
2.4809,72.289
2.4233,71.85
2.3627,71.41
2.3021,71.117
2.2424,71.068
2.1828,71.508
2.1222,72.973
2.0645,76.49
2.0068,82.449
1.9482,90.117
1.8935,97.688
1.8377,103.35
1.7898,106.43
1.7507,107.41
1.7107,107.12
1.6706,106.19
1.6305,104.92
1.5914,103.7
1.5543,102.38
1.5181,101.11
1.4829,99.935
1.4477,98.763
1.4145,97.493
1.3832,95.979
1.3529,94.123
1.3294,92.12
1.3011,90.117
1.2727,88.408
1.2483,87.187
1.217,86.308
1.1848,85.624
1.1496,84.94
1.1095,84.305
1.0684,83.621
1.0303,82.986
1.0029,82.253
0.99316,81.57
1.0029,80.886
1.0753,80.153
1.1711,79.616
1.2688,79.03
1.4252,78.59
1.6237,78.199
1.8465,77.809
2.0762,77.467
2.2923,77.223
2.4829,76.929
2.6393,76.636
2.7566,76.294
2.8368,76.001
2.8817,75.66
2.8993,75.366
2.8993,75.073
2.8827,74.78
2.8524,74.634
2.8094,74.438
2.7527,74.194
2.6872,73.901
2.6149,73.608
2.5396,73.315
2.4643,72.875
2.392,72.436
2.3314,71.947
2.2776,71.508
2.2219,71.068
2.1652,70.824
2.1075,70.922
2.0499,71.752
1.9902,74.048
1.9306,78.786
1.871,85.819
1.8152,93.927
1.8123,100.91
1.8377,105.55
1.8328,107.7
1.8182,107.99
1.7977,107.41
1.7713,106.38
1.7429,105.16
1.7136,103.94
1.6833,102.82
1.653,101.69
1.6246,100.57
1.5963,99.349
1.567,97.981
1.5386,96.369
1.5112,94.416
1.4897,92.364
1.4731,90.362
1.4555,88.75
1.4379,87.48
1.4194,86.552
1.3998,85.721
1.3793,85.135
1.3568,84.5
1.3314,83.865
1.3079,83.23
1.2913,82.547
1.2903,81.863
1.3157,81.228
1.3627,80.544
1.4389,80.007
1.5591,79.421
1.7165,78.981
1.9022,78.541
2.1026,78.248
2.3021,77.906
2.4858,77.613
2.6422,77.32
2.7674,77.027
2.8602,76.685
2.9247,76.294
2.9599,75.904
2.9736,75.562
2.9756,75.22
2.9638,74.927
2.9374,74.683
2.8993,74.438
2.8495,74.194
2.7908,73.999
2.7263,73.657
2.6569,73.364
2.5855,73.071
2.5161,72.631
2.4497,72.094
2.392,71.654
2.3402,71.215
2.2864,70.922
2.2346,70.873
2.1857,71.361
2.1359,73.217
2.087,77.32
2.0411,83.865
1.9951,91.778
1.9492,99.056
1.9062,104.14
1.8651,106.63
1.8289,107.12
1.7967,106.53
1.7634,105.41
1.7312,104.18
1.6979,102.87
1.6628,101.6
1.6315,100.42
1.6031,99.3
1.5767,98.03
1.5503,96.614
1.5249,94.904
1.4995,92.853
1.4741,90.655
1.4487,88.506
1.4301,86.698
1.4154,85.233
1.3978,84.158
1.3715,83.279
1.3451,82.449
1.3245,81.57
1.2991,80.69
1.2727,79.811
1.2512,78.932
1.2463,78.102
1.2659,77.369
1.3079,76.539
1.3793,75.806
1.4966,75.122
1.652,74.487
1.8377,73.901
2.0401,73.413
2.2434,72.973
2.4291,72.533
2.5894,72.192
2.7165,71.801
2.8084,71.41
2.868,71.068
2.9013,70.677
2.913,70.384
2.9071,69.994
2.8895,69.652
2.8612,69.359
2.8231,69.066
2.7742,68.821
2.696,68.479
2.6012,68.235
2.5347,67.942
2.4829,67.551
2.4018,67.063
2.3265,66.477
2.2796,65.94
2.2307,65.402
2.1584,65.012
2.0909,64.718
2.042,64.816
1.9726,65.353
1.8954,67.161
1.8426,70.97
1.7908,77.223
1.7273,84.94
1.6706,92.169
1.6188,97.297
1.5806,99.789
1.5503,100.33
1.5259,99.74
1.4956,98.616
1.4526,97.297
1.4115,95.93
1.3705,94.562
1.3314,93.243
1.2933,91.973
1.2571,90.752
1.2209,89.385
1.1877,87.822
1.1632,86.063
1.1437,84.256
1.1212,82.547
1.0987,81.228
1.0743,80.3
1.0469,79.567
1.0186,78.883
0.99022,78.248
0.9697,77.564
0.94526,76.881
0.91691,76.197
0.9042,75.415
0.91691,74.731
0.95308,74.048
1.0196,73.51
1.129,72.973
1.2786,72.485
1.4585,72.094
1.6549,71.752
1.8543,71.508
2.044,71.312
2.2121,71.117
2.3509,70.97
2.4565,70.873
2.5298,70.824
2.5718,70.824
2.5894,70.873
2.5934,70.922
2.5826,70.97
2.5582,71.166
2.5239,71.361
2.48,71.557
2.4301,71.654
2.3763,71.85
2.3187,71.947
2.26,71.947
2.2033,71.85
2.1535,71.654
2.1085,71.508
2.0606,71.215
2.0098,71.068
1.958,70.922
1.9071,70.97
1.8563,71.41
1.8065,72.924
1.7605,76.197
1.7175,81.716
1.6755,88.945
1.6354,95.93
1.5973,101.16
1.5679,103.84
1.5435,104.58
1.5142,103.99
1.4839,102.82
1.4575,101.3
1.434,99.74
1.4145,98.177
1.4008,96.662
1.393,95.246
1.3891,93.878
1.3871,92.511
1.3891,90.997
1.3959,89.482
1.4057,87.968
1.4154,86.698
1.4242,85.673
1.4311,84.989
1.437,84.403
1.4399,83.865
1.4379,83.279
1.4291,82.595
1.4145,81.863
1.4008,81.032
1.3978,80.3
1.4154,79.616
1.4506,78.981
1.5103,78.346
1.61,77.858
1.7498,77.418
1.9218,76.929
2.1114,76.539
2.304,76.197
2.4848,75.855
2.6422,75.464
2.7703,75.171
2.8661,74.878
2.9296,74.536
2.9619,74.194
2.9697,73.803
2.9619,73.51
2.9394,73.217
2.9042,73.071
2.8602,72.778
2.8094,72.631
2.7546,72.387
2.6989,72.094
2.6432,71.85
2.5885,71.557
2.5376,71.166
2.4868,70.824
2.4389,70.384
2.393,69.945
2.3451,69.505
2.2952,69.261
2.2463,69.114
2.1975,69.359
2.1496,70.726
2.1026,74.048
2.0567,79.762
2.0117,87.187
1.9677,94.611
1.9247,100.18
1.8895,103.16
1.8573,104.04
1.8211,103.6
1.784,102.62
1.7664,101.3
1.7595,99.935
1.741,98.567
1.7175,97.297
1.6931,96.223
1.6686,95.197
1.6452,93.976
1.6227,92.657
1.6002,91.094
1.5816,89.482
1.565,87.871
1.5455,86.503
1.5269,85.379
1.5073,84.598
1.4868,83.914
1.4633,83.279
1.4379,82.595
1.4115,81.912
1.39,81.179
1.3783,80.495
1.3842,79.811
1.4096,79.176
1.4614,78.59
1.5513,78.053
1.6804,77.613
1.8407,77.174
2.0205,76.734
2.2063,76.294
2.3822,75.904
2.5347,75.611
2.6569,75.22
2.7468,74.927
2.8055,74.634
2.8397,74.243
2.8534,73.999
2.8534,73.657
2.8465,73.413
2.8328,73.217
2.8104,72.973
2.7801,72.729
2.7419,72.485
2.6979,72.24
2.6481,71.996
2.5934,71.752
2.5347,71.41
2.4761,71.117
2.4233,70.677
2.3744,70.238
2.3226,69.798
2.2708,69.505
2.218,69.359
2.1652,69.798
2.1134,71.361
2.0635,74.976
2.0166,81.032
1.9717,88.75
1.9296,96.174
1.8925,101.6
1.8592,104.58
1.8358,105.36
1.8182,105.01
1.7986,103.99
1.7761,102.72
1.7537,101.5
1.7292,100.33
1.7038,99.105
1.6784,98.03
1.653,97.004
1.6266,95.783
1.5992,94.416
1.5699,92.804
1.5464,91.045
1.5249,89.238
1.4995,87.724
1.4721,86.601
1.4448,85.721
1.4164,85.038
1.3891,84.305
1.3607,83.621
1.3324,82.937
1.3079,82.156
1.2933,81.472
1.3001,80.739
1.3382,80.055
1.3978,79.421
1.4848,78.786
1.6149,78.297
1.7781,77.858
1.9619,77.467
2.1535,77.125
2.3363,76.783
2.4976,76.49
2.6305,76.197
2.7331,75.855
2.8065,75.562
2.8534,75.318
2.8759,74.976
2.8798,74.683
2.8719,74.438
2.8553,74.194
2.8289,73.901
2.7918,73.657
2.7468,73.51
2.697,73.217
2.6422,72.973
2.5846,72.68
2.5259,72.387
2.4692,71.947
2.4164,71.508
2.3715,70.97
2.3294,70.629
2.2854,70.287
2.2424,70.238
2.1975,70.629
2.1515,72.094
2.1046,75.757
2.0567,81.716
2.0108,89.385
1.9677,96.858
1.9277,102.38
1.8915,105.26
1.8612,105.99
1.8348,105.55
1.8074,104.58
1.7801,103.35
1.7517,102.13
1.7234,100.91
1.696,99.789
1.6696,98.763
1.6452,97.688
1.6207,96.467
1.5963,95.099
1.5718,93.439
1.5494,91.485
1.5337,89.482
1.521,87.675
1.5064,86.259
1.4907,85.233
1.4712,84.403
1.4487,83.719
1.4233,83.133
1.3969,82.351
1.3744,81.618
1.3617,80.788
1.3685,80.007
1.4057,79.127
1.4633,78.297
1.5464,77.467
1.6716,76.783
1.8328,76.099
2.0147,75.464
2.2023,74.976
2.3822,74.487
2.5415,74.048
2.6745,73.608
2.7771,73.168
2.8475,72.729
2.8886,72.289
2.9042,71.85
2.9013,71.41
2.8856,71.068
2.8602,70.726
2.8289,70.482
2.7889,70.189
2.7419,69.847
2.6891,69.554
2.6344,69.261
2.5767,68.919
2.5171,68.528
2.4575,68.186
2.3988,67.747
2.347,67.258
2.2981,66.721
2.2463,66.281
2.1935,66.037
2.1408,66.037
2.088,66.672
2.0362,68.626
1.9844,72.729
1.9345,79.323
1.8866,87.04
1.8407,93.976
1.7986,98.616
1.7634,100.67
1.7312,101.01
1.695,100.33
1.6559,99.105
1.6178,97.786
1.5787,96.467
1.5386,95.099
1.4995,93.781
1.4614,92.608
1.4262,91.436
1.3939,90.166
1.3656,88.603
1.3392,86.943
1.3206,85.135
1.305,83.426
1.2854,82.107
1.2639,81.179
1.2424,80.446
1.2219,79.811
1.1994,79.176
1.174,78.492
1.1476,77.76
1.1251,77.027
1.1144,76.294
1.1251,75.562
1.1584,74.878
1.218,74.194
1.3148,73.559
1.4467,73.071
1.608,72.631
1.7859,72.192
1.9697,71.801
2.1437,71.41
2.2972,71.117
2.4213,70.726
2.5132,70.384
2.5767,70.042
2.6129,69.749
2.6256,69.505
2.6227,69.261
2.607,69.066
2.5816,68.87
2.5464,68.821
2.5044,68.675
2.4555,68.528
2.4027,68.382
2.347,68.235
2.2923,68.04
2.2385,67.796
2.1857,67.551
2.1417,67.307
2.1036,67.161
2.0616,67.161
2.0196,67.356
1.9795,67.844
1.9384,68.87
1.8964,71.312
1.8553,75.855
1.8152,82.693
1.7761,90.508
1.737,97.249
1.6979,101.69
1.6618,103.74
1.6325,104.14
1.607,103.6
1.5777,102.67
1.5503,101.5
1.5239,100.18
1.4995,98.86
1.4751,97.591
1.4497,96.467
1.4233,95.295
1.3969,94.074
1.3548,92.608
1.304,91.045
1.2737,89.482
1.2561,88.115
1.2366,87.04
1.2151,86.308
1.1926,85.624
1.1691,84.989
1.1476,84.354
1.1261,83.621
1.1075,82.84
1.0978,82.156
1.1065,81.423
1.1408,80.739
1.2102,80.055
1.3011,79.421
1.4174,78.883
1.5787,78.444
1.7752,78.004
1.9892,77.613
2.2023,77.223
2.3998,76.783
2.5718,76.441
2.7116,76.05
2.8172,75.757
2.8895,75.415
2.9335,75.122
2.9511,74.78
2.9501,74.487
2.9374,74.194
2.9159,73.901
2.8837,73.657
2.8426,73.51
2.7967,73.217
2.7468,72.973
2.696,72.729
2.6461,72.387
2.5973,72.045
2.5494,71.605
2.5024,71.117
2.4604,70.677
2.4213,70.287
2.3783,70.042
2.3333,70.091
2.2874,70.873
2.2405,73.071
2.1935,77.467
2.1476,84.256
2.1036,91.925
2.0606,98.616
2.0215,103.01
1.9844,104.92
1.955,105.16
1.9296,104.48
1.9022,103.31
1.8729,102.04
1.8426,100.67
1.8133,99.349
1.783,98.177
1.7527,97.004
1.7214,95.881
1.6901,94.611
1.6598,93.097
1.6344,91.387
1.6109,89.482
1.5934,87.724
1.5787,86.308
1.5601,85.233
1.5376,84.5
1.5103,83.865
1.48,83.279
1.4487,82.693
1.4194,82.058
1.3939,81.374
1.3812,80.69
1.392,80.055
1.434,79.421
1.4966,78.786
1.5875,78.248
1.7234,77.76
1.8915,77.223
2.0802,76.881
2.2757,76.539
2.4624,76.197
2.6276,75.855
2.7615,75.611
2.8631,75.318
2.9335,74.976
2.9756,74.731
2.9922,74.438
2.9892,74.097
2.9677,73.852
2.9316,73.608
2.8866,73.51
2.8348,73.217
2.7791,72.973
2.7204,72.729
2.6598,72.436
2.5963,72.094
2.5308,71.752
2.4663,71.312
2.4047,70.873
2.349,70.384
2.2981,69.994
2.2473,69.749
2.1955,69.749
2.1447,70.433
2.0968,72.485
2.0499,76.881
2.0039,83.572
1.9609,91.29
1.9179,98.225
1.8788,102.87
1.8407,105.06
1.8084,105.36
1.781,104.67
1.7517,103.6
1.7204,102.43
1.6891,101.16
1.6598,100.03
1.6315,99.007
1.6061,97.932
1.5816,96.858
1.5562,95.637
1.5318,94.123
1.5093,92.364
1.4868,90.508
1.4712,88.75
1.4575,87.236
1.4399,86.112
1.4213,85.233
1.3998,84.549
1.3754,83.914
1.346,83.23
1.3157,82.547
1.2913,81.863
1.2815,81.179
1.2952,80.495
1.3412,79.811
1.4086,79.127
1.5024,78.541
1.6403,78.004
1.8123,77.564
2.0029,77.174
2.1965,76.881
2.3803,76.539
2.5445,76.246
2.6794,76.001
2.784,75.757
2.8573,75.415
2.9013,75.122
2.9218,74.78
2.9247,74.438
2.913,74.097
2.8905,73.852
2.8583,73.608
2.8172,73.364
2.7683,73.12
2.7126,72.924
2.654,72.68
2.5934,72.387
2.5308,71.996
2.4702,71.557
2.4145,71.068
2.3656,70.531
2.3216,70.189
2.2757,69.994
2.2307,69.994
2.1857,70.629
2.1408,72.631
2.0978,76.734
2.0567,83.182
2.0176,90.801
1.9804,97.786
1.9462,102.62
1.9159,104.92
1.8866,105.36
1.8612,104.82
1.8387,103.84
1.8123,102.72
1.7849,101.55
1.7556,100.42
1.7253,99.349
1.695,98.372
1.6647,97.297
1.6364,96.076
1.61,94.66
1.5836,92.95
1.5572,91.045
1.5357,89.238
1.5171,87.724
1.4946,86.552
1.4721,85.673
1.4477,84.94
1.4203,84.158
1.3891,83.426
1.3568,82.693
1.3294,81.912
1.3157,81.228
1.3236,80.495
1.3627,79.86
1.4418,79.225
1.5386,78.688
1.6579,78.102
1.8172,77.613
2,77.125
2.1896,76.734
2.3705,76.343
2.5318,76.001
2.6657,75.611
2.7683,75.22
2.8387,74.78
2.8817,74.341
2.9032,73.852
2.9071,73.413
2.8993,72.973
2.8827,72.533
2.8553,72.094
2.8182,71.752
2.7732,71.312
2.7224,70.922
2.6667,70.531
2.61,70.189
2.5533,69.749
2.4976,69.261
2.4438,68.724
2.39,68.235
2.3431,67.747
2.3001,67.356
2.2542,67.112
2.2053,67.307
2.1564,68.284
2.1105,70.97
2.0665,76.05
2.0215,83.133
1.9765,90.752
1.9335,96.907
1.8915,100.62
1.8504,102.04
1.8162,101.94
1.7859,101.11
1.7527,99.984
1.7155,98.763
1.6794,97.444
1.6442,96.125
1.6109,94.904
1.5797,93.732
1.5484,92.56
1.5181,91.192
1.4888,89.531
1.4614,87.822
1.435,85.966
1.4125,84.354
1.392,83.182
1.3656,82.302
1.3382,81.618
1.2913,80.984
1.2307,80.3
1.1818,79.567
1.1408,78.737
1.1114,77.906
1.0978,77.125
1.1095,76.343
1.1574,75.66
1.2287,75.073
1.3294,74.438
1.4761,73.901
1.6549,73.413
1.8504,73.071
2.0489,72.68
2.2356,72.289
2.3998,71.947
2.5318,71.605
2.6285,71.215
2.6901,70.922
2.7214,70.629
2.7302,70.384
2.7234,70.091
2.7038,69.945
2.6725,69.749
2.6315,69.554
2.5826,69.407
2.5279,69.31
2.4721,69.114
2.4174,68.87
2.3617,68.626
2.305,68.382
2.2502,67.991
2.1945,67.698
2.1437,67.356
2.0968,67.112
2.0459,66.965
1.9932,67.063
1.9413,67.551
1.8915,68.919
1.8426,72.045
1.7947,77.564
1.7498,84.94
1.7048,92.511
1.6608,98.372
1.6188,101.69
1.5787,102.82
1.5464,102.57
1.5181,101.69
1.4848,100.62
1.4526,99.447
1.4223,98.225
1.3939,97.2
1.3646,96.125
1.3372,95.099
1.3109,93.976
1.2845,92.755
1.259,91.29
1.2366,89.727
1.2229,88.31
1.2131,87.138
1.2004,86.259
1.1857,85.624
1.1701,84.989
1.1535,84.403
1.1329,83.816
1.1105,83.133
1.089,82.302
1.0762,81.57
1.0802,80.739
1.1134,80.055
1.1857,79.372
1.2786,78.786
1.3969,78.297
1.5611,77.858
1.7556,77.418
1.9609,77.027
2.1623,76.685
2.3451,76.343
2.5015,76.05
2.6256,75.757
2.7165,75.415
2.7781,75.122
2.8143,74.78
2.827,74.487
2.8221,74.194
2.8074,73.852
2.784,73.608
2.7517,73.364
2.7146,73.12
2.6725,72.875
2.6276,72.68
2.5806,72.436
2.5327,72.094
2.4829,71.801
2.4321,71.361
2.3871,70.922
2.3451,70.433
2.3011,70.042
2.2571,69.798
2.217,69.798
2.176,70.384
2.1359,72.289
2.0948,76.294
2.0557,82.595
2.0176,90.117
1.9765,96.907
1.9365,101.55
1.8974,103.79
1.8641,104.18
1.8338,103.5
1.7996,102.28
1.7654,101.06
1.7322,99.74
1.7019,98.47
1.6725,97.297
1.6422,96.223
1.6139,95.197
1.5875,94.074
1.563,92.657
1.5415,90.997
1.5259,89.238
1.5132,87.529
1.4966,86.161
1.477,85.135
1.4565,84.354
1.433,83.719
1.4057,83.035
1.3763,82.351
1.347,81.716
1.3216,81.032
1.306,80.349
1.3099,79.665
1.3441,79.03
1.4008,78.444
1.4848,77.906
1.6109,77.418
1.7693,76.978
1.9482,76.539
2.1339,76.246
2.3118,75.904
2.4712,75.66
2.6041,75.366
2.7058,75.073
2.7761,74.731
2.8201,74.341
2.8387,74.048
2.8387,73.803
2.825,73.559
2.7996,73.315
2.7644,73.071
2.7204,72.778
2.6706,72.631
2.6158,72.387
2.5582,72.045
2.4995,71.752
2.4418,71.41
2.3881,70.97
2.3353,70.531
2.2884,70.091
2.2463,69.749
2.2004,69.407
2.1535,69.31
2.1036,69.554
2.0547,70.726
2.0088,73.608
1.9638,78.932
1.9218,86.112
1.8817,93.536
1.8426,99.495
1.8045,102.91
1.7713,104.18
1.7429,104.04
1.7126,103.26
1.6813,102.18
1.6491,101.06
1.6168,99.886
1.5875,98.763
1.5601,97.737
1.5347,96.76
1.5112,95.686
1.4868,94.513
1.4614,92.95
1.435,91.241
1.4135,89.434
1.3969,87.724
1.3773,86.405
1.3548,85.428
1.3294,84.598
1.3001,83.914
1.2688,83.182
1.2385,82.449
1.2111,81.667
1.1926,80.935
1.1896,80.251
1.2111,79.567
1.2542,78.883
1.3265,78.248
1.4389,77.662
1.5904,77.174
1.7713,76.783
1.9658,76.441
2.1574,76.099
2.3343,75.806
2.4868,75.464
2.608,75.171
2.695,74.878
2.7507,74.536
2.7781,74.243
2.783,73.901
2.7703,73.657
2.7468,73.364
