0.41447,57.497
0.40371,57.106
0.39492,56.715
0.38612,56.323
0.38025,55.737
0.37537,55.346
0.37146,55.15
0.36755,54.759
0.36364,54.563
0.3607,54.563
0.35679,54.563
0.35386,55.15
0.35093,56.128
0.34897,58.279
0.34604,61.799
0.34311,66.688
0.34018,72.555
0.33724,78.814
0.33529,84.876
0.33333,90.548
0.33138,95.828
0.32845,100.52
0.32551,104.24
0.32258,107.17
0.31965,109.13
0.31672,110.1
0.31378,110.3
0.30987,109.71
0.30694,108.34
0.30401,106.58
0.30205,104.43
0.3001,101.89
0.29717,98.957
0.29423,95.632
0.2913,92.112
0.28837,88.396
0.28543,84.876
0.28152,81.552
0.27859,78.618
0.27566,76.076
0.27273,73.924
0.26882,72.164
0.26686,70.795
0.26588,69.818
0.26491,68.84
0.26588,68.253
0.26882,67.862
0.27761,67.471
0.29228,67.275
0.31476,67.08
0.34409,66.884
0.38025,66.884
0.42229,66.884
0.46628,66.884
0.51026,66.884
0.54643,66.688
0.57771,66.493
0.60899,66.493
0.63734,66.102
0.6608,65.906
0.6784,65.711
0.6911,65.319
0.69795,64.928
0.6999,64.537
0.69697,64.146
0.69013,63.755
0.67937,63.364
0.66667,62.973
0.652,62.582
0.63343,62.386
0.6129,61.995
0.59042,61.604
0.56696,61.213
0.5435,60.821
0.52102,60.43
0.50049,59.844
0.47996,59.452
0.46237,59.061
0.44673,58.475
0.43206,58.083
0.42131,57.497
0.41251,57.106
0.40371,56.715
0.39589,56.323
0.38905,55.737
0.38319,55.346
0.37732,55.15
0.37341,54.954
0.3695,54.759
0.36559,54.759
0.36266,55.15
0.35973,55.932
0.35777,57.692
0.35582,60.821
0.35386,65.515
0.35093,70.991
0.348,77.249
0.34506,83.507
0.34213,89.374
0.3392,94.85
0.33627,99.739
0.33333,103.85
0.3304,106.98
0.32747,109.32
0.32454,110.5
0.3216,110.89
0.32063,110.5
0.31769,109.71
0.31476,108.15
0.31183,106.19
0.3089,103.85
0.30596,101.11
0.30303,97.979
0.29912,94.655
0.29619,90.939
0.29228,87.223
0.28935,83.703
0.28641,80.378
0.28543,77.445
0.2825,75.098
0.27957,73.142
0.27664,71.578
0.2737,70.404
0.27175,69.426
0.27175,68.644
0.27468,68.057
0.2825,67.666
0.29619,67.471
0.31769,67.275
0.34604,67.275
0.37634,67.08
0.4086,67.08
0.4477,67.08
0.49071,67.08
0.53372,66.884
0.57478,66.884
0.61095,66.884
0.64223,66.688
0.66764,66.493
0.68719,66.102
0.70088,65.906
0.7087,65.515
0.71163,65.124
0.71065,64.928
0.70577,64.537
0.69697,64.146
0.68524,63.755
0.67058,63.364
0.652,63.168
0.63148,62.777
0.60899,62.386
0.58456,62.19
0.56109,61.799
0.53763,61.408
0.51417,61.017
0.4956,60.43
0.47898,60.039
0.46237,59.648
0.4477,59.257
0.43402,58.866
0.42326,58.279
0.41447,58.083
0.40567,57.692
0.39785,57.301
0.39101,56.91
0.38514,56.519
0.38025,56.323
0.37634,55.932
0.37341,55.932
0.37048,56.128
0.36755,56.715
0.36461,58.083
0.36168,60.821
0.35875,64.928
0.35582,70.6
0.35288,76.858
0.34995,83.507
0.34702,89.961
0.34311,95.828
0.34018,101.11
0.33724,105.41
0.33529,108.93
0.33333,111.47
0.3304,113.23
0.32747,113.82
0.32454,113.62
0.3216,112.84
0.31867,111.67
0.31574,109.91
0.31281,107.76
0.3089,105.41
0.30596,102.67
0.30401,99.544
0.30205,96.024
0.3001,92.503
0.29717,88.788
0.29423,85.463
0.29228,82.334
0.28935,79.596
0.28641,77.445
0.28348,75.489
0.28055,74.12
0.27859,72.947
0.27859,72.164
0.28152,71.382
0.28739,70.991
0.29814,70.6
0.31672,70.6
0.34311,70.404
0.3783,70.404
0.42033,70.404
0.46725,70.404
0.51711,70.404
0.56598,70.209
0.61193,70.013
0.65298,69.818
0.68817,69.622
0.71359,69.426
0.73216,69.035
0.7478,68.84
0.75953,68.449
0.76735,67.862
0.76931,67.471
0.76735,67.08
0.76051,66.688
0.75073,66.493
0.73607,65.906
0.71848,65.711
0.69795,65.319
0.67449,64.928
0.65298,64.537
0.63148,64.146
0.60899,63.755
0.58456,63.364
0.56207,62.777
0.54057,62.386
0.52004,61.799
0.50244,61.408
0.4868,60.821
0.47312,60.235
0.46237,59.844
0.45259,59.257
0.44477,58.866
0.43891,58.279
0.43304,57.888
0.42815,57.301
0.42424,56.91
0.42033,56.715
0.41642,56.715
0.41251,56.91
0.40958,58.083
0.40567,60.039
0.40274,63.755
0.3998,69.035
0.39589,75.293
0.39296,82.138
0.39003,88.788
0.3871,95.046
0.38416,100.52
0.38025,105.41
0.37634,109.32
0.37341,112.26
0.3695,114.02
0.36657,114.8
0.36266,114.8
0.35875,114.21
0.35484,113.04
0.35191,111.28
0.34897,109.32
0.34604,106.98
0.34213,104.24
0.33822,101.11
0.33431,97.784
0.3304,94.263
0.32649,90.548
0.32258,87.027
0.31867,83.703
0.31378,80.769
0.30987,78.422
0.30694,76.271
0.30401,74.707
0.30108,73.338
0.29814,72.36
0.29619,71.578
0.29912,70.991
0.30694,70.6
0.32258,70.209
0.34604,70.013
0.37732,69.818
0.41642,69.622
0.46139,69.622
0.50831,69.426
0.54936,69.231
0.58553,69.035
0.62268,69.035
0.65787,68.644
0.68719,68.449
0.71163,68.057
0.72923,67.666
0.74096,67.275
0.7478,66.688
0.74976,66.297
0.74682,65.906
0.739,65.515
0.72923,65.124
0.71652,64.537
0.6999,64.146
0.68133,63.755
0.65885,63.364
0.63539,62.973
0.60997,62.777
0.58456,62.386
0.56012,61.799
0.53568,61.408
0.5132,61.017
0.49169,60.43
0.47312,59.844
0.45748,59.452
0.44477,59.061
0.43304,58.475
0.42229,58.083
0.41251,57.497
0.40371,57.106
0.39687,56.715
0.39003,56.323
0.38416,55.932
0.37928,55.737
0.37439,55.541
0.37048,55.541
0.36657,55.932
0.36364,56.91
0.35973,58.866
0.35582,62.19
0.35191,67.08
0.348,72.947
0.34409,79.596
0.34018,86.05
0.33529,92.112
0.33138,97.784
0.32747,102.67
0.32258,106.58
0.31867,109.52
0.31672,111.47
0.31378,112.45
0.31085,112.65
0.30792,111.86
0.30401,110.69
0.30108,109.13
0.29717,106.98
0.29423,104.43
0.29032,101.69
0.28739,98.37
0.28348,95.046
0.27957,91.33
0.27761,87.614
0.27566,84.094
0.27273,80.965
0.26979,78.031
0.26686,75.685
0.26393,73.729
0.26002,72.164
0.25709,70.991
0.25513,70.209
0.25415,69.426
0.25806,68.84
0.26686,68.449
0.2825,68.057
0.30205,67.862
0.32649,67.862
0.36168,67.666
0.40371,67.666
0.45064,67.471
0.49853,67.471
0.54643,67.471
0.58944,67.275
0.62757,67.08
0.6608,66.688
0.68622,66.493
0.70577,66.102
0.71652,65.711
0.72239,65.319
0.72532,64.928
0.72336,64.537
0.71848,64.146
0.7087,63.755
0.69501,63.364
0.6784,62.973
0.65787,62.582
0.63539,62.386
0.61095,61.995
0.58553,61.604
0.56012,61.213
0.53763,60.821
0.51711,60.235
0.49658,59.844
0.47605,59.257
0.45748,58.866
0.44086,58.279
0.4262,57.888
0.41349,57.497
0.40176,57.106
0.39296,56.715
0.38514,56.128
0.3783,55.737
0.37243,55.346
0.36852,55.15
0.36461,54.759
0.3607,54.759
0.35679,54.759
0.35386,54.954
0.35093,55.737
0.348,57.301
0.34409,60.039
0.34115,64.146
0.33724,69.426
0.33333,75.293
0.32845,81.356
0.32356,87.027
0.32063,92.308
0.31672,97.001
0.31378,100.91
0.31085,103.85
0.30694,106
0.30401,107.17
0.30108,107.56
0.29814,107.37
0.29521,106.39
0.2913,104.82
0.28837,102.67
0.28641,100.33
0.28446,97.393
0.28152,94.068
0.27859,90.548
0.27566,87.027
0.27175,83.312
0.26882,80.183
0.26588,77.249
0.26295,74.902
0.26002,72.751
0.25709,70.991
0.25415,69.622
0.25122,68.644
0.25024,67.862
0.25024,67.275
0.2522,66.884
0.25806,66.493
0.26882,66.297
0.28641,66.102
0.31085,65.906
0.34311,65.906
0.38123,65.906
0.42326,65.711
0.46725,65.711
0.51026,65.515
0.54643,65.515
0.57674,65.319
0.60606,65.124
0.63245,64.733
0.65298,64.537
0.66862,64.146
0.67937,63.755
0.68426,63.364
0.68328,62.973
0.6784,62.777
0.6696,62.386
0.65591,61.995
0.6393,61.604
0.62268,61.408
0.60411,61.017
0.58358,60.626
0.56109,60.235
0.53763,59.844
0.51417,59.452
0.49267,59.061
0.47214,58.67
0.45357,58.279
0.43695,57.692
0.42229,57.301
0.40958,56.91
0.3998,56.323
0.39198,55.932
0.38416,55.541
0.37732,55.15
0.37048,54.759
0.36559,54.368
0.3607,54.172
0.35679,53.977
0.35386,53.977
0.35093,54.172
0.348,54.563
0.34506,55.737
0.34213,57.692
0.34018,61.213
0.33822,65.906
0.33529,71.578
0.33333,77.64
0.3304,83.507
0.32649,89.179
0.32356,94.263
0.32063,98.566
0.31769,102.09
0.31476,104.82
0.31183,106.58
0.3089,107.37
0.30694,107.56
0.30596,106.98
0.30303,105.61
0.30108,103.85
0.29814,101.69
0.29423,99.153
0.2913,96.024
0.28837,92.699
0.28543,88.983
0.28152,85.463
0.27859,81.943
0.27566,78.814
0.2737,76.076
0.27175,73.729
0.26979,71.969
0.26686,70.404
0.26393,69.035
0.26197,68.253
0.26002,67.471
0.26002,66.884
0.26393,66.493
0.27175,66.102
0.28739,65.906
0.3089,65.906
0.3392,65.906
0.37048,65.711
0.40274,65.711
0.44379,65.711
0.4868,65.515
0.52981,65.515
0.57087,65.319
0.60704,65.124
0.63832,64.928
0.66276,64.537
0.68231,64.342
0.69501,63.95
0.70283,63.755
0.70479,63.168
0.70186,62.973
0.69599,62.582
0.68622,62.19
0.67253,61.799
0.65494,61.408
0.63441,61.213
0.6129,60.821
0.58847,60.43
0.565,60.039
0.54057,59.648
0.51711,59.257
0.4956,58.67
0.47801,58.279
0.46237,57.888
0.44673,57.301
0.43304,56.91
0.42033,56.519
0.40958,56.128
0.3998,55.737
0.39198,55.346
0.38416,54.954
0.3783,54.563
0.37341,54.172
0.36852,53.977
0.36559,53.781
0.36266,53.781
0.3607,54.172
0.35777,54.954
0.35484,56.715
0.35191,59.648
0.34897,63.95
0.34604,69.426
0.34311,75.685
0.3392,81.747
0.33627,87.419
0.33236,92.894
0.32942,97.588
0.32747,101.5
0.32454,104.43
0.32258,106.58
0.31965,107.95
0.31672,108.34
0.31378,108.15
0.31085,107.17
0.30792,105.61
0.30401,103.85
0.30108,101.5
0.29717,98.761
0.29423,95.632
0.2913,92.308
0.28935,88.788
0.28641,85.072
0.28348,81.747
0.28055,78.814
0.27761,76.076
0.27468,73.924
0.27077,72.164
0.26784,70.795
0.26491,69.622
0.26295,68.84
0.26197,68.253
0.26491,67.666
0.26979,67.471
0.27957,67.275
0.29717,67.08
0.3216,67.08
0.35386,66.884
0.39296,66.884
0.43597,67.08
0.48192,67.08
0.52688,67.08
0.56989,66.884
0.60802,66.884
0.64125,66.688
0.66471,66.493
0.68133,66.102
0.69599,65.906
0.70674,65.515
0.71261,65.124
0.71359,64.733
0.71065,64.537
0.70186,64.146
0.69013,63.755
0.67449,63.364
0.65494,62.973
0.63441,62.777
0.61095,62.386
0.58944,61.995
0.56891,61.604
0.54643,61.213
0.52395,60.821
0.50244,60.43
0.48289,59.844
0.46432,59.648
0.44868,59.257
0.435,58.67
0.42229,58.279
0.41251,58.083
0.40371,57.497
0.39687,57.106
0.39198,56.91
0.3871,56.519
0.38319,56.323
0.37928,56.128
0.37537,56.128
0.37243,56.519
0.3695,57.301
0.36755,59.061
0.36461,62.386
0.36266,67.08
0.35973,73.142
0.35777,79.596
0.35582,86.05
0.35386,92.112
0.35191,97.784
0.34897,102.67
0.34702,106.78
0.34409,109.91
0.34115,111.86
0.3392,113.23
0.33627,113.43
0.33431,113.04
0.33138,112.06
0.32942,110.69
0.32747,108.74
0.32551,106.58
0.32356,104.04
0.3216,101.11
0.31867,97.979
0.31672,94.263
0.31574,90.743
0.31574,87.223
0.31378,83.898
0.31183,80.965
0.30987,78.422
0.30694,76.467
0.30499,74.902
0.30303,73.729
0.30303,72.751
0.30303,71.969
0.30596,71.578
0.31281,71.186
0.32649,70.991
0.348,70.795
0.37732,70.6
0.41544,70.6
0.45943,70.6
0.50831,70.6
0.55816,70.6
0.6002,70.404
0.63734,70.209
0.67449,70.013
0.7087,69.622
0.73803,69.231
0.76149,68.84
0.77908,68.253
0.79081,67.862
0.79668,67.275
0.79765,66.688
0.79374,66.297
0.78592,65.906
0.77322,65.319
0.75855,64.928
0.74194,64.537
0.72141,64.146
0.69795,63.755
0.67351,63.364
0.64809,62.973
0.62268,62.582
0.59824,62.19
0.57478,61.604
0.55327,61.213
0.53372,60.626
0.51613,60.039
0.50244,59.648
0.49071,59.061
0.47996,58.475
0.47019,58.083
0.46237,57.692
0.45455,57.301
0.44868,56.91
0.44282,56.519
0.43793,56.323
0.43304,56.128
0.42913,56.323
0.42522,57.106
0.42131,58.866
0.41838,61.995
0.41544,66.884
0.41153,72.751
0.40665,79.596
0.40274,86.245
0.39785,92.503
0.39296,98.37
0.38807,103.46
0.38319,107.76
0.3783,110.89
0.37341,113.04
0.3695,114.21
0.36559,114.6
0.36266,114.21
0.35777,113.04
0.35386,111.67
0.34897,109.71
0.34506,107.37
0.3392,104.82
0.33431,101.89
0.32942,98.566
0.32356,95.046
0.31867,91.33
0.31281,87.419
0.3089,84.094
0.30596,80.965
0.30108,78.422
0.29717,76.271
0.29228,74.511
0.28739,73.142
0.28348,72.164
0.28152,71.186
0.28152,70.6
0.28739,70.209
0.29912,69.818
0.31965,69.622
0.34897,69.426
0.38025,69.426
0.41447,69.231
0.45748,69.231
0.5044,69.035
0.5523,69.035
0.59824,68.84
0.6393,68.644
0.67449,68.253
0.70283,68.057
0.72532,67.666
0.74096,67.275
0.75073,66.884
0.75464,66.493
0.75367,65.906
0.74976,65.515
0.74194,65.124
0.73021,64.733
0.71457,64.342
0.69599,63.95
0.67449,63.559
0.65005,63.168
0.62463,62.777
0.59824,62.386
0.57185,61.995
0.54643,61.408
0.52493,61.017
0.50635,60.43
0.4868,60.039
0.46921,59.452
0.45259,59.061
0.43793,58.475
0.42522,58.083
0.41447,57.692
0.40469,57.301
0.39687,56.91
0.39003,56.519
0.38514,56.128
0.38025,55.737
0.37732,55.737
0.37341,55.737
0.3695,56.128
0.36657,57.106
0.36266,59.257
0.35973,62.777
0.35582,67.666
0.35191,73.729
0.348,80.378
0.34409,86.832
0.34018,92.894
0.33627,98.37
0.33333,103.26
0.33138,107.17
0.32845,109.91
0.32454,111.86
0.3216,112.65
0.31769,112.84
0.31476,112.06
0.31085,110.89
0.30694,109.13
0.30401,106.98
0.3001,104.43
0.29619,101.69
0.29326,98.37
0.2913,94.85
0.28837,91.134
0.28446,87.419
0.28055,84.094
0.27664,80.769
0.2737,78.031
0.26979,75.88
0.26588,73.924
0.26197,72.36
0.25904,71.186
0.25709,70.404
0.25709,69.622
0.25904,69.035
0.26588,68.84
0.27859,68.449
0.29912,68.253
0.32845,68.253
0.36559,68.057
0.4086,67.862
0.45748,67.862
0.50733,67.862
0.55523,67.666
0.60117,67.471
0.64027,67.471
0.67058,67.275
0.69208,66.884
0.71163,66.493
0.7263,66.102
0.73607,65.711
0.73998,65.319
0.73998,64.928
0.73509,64.537
0.72532,64.146
0.71065,63.755
0.69306,63.364
0.67253,62.973
0.64907,62.777
0.62659,62.386
0.60508,61.799
0.57967,61.408
0.55523,61.017
0.52981,60.626
0.50635,60.039
0.48485,59.648
0.46628,59.061
0.44868,58.67
0.43402,58.279
0.42033,57.692
0.4086,57.301
0.40078,56.91
0.39394,56.519
0.3871,55.932
0.38123,55.737
0.37537,55.346
0.37146,55.346
0.36657,55.346
0.36364,55.346
0.35973,55.932
0.35679,57.106
0.35288,59.452
0.34995,63.168
0.34604,68.057
0.34409,73.924
0.34115,79.987
0.33822,85.854
0.33529,91.525
0.33138,96.415
0.32845,100.52
0.32454,104.04
0.32063,106.58
0.31769,108.15
0.31476,108.74
0.31085,108.74
0.30792,107.95
0.30596,106.58
0.30401,104.63
0.30108,102.48
0.29814,99.739
0.29521,96.61
0.2913,93.286
0.28837,89.57
0.28446,85.854
0.28055,82.529
0.27664,79.4
0.2737,76.662
0.26979,74.511
0.26686,72.555
0.26393,71.186
0.26295,69.818
0.261,69.035
0.25904,68.253
0.25904,67.666
0.26197,67.275
0.27077,67.08
0.28543,66.884
0.3089,66.688
0.3392,66.493
0.37732,66.493
0.42131,66.493
0.45455,66.297
0.48192,66.297
0.51613,66.102
0.5523,65.906
0.58553,65.711
0.61486,65.515
0.63832,65.319
0.65689,64.928
0.6696,64.537
0.67644,64.342
0.67937,63.95
0.67644,63.559
0.6696,63.168
0.65982,62.777
0.64712,62.386
0.63148,62.19
0.6129,61.799
0.5914,61.408
0.56891,61.017
0.54545,60.626
0.52297,60.235
0.50049,59.844
0.47898,59.257
0.46041,58.866
0.44282,58.279
0.42815,57.888
0.4174,57.497
0.40567,56.91
0.39589,56.519
0.38612,56.128
0.3783,55.737
0.37146,55.346
0.36559,54.954
0.3607,54.759
0.35679,54.563
0.35288,54.368
0.34897,54.563
0.34702,54.954
0.34506,56.128
0.34213,58.279
0.34018,61.799
0.33724,66.884
0.33431,72.947
0.33138,79.205
0.32845,85.267
0.32551,90.939
0.32258,96.219
0.31965,100.72
0.31769,104.24
0.31476,106.98
0.31281,108.74
0.31085,109.52
0.3089,109.71
0.30694,108.93
0.30401,107.76
0.30108,106
0.29814,103.85
0.29423,101.3
0.2913,98.37
0.28837,95.046
0.28446,91.525
0.28152,87.81
0.27957,84.289
0.27761,80.965
0.27468,78.227
0.27175,75.685
0.26882,73.533
0.26588,71.969
0.26197,70.6
0.26002,69.426
0.25806,68.644
0.25709,68.057
0.26002,67.666
0.26784,67.275
0.2825,67.08
0.3001,66.884
0.32258,66.884
0.35386,66.884
0.39198,66.884
0.43402,66.688
0.47898,66.688
0.52297,66.688
0.565,66.688
0.60117,66.493
0.63245,66.297
0.65787,65.906
0.67742,65.711
0.68915,65.515
0.69501,65.124
0.69795,64.733
0.69795,64.537
0.69306,64.146
0.68426,63.95
0.67155,63.559
0.65494,63.168
0.63636,62.973
0.61486,62.582
0.59238,62.386
0.56794,61.995
0.54448,61.604
0.52395,61.213
0.5044,60.821
0.48485,60.235
0.46628,59.844
0.44868,59.452
0.43304,59.061
0.41935,58.67
0.40762,58.279
0.39785,57.888
0.38905,57.497
0.38123,56.91
0.37439,56.715
0.37048,56.323
0.36657,56.128
0.36266,56.128
0.35973,56.323
0.35679,56.715
0.35386,58.083
0.35093,60.235
0.348,64.146
0.34506,69.426
0.34311,75.489
0.34018,81.943
0.33724,88.005
0.33431,93.872
0.33236,99.153
0.33138,103.65
0.32845,107.17
0.32649,109.91
0.32356,111.67
0.3216,112.45
0.31867,112.45
0.31672,111.86
0.31378,110.5
0.31183,108.93
0.3089,106.78
0.30694,104.43
0.30499,101.69
0.30303,98.566
0.30108,95.046
0.29814,91.33
0.29619,87.81
0.29326,84.485
0.29032,81.552
0.28837,79.009
0.28543,76.858
0.28348,75.098
0.28055,73.729
0.27859,72.555
0.27761,71.773
0.27859,71.186
0.28152,70.795
0.28935,70.6
0.30205,70.404
0.32258,70.209
0.34995,70.209
0.38514,70.209
0.42522,70.209
0.46921,70.013
0.51417,70.013
0.55816,69.818
0.59824,69.622
0.62952,69.426
0.65396,69.231
0.67742,68.84
0.69697,68.449
0.71163,68.057
0.72141,67.666
0.7263,67.275
0.7263,66.884
0.72239,66.688
0.71457,66.297
0.70186,65.906
0.68719,65.515
0.66862,65.124
0.65103,64.733
0.63148,64.537
0.61095,63.95
0.58847,63.559
0.56598,62.973
0.54448,62.582
0.52395,61.995
0.50538,61.408
0.48876,60.821
0.47312,60.235
0.46041,59.648
0.44966,59.257
0.44086,58.67
0.43402,58.279
0.42717,57.692
0.42131,57.301
0.41642,57.106
0.41153,56.91
0.40762,56.715
0.40469,56.91
0.40078,57.497
0.39785,58.866
0.39492,61.799
0.39198,66.102
0.38807,72.164
0.38612,78.618
0.38319,85.463
0.38025,91.917
0.37732,97.979
0.37439,103.26
0.37048,107.95
0.36755,111.47
0.36364,114.02
0.3607,115.38
0.35777,115.97
0.35484,115.58
0.35093,114.8
0.34897,113.23
0.34604,111.47
0.34311,109.32
0.34018,106.98
0.33627,104.04
0.33236,100.91
0.32845,97.588
0.32454,93.872
0.31965,90.157
0.31574,86.441
0.31183,83.116
0.30792,80.378
0.30401,78.031
0.30108,76.076
0.29814,74.316
0.29521,73.142
0.29228,72.164
0.2913,71.382
0.29423,70.795
0.30205,70.6
0.31574,70.404
0.33822,70.209
0.36755,70.013
0.40371,70.013
0.44575,69.818
0.48387,69.818
0.51906,69.622
0.55718,69.426
0.59531,69.231
0.62854,69.035
0.65689,68.644
0.68035,68.253
0.69697,67.862
0.7087,67.471
0.71457,67.08
0.71652,66.688
0.71359,66.297
0.70772,65.906
0.69892,65.319
0.68622,64.928
0.67155,64.537
0.65298,64.146
0.63245,63.755
0.60997,63.364
0.58847,62.973
0.56794,62.582
0.54448,61.995
0.52102,61.604
0.49853,61.017
0.47703,60.626
0.45943,60.039
0.44575,59.648
0.43109,59.061
0.41838,58.475
0.40665,58.083
0.39687,57.692
0.38807,57.301
0.38025,56.91
0.37341,56.519
0.36852,56.128
0.36364,55.932
0.35875,55.932
0.35582,56.323
0.35288,57.106
0.34897,58.866
0.34506,62.19
0.34115,66.884
0.33724,72.947
0.33333,79.791
0.32942,86.441
0.32551,92.699
0.3216,98.566
0.31769,103.46
0.31476,107.56
0.31085,110.69
0.30792,112.65
0.30596,113.82
0.30303,114.02
0.3001,113.62
0.29619,112.45
0.29326,110.89
0.28935,108.93
0.28641,106.58
0.2825,103.85
0.27957,100.91
0.27566,97.393
0.27175,93.677
0.26979,89.961
0.26784,86.245
0.26491,82.921
0.26197,79.987
0.25904,77.445
0.25513,75.293
0.2522,73.533
0.24829,72.164
0.24536,71.186
0.24438,70.404
0.24536,69.818
0.25024,69.231
0.26197,69.035
0.27859,68.84
0.29912,68.644
0.3304,68.449
0.36852,68.253
0.41251,68.253
0.46041,68.253
0.50733,68.057
0.5523,68.057
0.59335,67.862
0.62854,67.666
0.65787,67.275
0.68035,67.08
0.69892,66.688
0.70577,66.297
0.7087,65.906
0.70674,65.515
0.6999,64.928
0.68915,64.537
0.67546,64.146
0.65689,63.95
0.63636,63.559
0.61388,63.168
0.58944,62.777
0.56403,62.386
0.54154,61.995
0.52102,61.408
0.49951,61.017
0.46725,60.626
0.44868,60.039
0.43109,59.648
0.4086,59.061
0.39687,58.67
0.38612,58.083
0.37732,57.692
0.3695,57.301
0.36364,56.91
0.35875,56.323
0.35484,55.932
0.34995,55.737
0.34604,55.541
0.34311,55.346
0.34018,55.541
0.33529,56.128
0.33138,57.106
0.32845,59.452
0.32258,62.973
0.31867,67.862
0.31672,73.729
0.31281,79.987
0.30987,86.05
0.30596,91.917
0.30303,97.001
0.3001,101.5
0.29717,105.22
0.29326,107.95
0.29032,109.71
0.28739,110.5
0.28348,110.5
0.28152,109.91
0.27957,108.74
0.27664,106.98
0.2737,104.82
0.26979,102.28
0.26686,99.153
0.26295,95.828
0.26002,92.308
0.25709,88.592
0.25415,84.876
0.25122,81.552
0.24829,78.618
0.24536,76.271
0.2434,74.12
0.24438,72.36
0.24633,70.991
0.2522,70.013
0.26393,69.035
0.2825,68.449
0.3089,68.057
0.34311,67.666
0.38319,67.471
0.42815,67.275
0.4741,67.08
0.51906,67.08
0.55621,67.08
0.58749,66.884
0.61779,66.884
0.64516,66.884
0.66667,66.688
0.68328,66.493
0.69306,66.297
0.69892,66.102
0.69892,65.711
0.69404,65.515
0.68524,64.928
0.67155,64.537
0.65494,64.342
0.63734,63.95
0.61779,63.559
0.59629,63.168
0.57283,62.973
0.54839,62.582
0.52395,62.19
0.50049,61.799
0.47898,61.408
0.45846,61.017
0.43988,60.626
0.42424,60.235
0.41056,59.844
0.39883,59.257
0.39101,58.67
0.38221,58.279
0.37439,57.888
0.36755,57.301
0.36168,56.91
0.35679,56.519
0.35288,56.128
0.34897,55.737
0.34506,55.346
0.34213,55.15
0.3392,54.954
0.33627,55.15
0.33431,55.346
0.33236,56.323
0.3304,58.083
0.32747,61.408
0.32454,65.906
0.3216,71.773
0.31867,78.227
0.31574,84.289
0.31281,90.352
0.30987,95.632
0.30694,100.33
0.30401,104.24
0.30205,107.17
0.30108,109.13
0.29912,110.3
0.29619,110.5
0.29326,110.1
0.29032,108.93
0.28641,107.37
0.28348,105.41
0.27957,102.87
0.27664,99.935
0.27273,96.806
0.26979,93.286
0.26686,89.57
0.26491,85.854
0.26295,82.529
0.26002,79.596
0.25806,76.858
0.25513,74.707
0.25415,72.947
0.25513,71.382
0.26002,70.209
0.27077,69.231
0.28837,68.644
0.31476,68.057
0.348,67.666
0.38221,67.471
0.4174,67.275
0.46041,67.08
0.50538,67.08
0.54936,67.08
0.59042,66.884
0.62659,66.884
0.65689,66.884
0.68035,66.688
0.69795,66.493
0.70968,66.297
0.71554,66.102
0.71554,65.906
0.71163,65.515
0.70381,65.124
0.69306,64.733
0.6784,64.537
0.65982,64.146
0.63832,63.755
0.61486,63.364
0.59042,62.973
0.56598,62.777
0.54154,62.386
0.51711,61.995
0.49462,61.604
0.47605,61.213
0.46041,60.821
0.44379,60.235
0.42913,59.844
0.41642,59.452
0.40469,59.061
0.39394,58.475
0.38514,58.083
0.37732,57.692
0.37048,57.106
0.36461,56.715
0.3607,56.323
0.35679,55.932
0.35777,55.541
0.35973,55.346
0.35875,55.15
0.35777,55.346
0.35484,55.541
0.35191,56.323
0.34897,57.888
0.34604,61.017
0.34213,65.515
0.3392,71.186
0.33529,77.64
0.33236,84.094
0.32942,90.157
0.32747,95.632
0.32454,100.52
0.3216,104.82
0.31867,107.95
0.31574,110.3
0.31281,111.67
0.3089,112.06
0.30596,111.86
0.30303,110.89
0.29912,109.32
0.29521,107.56
0.29326,105.22
0.2913,102.48
0.28837,99.544
0.28446,96.024
0.28152,92.308
0.27859,88.592
0.27468,85.072
0.27175,81.747
0.26784,78.814
0.26491,76.467
0.26393,74.511
0.26491,72.751
0.26979,71.382
0.27859,70.404
0.29228,69.622
0.31476,69.035
0.34604,68.644
0.38514,68.253
0.43011,68.057
0.47898,67.862
0.52884,67.666
0.57674,67.666
0.62072,67.471
0.65982,67.471
0.69208,67.471
0.71457,67.275
0.73021,67.08
0.74291,66.884
0.75171,66.688
0.75562,66.297
0.75464,65.906
0.74878,65.711
0.73803,65.319
0.72434,64.733
0.70577,64.537
0.68426,64.146
0.6608,63.755
0.63539,63.364
0.61095,62.973
0.58847,62.582
0.56403,62.19
0.53959,61.799
0.51613,61.408
0.49462,61.017
0.47507,60.626
0.45748,60.039
0.44184,59.648
0.42913,59.257
0.4174,58.67
0.40762,58.279
0.3998,57.888
0.39394,57.301
0.38807,56.91
0.38319,56.519
0.3783,56.128
0.37439,55.737
0.37048,55.346
0.36657,55.346
0.36364,55.346
0.35973,55.541
0.35679,56.323
0.35386,57.888
0.34995,61.017
0.34702,65.711
0.34506,71.382
0.34213,78.031
0.33822,84.289
0.33431,90.548
0.33138,96.415
0.32747,101.3
0.32356,105.61
0.32063,108.93
0.31672,111.28
0.31378,112.65
0.30987,113.04
0.30792,112.84
0.30499,112.06
0.30303,110.69
0.29912,108.93
0.29619,106.78
0.29228,104.24
0.28837,101.3
0.28543,97.979
0.28152,94.459
0.27761,90.548
0.2737,87.027
0.27077,83.507
0.26686,80.574
0.26491,78.031
0.26393,75.685
0.26491,73.924
0.26882,72.555
0.27761,71.382
0.29326,70.6
0.31769,70.013
0.34995,69.426
0.39101,69.231
0.43695,69.035
0.4868,68.84
0.53763,68.644
0.57967,68.644
0.61584,68.644
0.652,68.644
0.68524,68.644
0.71261,68.449
0.73412,68.449
0.74976,68.253
0.75953,68.057
0.76344,67.862
0.76246,67.471
0.75758,67.08
0.74682,66.688
0.73314,66.297
0.7175,65.906
0.69892,65.515
0.67742,65.124
0.65298,64.733
0.62659,64.342
0.6002,64.146
0.57283,63.755
0.54741,63.364
0.52297,62.973
0.50049,62.582
0.47996,61.995
0.46237,61.604
0.44868,61.213
0.43695,60.821
0.4262,60.235
0.41642,59.844
0.40762,59.452
0.40078,58.866
0.39394,58.475
0.38905,58.083
0.38514,57.692
0.38123,57.301
0.37732,57.106
0.37439,56.91
0.37146,56.91
0.3695,57.106
0.36755,57.888
0.36559,59.648
0.36266,62.973
0.35973,67.862
0.35679,73.924
0.35386,80.769
0.35093,87.614
0.348,93.872
0.34506,99.739
0.34213,105.02
0.3392,109.32
0.33724,112.65
0.33529,114.8
0.33333,116.17
0.3304,116.36
0.32747,116.17
0.32454,115.19
0.3216,113.62
0.31867,111.86
0.31574,109.71
0.31281,107.17
0.30987,104.43
0.30694,101.3
0.30401,97.784
0.30205,94.068
0.30108,90.352
0.29912,87.027
0.29619,83.898
0.29326,81.16
0.29228,78.814
0.29326,77.054
0.29717,75.489
0.30792,74.316
0.32649,73.533
0.35386,72.751
0.38905,72.36
0.42522,71.969
0.46334,71.773
0.50929,71.578
0.55718,71.578
0.60606,71.578
0.65005,71.382
0.69013,71.382
0.72336,71.186
0.75073,70.991
0.77028,70.6
0.78495,70.209
0.79374,69.818
0.7957,69.231
0.79374,68.84
0.78788,68.253
0.77908,67.666
0.76637,67.275
0.75073,66.688
0.73118,66.297
0.70968,65.906
0.68524,65.515
0.65982,65.124
0.63343,64.733
0.60802,64.342
0.5826,63.95
0.56207,63.559
0.54252,62.973
0.52395,62.582
0.50635,61.995
0.49071,61.408
0.47703,61.017
0.4653,60.43
0.45455,59.844
0.44575,59.452
0.43891,58.866
0.43206,58.279
0.4262,57.888
0.42229,57.497
0.41838,56.91
0.41447,56.715
0.41056,56.323
0.40567,56.323
0.40176,56.323
0.39785,57.106
0.39296,58.67
0.38807,61.604
0.38319,66.102
0.3783,72.164
0.37341,78.814
0.36852,85.658
0.36461,92.112
0.3607,98.175
0.35679,103.65
0.35288,107.95
0.348,111.47
0.34409,113.82
0.3392,115.19
0.3304,115.78
0.31965,115.38
0.31183,114.41
0.30499,113.04
0.3001,111.28
0.29619,108.93
0.29228,106.39
0.28837,103.65
0.28446,100.33
0.27957,96.806
0.27566,93.09
0.27077,89.374
0.26686,85.854
0.26197,82.725
0.25806,79.987
0.25513,77.64
0.25318,75.685
0.25611,74.12
0.26197,72.751
0.27273,71.773
0.2913,71.186
0.31769,70.6
0.35288,70.209
0.39296,70.013
0.43793,69.818
0.48387,69.622
0.52884,69.426
0.56989,69.426
0.60606,69.231
0.63636,69.035
0.65787,69.035
0.67253,68.644
0.68426,68.449
0.69306,68.253
0.69697,67.862
0.69599,67.471
0.69208,67.08
0.68426,66.493
0.67155,66.102
0.65689,65.711
0.63245,65.124
0.60899,64.733
0.59042,64.342
0.57087,63.95
0.55132,63.559
0.52981,63.168
0.50733,62.777
0.48485,62.386
0.46432,61.995
0.44575,61.408
0.42815,61.017
0.41349,60.626
0.40078,60.039
0.39003,59.648
0.38025,59.061
0.37243,58.475
0.36755,58.083
0.36168,57.692
0.35679,57.301
0.35191,56.91
0.348,56.323
0.34409,55.932
0.34018,55.737
0.33724,55.541
0.33333,55.541
0.3304,55.737
0.32649,56.323
0.32356,57.888
0.32063,60.626
0.31867,64.928
0.31574,70.6
0.31183,77.054
0.3089,83.507
0.30499,89.765
0.30108,95.632
0.29814,100.72
0.29423,105.02
0.2913,108.54
0.28837,110.69
0.28446,112.06
0.2825,112.65
0.28055,112.26
0.27761,111.47
0.27468,109.91
0.27175,107.95
0.26784,105.61
0.26393,102.87
0.261,99.739
0.25709,96.415
0.25318,92.699
0.25024,88.788
0.24731,85.072
0.2434,81.747
0.24145,78.814
0.24047,76.467
0.23851,74.511
0.23851,72.751
0.24047,71.578
0.24633,70.6
0.25904,69.818
0.27957,69.035
0.30792,68.644
0.34311,68.449
0.38514,68.057
0.43011,67.862
0.47019,67.862
0.50635,67.666
0.54448,67.666
0.58065,67.471
0.61193,67.471
0.63832,67.275
0.65885,67.08
0.67253,66.884
0.68231,66.688
0.68524,66.297
0.68426,65.906
0.67937,65.515
0.6696,65.124
0.65787,64.733
0.64321,64.342
0.62561,63.95
0.60411,63.559
0.58162,63.168
0.55816,62.777
0.53372,62.386
0.50929,61.995
0.4868,61.604
0.4653,61.408
0.44575,60.821
0.42815,60.43
0.41447,59.844
0.40274,59.452
0.39198,59.061
0.38123,58.475
0.37243,58.083
0.36461,57.497
0.35777,57.106
0.35191,56.715
0.34702,56.323
0.34213,55.932
0.3392,55.346
0.33529,55.15
0.33236,54.954
0.3304,54.759
0.32845,54.759
0.32551,55.15
0.32258,55.932
0.31965,57.497
0.31672,60.235
0.31281,64.537
0.30987,69.818
0.30596,75.88
0.30303,81.747
0.3001,87.419
0.29619,92.894
0.29423,97.393
0.29228,101.3
0.29032,104.43
0.28739,106.39
0.28543,107.76
0.2825,108.15
0.27957,107.76
0.27566,106.78
0.27273,105.22
0.26882,103.06
0.26588,100.52
0.26197,97.784
0.26002,94.459
0.25806,90.939
0.25513,87.223
0.25318,83.507
0.25024,80.378
0.24731,77.445
0.24438,75.098
0.24145,72.947
0.23949,71.382
0.23949,70.013
0.2434,68.84
0.25122,68.057
0.26588,67.471
0.28348,67.08
0.30596,66.688
0.33627,66.493
0.37341,66.297
0.41544,66.102
0.45846,65.906
0.50049,65.906
0.54057,65.906
0.57674,65.711
0.60704,65.711
0.6305,65.515
0.64907,65.319
0.6608,65.124
0.66569,64.733
0.66862,64.537
0.66764,64.146
0.66178,63.755
0.652,63.364
0.6393,62.973
0.6217,62.777
0.60215,62.386
0.58065,61.995
0.55816,61.604
0.5347,61.408
0.51124,61.017
0.49169,60.626
0.47312,60.235
0.45552,59.844
0.43793,59.452
0.42229,59.061
0.40762,58.67
0.39492,58.279
0.38416,57.692
0.37537,57.301
0.36657,56.91
0.35973,56.323
0.35386,55.932
0.34995,55.541
0.34702,55.15
0.34311,54.759
0.34018,54.368
0.33724,54.172
0.33431,53.977
0.33138,53.977
0.32845,54.172
0.32551,54.759
0.32258,56.323
0.31965,58.866
0.31672,62.973
0.31378,68.253
0.31085,74.316
0.3089,80.378
0.30694,86.441
0.30401,91.917
0.30205,96.806
0.29912,101.11
0.29619,104.43
0.29326,106.78
0.2913,108.34
0.28837,108.93
0.28543,108.74
0.2825,107.95
0.28055,106.58
0.27859,104.63
0.27566,102.48
0.27273,99.544
0.26979,96.415
0.26588,92.894
0.26295,89.179
0.26002,85.658
0.25709,82.138
0.25318,79.009
0.24927,76.271
0.24633,73.924
0.24536,72.164
0.25122,70.6
0.26002,69.231
0.26686,68.449
0.28739,67.666
0.32063,67.08
0.35973,66.688
0.40274,66.493
0.44966,66.297
0.49853,66.102
0.53568,65.906
0.57478,65.906
0.61877,65.906
0.65103,65.906
0.67449,65.711
0.69501,65.711
0.7175,65.515
0.73118,65.319
0.73803,65.124
0.739,64.733
0.73509,64.537
0.72532,64.146
0.71163,63.755
0.69404,63.364
0.67351,62.973
0.652,62.582
0.6305,62.19
0.60704,61.799
0.58162,61.408
0.55621,61.213
0.53177,60.821
0.50831,60.43
0.48778,60.039
0.46823,59.844
0.45064,59.257
0.43597,58.866
0.42326,58.279
0.41349,57.888
0.40567,57.301
0.39785,56.91
0.39101,56.519
0.38514,56.128
0.37928,55.541
0.37439,55.346
0.37048,54.954
0.36657,54.563
0.36364,54.172
0.35973,53.977
0.35679,53.781
0.35386,53.977
0.35093,54.368
0.34897,55.541
0.34702,57.888
0.34311,61.408
0.34018,66.493
0.33627,72.555
0.33333,78.814
0.32942,85.072
0.32649,90.743
0.32258,96.024
0.31965,100.72
0.31672,104.24
0.31378,106.98
0.31183,108.74
0.3089,109.71
0.30596,109.91
0.30205,109.13
0.29912,107.95
0.29521,106.19
0.2913,104.24
0.28739,101.5
0.28348,98.566
0.28055,95.241
0.27664,91.721
0.27273,88.005
0.27077,84.289
0.26882,80.965
0.26588,78.227
0.26295,75.685
0.26197,73.533
0.26197,71.773
0.26686,70.404
0.27761,69.426
0.29521,68.449
0.3216,67.862
0.35679,67.471
0.39883,67.275
0.43891,67.08
0.47801,66.884
0.52395,66.688
0.56891,66.688
0.61193,66.688
0.65103,66.688
0.68328,66.688
0.70968,66.688
0.72923,66.688
0.74194,66.493
0.74976,66.297
0.75171,66.102
0.74878,65.906
0.74194,65.515
0.73118,65.124
0.71652,64.928
0.69795,64.537
0.67644,64.146
0.652,63.95
0.62659,63.559
0.6002,63.168
0.5738,62.777
0.54741,62.386
0.52395,61.995
0.50147,61.604
0.48289,61.408
0.46725,60.821
0.45259,60.43
0.43891,59.844
0.4262,59.452
0.41642,59.061
0.40762,58.67
0.3998,58.279
0.39296,57.888
0.38807,57.301
0.38319,56.91
0.38025,56.715
0.37634,56.323
0.37439,55.932
0.37243,55.737
0.37048,55.737
0.36852,55.737
0.36559,56.323
0.36266,57.497
0.35973,60.039
0.35777,63.95
0.35484,69.426
0.35191,75.685
0.34897,82.334
0.34702,88.788
0.34409,94.655
0.34311,99.935
0.34018,104.63
0.33822,108.34
0.33529,111.08
0.33333,112.65
0.3304,113.43
0.32747,113.43
0.32454,112.84
0.3216,111.47
0.31867,109.91
0.31574,107.76
0.31378,105.41
0.31183,102.67
0.30987,99.348
0.30792,96.024
0.30499,92.308
0.30303,88.788
0.3001,85.267
0.29717,82.138
0.29521,79.4
0.29423,77.249
0.29717,75.293
0.30303,73.729
0.31672,72.555
0.33333,71.773
0.35582,70.991
0.3871,70.6
0.42717,70.209
0.4741,70.013
0.52297,69.818
0.57283,69.818
0.61975,69.818
0.66373,69.622
0.70088,69.622
0.73216,69.622
0.7566,69.622
0.77224,69.426
0.78201,69.035
0.78886,68.84
0.79081,68.449
0.78886,68.057
0.78299,67.666
0.77224,67.275
0.75855,66.688
0.73998,66.297
0.71945,65.711
0.69599,65.319
0.67155,64.733
0.64516,64.146
0.6217,63.755
0.6002,63.364
0.57771,62.973
0.55621,62.386
0.53568,61.995
0.51711,61.408
0.50147,61.017
0.4868,60.626
0.4741,60.039
0.46334,59.648
0.45455,59.061
0.44673,58.67
0.44086,58.279
0.43597,57.692
0.43206,57.301
0.42815,56.91
0.42424,56.519
0.42033,56.128
0.41642,55.737
0.41251,55.541
0.4086,55.541
0.40469,55.737
0.40078,56.91
0.39687,59.061
0.39296,62.973
0.38905,68.253
0.38612,74.511
0.38221,81.356
0.3783,88.005
0.37341,94.263
0.3695,99.935
0.36461,104.63
0.3607,108.54
0.35582,111.47
0.35191,113.23
0.34702,114.02
0.34213,114.02
0.3392,113.43
0.33529,112.06
0.33138,110.3
0.32649,108.34
0.3216,105.8
0.31672,103.06
0.31183,99.739
0.30694,96.415
0.30205,92.699
0.29717,88.788
0.29228,85.267
0.28739,81.943
0.28348,79.009
0.28055,76.467
0.28055,74.511
0.28348,72.751
0.29032,71.382
0.30596,70.404
0.32942,69.622
0.36168,69.035
0.40078,68.644
0.44673,68.449
0.4956,68.253
0.54448,68.057
0.59042,68.057
0.62757,68.057
0.65689,67.862
0.68524,67.862
0.7087,67.666
0.72727,67.471
0.74096,67.275
0.74878,67.08
0.75073,66.688
0.73803,66.297
0.71554,65.906
0.69697,65.515
0.67937,65.124
0.65982,64.733
0.64125,64.342
0.6217,63.95
0.59922,63.364
0.57478,62.973
0.55034,62.582
0.5259,62.19
0.50244,61.799
0.47996,61.408
0.45943,61.017
0.44086,60.626
0.42424,60.235
0.40958,59.648
0.39883,59.257
0.39003,58.67
0.38123,58.083
0.37439,57.692
0.36755,57.106
0.36168,56.715
0.35679,56.323
0.35288,55.932
0.34897,55.346
0.34506,55.15
0.34213,54.759
0.3392,54.563
0.33529,54.368
0.33333,54.368
0.3304,54.759
0.32845,55.932
0.32454,58.083
0.3216,61.604
0.31769,66.688
0.31476,72.751
0.31085,79.205
0.30792,85.658
0.30401,91.525
0.30108,97.001
0.29814,101.69
0.29521,105.41
0.29326,108.15
0.2913,110.1
0.28837,110.89
0.28446,110.89
0.28152,110.3
0.27761,108.93
0.2737,107.17
0.27077,104.82
0.26686,102.28
0.26393,99.153
0.26002,95.828
0.25709,92.112
0.25415,88.396
0.2522,84.681
0.25024,81.356
0.24633,78.227
0.2434,75.685
0.24145,73.533
0.24145,71.773
0.24438,70.404
0.25318,69.231
0.26882,68.449
0.29228,67.666
0.32356,67.275
0.35582,66.884
0.39003,66.493
0.43206,66.297
0.47605,66.297
0.52004,66.102
0.56109,66.102
0.59726,65.906
0.62757,65.906
0.652,65.906
0.67058,65.711
0.68231,65.515
0.68915,65.319
0.6911,65.124
0.68817,64.733
0.68133,64.342
0.67155,63.95
0.65787,63.559
0.64027,63.168
0.62072,62.777
0.59824,62.386
0.57478,61.995
0.55034,61.604
0.52688,61.408
0.50342,61.017
0.48094,60.626
0.46237,60.235
0.44575,59.844
0.43011,59.452
0.41447,59.061
0.40078,58.67
0.38905,58.083
0.37928,57.692
0.37048,57.106
0.36266,56.715
0.35679,56.128
0.35093,55.737
0.34604,55.346
0.34311,54.954
0.34018,54.563
0.33822,54.172
0.33529,53.781
0.33236,53.585
0.32942,53.585
0.32649,53.781
0.32356,53.977
0.32063,54.954
0.31769,56.91
0.31378,60.235
0.31085,64.733
0.30792,70.404
0.30596,76.271
0.30401,82.138
0.30205,87.614
0.29912,92.699
0.29619,97.001
0.29326,100.52
0.29032,103.26
0.28739,105.02
0.28446,105.8
0.28152,105.8
0.27859,105.22
0.27468,104.04
0.27273,102.28
0.27077,99.935
0.26784,97.197
0.26491,94.068
0.26197,90.743
0.25904,87.027
0.25611,83.312
0.25318,79.987
0.24927,77.054
0.24633,74.316
0.24438,72.164
0.24242,70.209
0.2434,68.84
0.24633,67.666
0.2522,66.688
0.26491,65.906
0.28348,65.319
0.30987,64.928
0.34409,64.733
0.38319,64.537
0.42522,64.537
0.46921,64.342
0.51222,64.342
0.55132,64.146
0.58553,64.146
0.61193,64.146
0.6305,63.95
0.64809,63.95
0.6608,63.755
0.66862,63.559
0.67155,63.168
0.6696,62.973
0.66276,62.777
0.652,62.386
0.63734,61.995
0.61975,61.604
0.59922,61.408
0.57771,61.017
0.55621,60.626
0.53666,60.43
0.51515,60.039
0.49365,59.648
0.47312,59.452
0.45357,59.061
0.435,58.67
0.41935,58.279
0.40567,57.692
0.39394,57.301
0.38319,56.715
0.37439,56.323
0.36755,55.932
0.36266,55.541
0.35777,55.15
0.35288,54.563
0.34897,54.172
0.34506,53.781
0.34213,53.585
0.3392,53.194
0.33724,52.999
0.33431,52.803
0.33138,52.803
0.32845,53.194
0.32649,53.781
0.32454,55.346
0.32258,57.888
0.32063,61.995
0.31769,67.471
0.31574,73.533
0.31281,79.596
0.31085,85.463
0.30792,90.743
0.30499,95.437
0.30303,99.544
0.3001,102.67
0.29717,104.82
0.29521,106.19
0.29326,106.58
0.2913,106.39
0.28837,105.41
0.28543,103.85
0.2825,101.89
0.27859,99.348
0.27566,96.415
0.27175,93.09
0.26882,89.57
0.26588,85.854
0.26295,82.529
0.26002,79.205
0.25806,76.271
0.25611,73.924
0.25415,71.773
0.25318,70.013
0.25415,68.644
0.25806,67.471
0.26882,66.688
0.28543,66.102
0.31085,65.711
0.34311,65.319
0.38221,64.928
0.42522,64.733
0.46432,64.537
0.50049,64.537
0.53959,64.537
0.57771,64.537
0.61095,64.342
0.64027,64.342
0.66276,64.146
0.67937,64.146
0.6911,63.95
0.69697,63.755
0.69697,63.364
0.69208,62.973
0.68328,62.777
0.67155,62.386
0.65787,61.995
0.6393,61.799
0.61877,61.408
0.59629,61.017
0.57283,60.821
0.54839,60.43
0.52493,60.039
0.50244,59.844
0.48192,59.452
0.46237,59.061
0.44477,58.67
0.43109,58.279
0.41935,57.888
0.41349,57.497
0.41153,57.106
0.40567,56.519
0.3998,56.128
0.39296,55.541
0.38807,55.15
0.38221,54.759
0.3783,54.368
0.37439,53.977
0.37048,53.585
0.36755,53.39
0.36461,52.999
0.36266,52.999
0.35973,53.194
0.35679,53.781
0.35386,54.954
0.34995,57.301
0.34702,61.017
0.34409,65.906
0.34018,71.969
0.33724,78.031
0.33431,84.094
0.33138,89.765
0.32942,94.655
0.32747,98.957
0.32551,102.48
0.32258,105.02
0.31965,106.58
0.31672,107.37
0.31378,107.37
0.30987,106.78
0.30694,105.41
0.30303,103.65
0.29912,101.3
0.29619,98.566
0.29228,95.632
0.28935,92.308
0.28739,88.788
0.28446,85.072
0.28152,81.747
0.27859,78.618
0.27468,75.88
0.27175,73.533
0.26979,71.578
0.26979,70.013
0.2737,68.644
0.28348,67.666
0.3001,66.884
0.3216,66.297
0.34702,65.906
0.38319,65.515
0.4262,65.124
0.47312,64.928
0.52199,64.733
0.56989,64.733
0.61388,64.537
0.65298,64.537
0.68622,64.537
0.71261,64.537
0.73314,64.342
0.74682,64.146
0.75367,63.95
0.75464,63.755
0.75269,63.559
0.74585,63.168
0.73509,62.973
0.72043,62.582
0.70088,62.19
0.67937,61.799
0.65494,61.408
0.62952,61.213
0.60411,60.821
0.57771,60.626
0.55523,60.235
0.5347,59.844
0.51417,59.452
0.49365,59.061
0.47507,58.67
0.45846,58.279
0.44379,57.888
0.43109,57.301
0.42033,56.91
0.41056,56.519
0.40274,55.932
0.39492,55.541
0.39003,55.15
0.38612,54.759
0.38123,54.172
0.37732,53.781
0.37341,53.585
0.37048,53.194
0.36657,53.194
0.36364,53.194
0.3607,53.585
0.35777,54.368
0.35386,56.323
0.35093,59.452
0.348,64.342
0.34506,70.404
0.34311,76.662
0.34115,83.116
0.33822,89.179
0.33529,94.655
0.33236,99.544
0.32845,103.65
0.32551,106.78
0.32258,108.93
0.31965,110.1
0.31574,110.5
0.31281,110.1
0.30987,109.13
0.30792,107.56
0.30499,105.61
0.30108,103.26
0.29717,100.52
0.29423,97.393
0.29032,94.068
0.28641,90.352
0.28348,86.636
0.27957,83.116
0.27566,79.987
0.27273,77.249
0.26979,74.902
0.26882,72.947
0.27175,71.382
0.27761,70.013
0.28935,69.035
0.30987,68.449
0.33822,67.862
0.37537,67.471
0.42033,67.275
0.47019,67.08
0.52102,67.08
0.57185,67.08
0.61975,67.08
0.65787,67.08
0.68719,67.08
0.71554,66.884
0.73998,66.688
0.75855,66.688
0.77126,66.493
0.77908,66.297
0.78006,65.906
0.77713,65.711
0.76833,65.515
0.75562,65.124
0.739,64.733
0.71848,64.342
0.69795,63.95
0.67644,63.559
0.652,63.168
0.62659,62.973
0.6002,62.582
0.5738,62.19
0.54936,61.799
0.52688,61.408
0.50635,61.017
0.48778,60.626
0.47214,60.235
0.45748,59.844
0.4477,59.257
0.43891,58.866
0.43109,58.279
0.42424,57.888
0.41838,57.497
0.41349,57.106
0.4086,56.715
0.40469,56.323
0.40078,56.128
0.39785,55.737
0.39492,55.541
0.39198,55.541
0.38905,55.737
0.3871,56.519
0.38514,58.279
0.38319,61.213
0.38025,65.906
0.3783,71.773
0.37537,78.422
0.37243,85.072
0.3695,91.33
0.36657,97.001
0.36364,102.09
0.3607,106.19
0.35777,109.52
0.35582,111.67
0.35484,113.04
0.35191,113.23
0.34995,112.84
0.34702,111.86
0.34409,110.3
0.34018,108.34
0.33724,106
0.33431,103.46
0.3304,100.52
0.32747,97.393
0.32454,93.872
0.3216,90.352
0.31965,86.636
0.31769,83.507
0.31476,80.574
0.31281,78.031
0.31183,76.076
0.31281,74.316
0.31867,72.751
0.33138,71.773
0.35093,70.795
0.37928,70.013
0.41642,69.426
0.46041,69.035
0.50244,68.84
0.54252,68.644
0.58749,68.644
0.63245,68.449
0.67449,68.449
0.71163,68.253
0.74291,68.253
0.76735,68.057
0.78592,67.862
0.79765,67.471
0.80352,67.275
0.8045,66.884
0.80156,66.493
0.79374,66.102
0.78201,65.711
0.76735,65.124
0.74878,64.733
0.72825,64.342
0.70479,63.755
0.67937,63.364
0.65396,62.973
0.62757,62.582
0.60215,62.19
0.57869,61.799
0.55621,61.408
0.53666,60.821
0.52102,60.43
0.50538,60.039
0.49071,59.452
0.47801,59.061
0.46628,58.475
0.4565,58.083
0.4477,57.497
0.43988,57.106
0.43304,56.715
0.42815,56.128
0.42229,55.737
0.41838,55.346
0.41447,55.15
0.41056,54.759
0.40665,54.563
0.40274,54.563
0.39785,54.954
0.39296,55.932
0.38807,58.083
0.38221,61.604
0.37048,66.688
0.35582,72.947
0.34604,79.791
0.3392,86.245
0.33431,92.503
0.3304,97.979
0.32551,102.87
0.3216,106.98
0.31769,109.71
0.31281,111.67
0.3089,112.65
0.30499,112.65
0.3001,112.06
0.29619,110.69
0.2913,108.93
0.28739,106.78
0.2825,104.24
0.27957,101.3
0.27664,98.175
0.2737,94.655
0.26979,90.939
0.26588,87.223
0.26295,83.703
0.25904,80.378
0.25513,77.64
0.2522,75.098
0.25122,73.338
0.25318,71.773
0.26002,70.404
0.27077,69.426
0.28641,68.644
0.31183,68.057
0.34506,67.666
0.38514,67.471
0.42913,67.275
0.47605,67.08
0.52199,67.08
0.56403,66.884
0.60215,66.884
0.63441,66.688
0.6608,66.493
0.68035,66.297
0.69208,66.102
0.69795,65.906
0.70088,65.711
0.70088,65.319
0.69599,64.928
0.68719,64.537
0.67546,64.146
0.65982,63.755
0.64125,63.364
0.61975,62.973
0.59726,62.582
0.57283,62.19
0.55034,61.799
0.52981,61.408
0.50831,61.213
0.4868,60.821
0.46628,60.43
0.44673,60.039
0.43011,59.648
0.41447,59.061
0.40176,58.67
0.39003,58.083
0.38123,57.692
0.37341,57.106
0.36657,56.715
0.36266,56.128
0.35777,55.737
0.35288,55.346
0.34897,54.954
0.34506,54.563
0.34213,54.172
0.33822,53.977
0.33529,53.781
0.33138,53.781
0.32845,53.977
0.32551,54.759
0.3216,56.128
0.31965,58.866
0.31672,62.973
0.31378,68.449
0.31085,74.511
0.30694,80.769
0.30401,86.636
0.30108,92.112
0.29814,96.806
0.29423,100.91
0.2913,104.04
0.28837,106.19
0.28543,107.37
0.2825,107.76
0.28055,107.37
0.27859,106.19
0.27566,104.43
0.27175,102.48
0.26882,99.739
0.26491,96.806
0.26197,93.677
0.25806,90.157
0.25513,86.441
0.25122,82.725
0.24829,79.596
0.24536,76.662
0.2434,74.12
0.24145,72.164
0.24047,70.404
0.24047,69.035
0.24438,68.057
0.25318,67.08
0.26882,66.493
0.2913,65.906
0.32258,65.515
0.35973,65.319
0.40176,65.124
0.44673,64.928
0.48583,64.733
0.52004,64.733
0.55621,64.733
0.58944,64.537
0.61877,64.537
0.64223,64.537
0.65885,64.342
0.67058,64.146
0.67742,63.95
0.6784,63.559
0.67449,63.364
0.66569,62.973
0.65396,62.582
0.6393,62.19
0.62366,61.799
0.60411,61.408
0.58162,61.213
0.55914,60.821
0.53568,60.43
0.51222,60.039
0.48974,59.844
0.46823,59.452
0.44868,59.061
0.43109,58.67
0.41544,58.279
0.40274,57.888
0.39296,57.301
0.38319,56.91
0.37439,56.519
0.36657,55.932
0.35973,55.541
0.35386,55.15
0.34897,54.759
0.34409,54.368
0.34018,53.781
0.33724,53.585
0.33431,53.194
0.33138,52.999
0.32942,52.803
0.32747,52.803
0.32551,52.999
0.32258,53.585
0.31965,54.954
0.31672,57.497
0.31378,61.408
0.31085,66.493
0.30792,72.36
0.30499,78.227
0.30205,84.094
0.3001,89.374
0.29814,94.263
0.29619,98.175
0.29423,101.3
0.2913,103.65
0.28837,105.02
0.28543,105.61
0.2825,105.41
0.27957,104.43
0.27664,102.87
0.27273,100.91
0.26979,98.37
0.26588,95.632
0.26295,92.503
0.26002,88.983
0.25904,85.463
0.25611,81.943
0.25318,78.618
0.25122,75.88
0.24829,73.533
0.24536,71.382
0.24438,69.622
0.24438,68.253
0.24829,67.275
0.25709,66.297
0.27175,65.711
0.29032,65.124
0.31378,64.733
0.34604,64.537
0.38514,64.342
0.42815,64.146
0.47312,63.95
0.51613,63.95
0.55718,63.95
0.59335,63.755
0.62366,63.755
0.64809,63.559
0.66569,63.364
0.6784,63.168
0.68426,62.973
0.68524,62.777
0.68231,62.582
0.67546,62.19
0.66471,61.799
0.65005,61.604
0.63245,61.213
0.6129,60.821
0.59042,60.626
0.56696,60.235
0.5435,59.844
0.52004,59.648
0.49951,59.257
0.48192,58.866
0.46334,58.475
0.44575,58.083
0.43011,57.692
0.41544,57.301
0.40274,56.91
0.39198,56.519
0.38221,55.932
0.37439,55.541
0.36755,55.15
0.3607,54.759
0.35582,54.172
0.35191,53.781
0.34897,53.585
0.34604,53.194
0.34311,52.803
0.34018,52.608
0.33724,52.412
0.33431,52.412
0.33138,52.803
0.32845,53.585
0.32551,55.15
0.32258,58.083
0.31965,62.386
0.31769,67.666
0.31574,73.729
0.31378,79.791
0.31085,85.463
0.30792,90.548
0.30499,95.241
0.30205,99.153
0.29912,102.09
0.29717,104.24
0.29423,105.61
0.2913,105.8
0.28837,105.61
0.28446,104.43
0.2825,102.87
0.28055,100.91
0.28055,98.37
0.2825,95.437
0.28152,92.308
0.27957,88.788
0.27664,85.267
0.2737,81.943
0.27077,78.618
0.26686,75.88
0.26393,73.533
0.261,71.382
0.26002,69.622
0.261,68.253
0.26491,67.275
0.27468,66.297
0.29032,65.515
0.31476,65.124
0.34702,64.733
0.3871,64.342
0.43206,64.146
0.48094,63.95
0.52981,63.95
0.57576,63.95
0.6129,63.755
0.64321,63.755
0.67253,63.755
0.69795,63.559
0.7175,63.364
0.73118,63.168
0.739,62.973
0.74194,62.777
0.73803,62.582
0.73021,62.19
0.7175,61.799
0.70186,61.604
0.68133,61.213
0.66178,60.821
0.64027,60.43
0.61681,60.235
0.59238,59.844
0.56696,59.452
0.54154,59.257
0.51808,58.866
0.49658,58.475
0.47605,58.083
0.45846,57.692
0.44282,57.106
0.42913,56.715
0.41838,56.323
0.40958,55.932
0.40176,55.346
0.39394,54.954
0.3871,54.563
0.38123,54.172
0.37634,53.781
0.37146,53.39
0.36755,52.999
0.36461,52.803
0.3607,52.412
0.35777,52.412
0.35386,52.608
0.35191,52.999
0.34897,54.172
0.34702,56.519
0.34409,60.235
0.34018,65.515
0.33724,71.578
0.33431,77.836
0.33138,84.094
0.32845,89.765
0.32551,94.85
0.3216,99.153
0.31867,102.67
0.31672,105.41
0.31476,107.17
0.31183,107.95
0.3089,107.95
0.30499,107.37
0.30205,106
0.29814,104.24
0.29423,102.09
0.2913,99.544
0.28739,96.61
0.28348,93.481
0.28055,89.961
0.27664,86.245
0.2737,82.725
0.27175,79.4
0.26979,76.467
0.26588,73.924
0.26393,71.773
0.26295,70.013
0.26491,68.644
0.27175,67.471
0.28543,66.688
0.30792,65.906
0.3392,65.515
0.3783,65.124
0.41642,64.928
0.4565,64.733
0.50342,64.537
0.55132,64.537
0.59824,64.537
0.64027,64.537
0.67742,64.342
0.70772,64.342
0.73216,64.146
0.74878,63.95
0.75953,63.755
0.76442,63.559
0.76442,63.168
0.75953,62.973
0.75073,62.582
0.73705,62.19
0.72043,61.799
0.70088,61.604
0.67742,61.213
0.652,60.821
0.62561,60.626
0.59824,60.235
0.57185,59.844
0.54545,59.648
0.52102,59.257
0.50147,58.866
0.48387,58.475
0.46628,58.279
0.45064,57.888
0.43597,57.497
0.42326,56.91
0.41251,56.519
0.40371,56.128
0.39492,55.737
0.38807,55.346
0.38221,54.954
0.37732,54.563
0.37341,54.172
0.3695,53.781
0.36755,53.585
0.36461,53.585
0.36168,53.585
0.35777,53.781
0.35484,54.759
0.35191,56.519
0.348,59.648
0.34506,64.342
0.34115,70.209
0.33822,76.662
0.33431,83.116
0.33138,89.374
0.32942,94.85
0.32649,99.544
0.32356,103.65
0.32063,106.78
0.31769,108.74
0.31476,110.1
0.31183,110.3
0.3089,109.91
0.30499,108.93
0.30205,107.56
0.29814,105.61
0.29521,103.46
0.29326,100.72
0.2913,97.979
0.28837,94.655
0.28641,91.33
0.28348,87.614
0.27957,84.289
0.27664,81.16
0.2737,78.227
0.27077,75.88
0.26979,73.924
0.27077,72.164
0.27664,70.795
0.28641,69.818
0.30205,69.035
0.32649,68.644
0.35973,68.057
0.40176,67.862
0.44966,67.666
0.50049,67.471
0.5523,67.471
0.60117,67.471
0.64712,67.275
0.68622,67.275
0.71945,67.275
0.74487,67.08
0.76246,67.08
0.77224,66.884
0.77908,66.688
0.78299,66.297
0.78104,65.906
0.77517,65.711
0.7654,65.319
0.75171,64.733
0.73412,64.537
0.71359,64.146
0.6911,63.755
0.66569,63.559
0.64223,63.168
0.61975,62.777
0.59629,62.386
0.57283,61.995
0.54936,61.604
0.52786,61.213
0.50929,60.821
0.49169,60.235
0.47703,59.844
0.46334,59.452
0.45259,59.061
0.44282,58.475
0.435,58.279
0.42913,57.692
0.42522,57.301
0.42033,56.91
0.41642,56.519
0.41251,56.128
0.40958,55.737
0.40665,55.541
0.40274,55.541
0.3998,55.541
0.39687,56.323
0.39394,57.692
0.39003,60.235
0.38807,64.733
0.38514,70.6
0.38221,77.054
0.37928,83.898
0.37634,90.352
0.37243,96.219
0.3695,101.3
0.36657,105.8
0.36266,109.13
0.35973,111.67
0.35582,113.04
0.35288,113.62
0.34897,113.43
0.34702,112.45
0.34409,111.08
0.34115,109.32
0.33822,107.37
0.33431,105.02
0.33138,102.28
0.32747,99.153
0.32454,95.632
0.32063,92.112
0.31769,88.396
0.31378,84.876
0.30987,81.552
0.30792,78.814
0.30596,76.467
0.30596,74.316
0.30792,72.751
0.31476,71.578
0.32942,70.6
0.35288,69.622
0.38416,69.035
0.42424,68.644
0.46432,68.449
0.5044,68.253
0.54839,68.057
0.58749,67.862
0.62072,67.862
0.65396,67.666
0.68426,67.666
0.71065,67.471
0.73118,67.275
0.74585,67.08
0.75562,66.884
0.75953,66.493
0.75953,66.102
0.75464,65.711
0.74585,65.319
0.73314,64.733
0.71848,64.342
0.70186,63.95
0.68133,63.559
0.65885,63.168
0.63343,62.777
0.60802,62.386
0.58162,61.995
0.55621,61.408
0.53177,61.213
0.50831,60.821
0.48778,60.235
0.46921,59.844
0.45357,59.452
0.44086,58.866
0.42913,58.475
0.41838,57.888
0.4086,57.497
0.3998,56.91
0.39296,56.519
0.38612,56.128
0.38123,55.737
0.37537,55.346
0.37146,54.954
0.36657,54.563
0.36266,54.368
0.35973,54.172
0.35679,54.172
0.35288,54.759
0.34897,56.128
0.34506,58.475
0.34115,62.582
0.33627,68.057
0.33236,74.511
0.32845,81.16
0.32454,87.614
0.31965,93.481
0.31574,98.761
0.31281,103.26
0.30987,106.98
0.30694,109.52
0.30303,111.08
0.3001,111.86
0.29619,111.67
0.2913,110.69
0.28739,109.32
0.28348,107.56
0.27957,105.41
0.27468,102.67
0.27077,99.935
0.26686,96.806
0.26393,93.286
0.26197,89.57
0.25904,85.854
0.25611,82.529
0.2522,79.4
0.24829,76.662
0.24536,74.316
0.24438,72.36
0.24633,70.795
0.25318,69.622
0.26686,68.644
0.28837,67.862
0.31281,67.471
0.34213,67.08
0.38123,66.884
0.4262,66.493
0.47312,66.493
0.52102,66.297
0.565,66.102
0.60508,66.102
0.6393,66.102
0.66764,65.906
0.68817,65.711
0.70381,65.515
0.71261,65.319
0.71652,64.928
0.71554,64.733
0.71065,64.342
0.70186,63.95
0.69013,63.559
0.67449,63.168
0.65591,62.777
0.63539,62.386
0.61193,61.995
0.58749,61.604
0.56207,61.213
0.53666,61.017
0.51417,60.626
0.49462,60.235
0.4741,59.844
0.45455,59.257
0.43695,58.866
0.42131,58.475
0.40762,58.083
0.39589,57.497
0.38514,57.106
0.37634,56.519
0.36852,56.128
0.36266,55.737
0.35679,55.15
0.35288,54.759
0.34897,54.368
0.34604,53.977
0.34311,53.781
0.34018,53.585
0.33724,53.39
0.33431,53.39
0.3304,53.781
0.32747,54.563
0.32454,56.323
0.32063,59.452
0.31769,64.146
0.31476,70.013
0.31281,76.271
0.30987,82.529
0.30596,88.201
0.30303,93.481
0.3001,98.175
0.29717,102.09
0.29423,105.02
0.29032,106.98
0.28739,107.95
0.28446,108.34
0.28152,107.76
0.27761,106.58
0.27566,104.82
0.2737,102.67
0.27077,100.33
0.26686,97.393
0.26393,94.068
0.26002,90.548
0.25611,87.027
0.25318,83.312
0.24927,79.987
0.24633,77.054
0.2434,74.511
0.24047,72.36
0.23949,70.6
0.24047,69.035
0.24438,68.057
0.2522,67.08
0.26686,66.493
0.29032,65.906
0.32063,65.711
0.35875,65.319
0.40274,65.124
0.44966,64.928
0.49658,64.928
0.54252,64.733
0.58358,64.733
0.61486,64.733
0.6393,64.537
0.6608,64.537
0.67937,64.342
0.69208,64.146
0.69892,63.95
0.70186,63.559
0.69892,63.364
0.69208,62.973
0.68035,62.777
0.66471,62.386
0.64614,61.995
0.62757,61.604
0.60802,61.213
0.58456,61.017
0.56109,60.626
0.53568,60.235
0.51222,59.844
0.48876,59.648
0.46725,59.257
0.4477,58.866
0.43011,58.279
0.41544,57.888
0.40176,57.497
0.39003,56.91
0.38123,56.519
0.37439,56.128
0.36755,55.541
0.36168,55.15
0.35679,54.759
0.35191,54.368
0.348,53.977
0.34409,53.585
0.34115,53.39
0.33822,52.999
0.33529,52.999
0.33236,52.999
0.3304,53.39
0.32845,54.368
0.32649,56.128
0.32356,59.257
0.32063,63.95
0.31769,69.622
0.31476,75.685
0.31183,81.747
0.3089,87.419
0.30596,92.699
0.30303,97.197
0.3001,100.91
0.29717,103.65
0.29521,105.61
0.29423,106.58
0.2913,106.78
0.28935,106.39
0.28543,105.22
0.2825,103.65
0.27859,101.5
0.27566,98.957
0.27175,96.219
0.26882,92.894
0.26491,89.374
0.26197,85.854
0.25904,82.334
0.25806,79.205
0.25513,76.271
0.2522,73.729
0.24927,71.773
0.24731,70.013
0.24829,68.644
0.25122,67.666
0.261,66.688
0.27761,66.102
0.30108,65.711
0.33333,65.319
0.36657,64.928
0.40176,64.733
0.44379,64.537
0.48876,64.537
0.53372,64.537
0.57478,64.342
0.61193,64.342
0.64223,64.146
0.66764,64.146
0.68622,63.95
0.69795,63.755
0.70479,63.559
0.70674,63.168
0.70381,62.973
0.69599,62.582
0.68524,62.19
0.66862,61.799
0.64809,61.408
0.62659,61.213
0.60313,61.017
0.57967,60.626
0.55621,60.235
0.53275,60.039
0.51026,59.648
0.48974,59.257
0.47116,58.866
0.4565,58.475
0.44086,58.083
0.42717,57.692
0.41447,57.301
0.40274,56.91
0.39296,56.323
0.38416,55.932
0.37732,55.541
0.37146,55.15
0.36559,54.563
0.36168,54.172
0.35777,53.781
0.35484,53.39
0.35288,53.194
0.35093,52.999
0.348,52.999
0.34506,52.999
0.34213,53.585
0.3392,54.759
0.33627,57.301
0.33333,61.213
0.3304,66.493
0.32845,72.555
0.32551,79.009
0.32356,85.072
0.3216,90.743
0.31965,95.828
0.31672,100.33
0.31476,103.85
0.31183,106.39
0.3089,108.15
0.30596,108.93
0.30303,108.93
0.3001,108.15
0.29717,106.98
0.29423,105.22
0.29032,103.06
0.28837,100.52
0.28641,97.588
0.28446,94.263
0.28152,90.743
0.27859,87.223
0.27566,83.507
0.27175,80.183
0.26882,77.249
0.26588,74.902
0.26295,72.751
0.26197,70.991
0.26393,69.426
0.26882,68.449
0.27761,67.471
0.29423,66.884
0.31769,66.297
0.34995,65.906
0.38807,65.711
0.43206,65.515
0.47801,65.319
0.52297,65.124
0.56598,65.124
0.60411,65.124
0.63734,64.928
0.66471,64.928
0.68328,64.733
0.69599,64.537
0.70479,64.342
0.71065,64.146
0.71163,63.95
0.7087,63.559
0.70186,63.168
0.69013,62.973
0.67546,62.582
0.65689,62.19
0.63636,61.799
0.61388,61.408
0.59335,61.213
0.57283,60.821
0.55034,60.626
0.52786,60.235
0.50538,59.844
0.48485,59.452
0.4653,59.061
0.4477,58.475
0.43206,58.279
0.41935,57.692
0.40762,57.301
0.39687,56.91
0.38905,56.323
0.38221,55.932
0.37732,55.541
0.37146,55.15
0.36755,54.563
0.36266,54.172
0.35875,53.781
0.35582,53.585
0.35288,53.39
0.34995,53.39
0.34702,53.781
0.34409,54.563
0.34115,56.323
0.3392,59.452
0.33724,63.95
0.33431,69.818
0.33138,76.271
0.32845,82.725
0.32551,88.592
0.32258,94.263
0.31965,99.153
0.31769,103.26
0.31476,106.58
0.31183,108.74
0.3089,110.3
0.30596,110.69
0.30401,110.5
0.30205,109.52
0.3001,108.15
0.29717,106.19
0.29326,104.04
0.29032,101.3
0.28641,98.37
0.28348,95.046
0.27957,91.33
0.27664,87.614
0.2737,83.898
0.26979,80.574
0.26784,77.445
0.26588,74.902
0.26393,72.751
0.26295,71.186
0.26588,69.818
0.27273,68.644
0.28543,67.666
0.30694,67.08
0.33627,66.688
0.37243,66.297
0.41447,66.102
0.45943,65.906
0.50635,65.906
0.54545,65.906
0.57869,65.711
0.61193,65.711
0.64321,65.711
0.66862,65.711
0.68915,65.515
0.70479,65.515
0.71359,65.319
0.71848,65.124
0.71848,64.733
0.71359,64.537
0.70479,64.146
0.69306,63.95
0.67937,63.559
0.66178,63.168
0.64125,62.973
0.61877,62.582
0.59433,62.386
0.56891,61.995
0.54448,61.604
0.52102,61.408
0.49756,61.017
0.47703,60.626
0.45846,60.235
0.44086,59.844
0.42717,59.452
0.41642,59.061
0.40567,58.475
0.39687,58.083
0.38807,57.692
0.38025,57.301
0.37439,56.91
0.3695,56.519
0.36461,56.128
0.36168,55.541
0.35777,55.346
0.35484,54.954
0.35288,54.759
0.35093,54.954
0.34897,55.346
0.34702,56.323
0.34409,58.475
0.34213,62.386
0.3392,67.666
0.33627,73.924
0.33333,80.769
0.33138,87.223
0.32845,93.481
0.32649,98.957
0.32454,103.85
0.32356,107.95
0.3216,110.89
0.31965,112.84
0.31769,113.82
0.31476,114.02
0.31281,113.43
0.30987,112.26
0.30694,110.69
0.30499,108.74
0.30205,106.39
0.29912,103.85
0.29619,100.91
0.29423,97.588
0.29326,94.068
0.2913,90.352
0.28837,86.832
0.28641,83.507
0.28348,80.574
0.28055,78.031
0.27859,75.88
0.27957,74.12
0.28446,72.751
0.29521,71.578
0.31281,70.795
0.33431,70.209
0.35973,69.622
0.39492,69.426
0.43695,69.231
0.48289,69.035
0.52884,69.035
0.57478,69.035
0.61584,68.84
0.652,68.84
0.68231,68.644
0.70674,68.644
0.72532,68.449
0.73803,68.253
0.74389,67.862
0.74487,67.666
0.74291,67.275
0.73803,66.884
0.73021,66.493
0.71848,66.102
0.70283,65.711
0.68524,65.319
0.66471,64.928
0.64223,64.733
0.61877,64.342
0.59531,63.95
0.57478,63.559
0.55523,63.168
0.5347,62.777
0.51515,62.19
0.49658,61.799
0.47996,61.213
0.4653,60.626
0.45259,60.235
0.44184,59.648
0.43206,59.061
0.42229,58.475
0.41251,57.888
0.40567,57.497
0.40078,56.91
0.39687,56.519
0.39296,56.128
0.38905,55.737
0.38612,55.346
0.38319,55.346
0.38025,55.346
0.37634,56.128
0.37341,57.497
0.37048,60.43
0.36657,64.928
0.36364,70.795
0.3607,77.445
0.35777,84.289
0.35484,90.743
0.35191,96.61
0.34897,102.09
0.34506,106.58
0.34213,110.1
0.3392,112.65
0.33529,114.21
0.33236,114.8
0.32845,114.6
0.32551,113.62
0.3216,112.26
0.31867,110.5
0.31672,108.34
0.31281,105.8
0.3089,102.87
0.30499,99.739
0.30108,96.219
0.29717,92.699
0.29326,88.983
0.28837,85.267
0.28446,81.943
0.28055,79.009
0.27761,76.467
0.27566,74.316
0.27664,72.751
0.28152,71.382
0.2913,70.209
0.30792,69.426
0.33333,68.84
0.36657,68.449
0.40567,68.057
0.44966,67.862
0.4956,67.666
0.54057,67.666
0.58162,67.471
0.61877,67.471
0.64614,67.471
0.66569,67.275
0.68426,67.08
0.69795,66.884
0.70674,66.688
0.71163,66.297
0.71163,65.906
0.70772,65.711
0.6999,65.124
0.68915,64.733
0.67449,64.342
0.65689,63.755
0.63832,63.364
0.61877,62.973
0.59726,62.582
0.57283,62.19
0.54839,61.799
0.52395,61.408
0.49951,61.017
0.47801,60.626
0.45748,60.235
0.43891,59.844
0.42229,59.257
0.40762,58.866
0.39492,58.279
0.38514,57.888
0.3783,57.301
0.37146,56.91
0.36461,56.323
0.35875,55.932
0.35386,55.541
0.34897,55.15
0.34506,54.759
0.34115,54.368
0.33822,54.172
0.33431,53.977
0.33138,53.977
0.32845,54.368
0.32649,55.346
0.32356,57.692
0.31965,61.408
0.31672,66.688
0.31281,73.142
0.3089,79.791
0.30596,86.245
0.30205,92.308
0.29912,97.784
0.29521,102.48
0.29228,106.39
0.28935,109.32
0.28739,111.08
0.28543,112.06
0.2825,112.06
0.27957,111.47
0.27664,110.1
0.27273,108.34
0.26979,106
0.26588,103.46
0.26295,100.52
0.25904,97.197
0.25611,93.677
0.2522,89.961
0.25024,86.245
0.24829,82.725
0.24536,79.596
0.24242,76.662
0.23949,74.316
0.23754,72.36
0.23754,70.6
0.24047,69.231
0.24927,68.253
0.26491,67.471
0.28935,66.884
0.32258,66.493
0.36168,66.102
0.3998,65.906
0.43695,65.906
0.47996,65.711
0.52395,65.711
0.56403,65.711
0.6002,65.711
0.6305,65.515
0.65494,65.319
0.67253,65.124
0.68524,64.928
0.6911,64.537
0.69306,64.342
0.69013,63.95
0.68328,63.559
0.67351,63.168
0.65982,62.777
0.64321,62.386
0.62463,61.995
0.60215,61.604
0.57869,61.213
0.55425,60.821
0.52981,60.43
0.50538,60.039
0.48289,59.844
0.46041,59.452
0.44282,59.061
0.42717,58.475
0.41251,58.083
0.39883,57.692
0.38612,57.106
0.37537,56.715
0.36559,56.128
0.35777,55.737
0.35093,55.346
0.34506,54.954
0.34018,54.563
0.33627,53.977
0.33236,53.781
0.3304,53.39
0.32747,52.999
0.32551,52.803
0.32258,52.803
0.31965,52.803
0.31672,53.39
0.31281,54.368
0.30987,56.519
0.30694,60.039
0.30401,64.928
0.3001,70.795
0.29814,76.858
0.29619,82.921
0.29423,88.592
0.2913,93.481
0.28837,97.979
0.28543,101.5
0.2825,104.04
0.28055,105.61
0.27761,106.39
0.27468,106.39
0.27077,105.61
0.26784,104.24
0.26491,102.28
0.26295,99.935
0.261,97.197
0.25806,94.068
0.25513,90.743
0.2522,87.223
0.24829,83.507
0.24536,80.183
0.24242,77.249
0.23851,74.511
0.23558,72.164
0.23265,70.404
0.23167,68.84
0.23167,67.471
0.23558,66.493
0.24242,65.711
0.25611,65.124
0.27761,64.537
0.30694,64.342
0.34311,63.95
0.38416,63.755
0.42815,63.559
0.47312,63.559
0.51613,63.364
0.55523,63.364
0.58944,63.168
0.61486,63.168
0.63245,62.973
0.64809,62.973
0.65982,62.582
0.66667,62.386
0.66862,61.995
0.66569,61.799
0.65787,61.408
0.64712,61.017
0.63245,60.821
0.61388,60.43
0.59433,60.039
0.5738,59.844
0.55425,59.452
0.53275,59.061
0.51026,58.866
0.48778,58.475
0.46725,58.083
0.44673,57.692
0.42913,57.301
0.41349,56.91
0.39883,56.519
0.38612,56.128
0.37537,55.541
0.36559,55.15
0.35875,54.759
0.35288,54.172
0.348,53.781
0.34311,53.39
0.33822,52.999
0.33431,52.608
0.33138,52.216
0.32747,52.021
0.32454,51.825
0.3216,51.63
0.31867,51.825
0.31672,52.216
0.31476,52.999
0.31281,54.954
0.31085,58.279
0.30792,62.973
0.31085,68.644
0.31672,74.707
0.31769,80.769
0.31672,86.245
0.31574,91.33
0.31281,95.828
0.31085,99.544
0.30792,102.28
0.30596,104.24
0.30401,105.22
0.30303,105.41
0.30108,104.82
0.29814,103.65
0.29521,101.89
0.29228,99.739
0.28837,97.197
0.28543,94.263
0.2825,90.743
0.27859,87.419
0.27566,83.703
0.27273,80.183
0.27077,77.054
0.26882,74.316
0.26588,71.969
0.26393,69.818
0.261,68.253
0.261,66.884
0.26295,65.906
0.26979,64.928
0.28348,64.342
0.30499,63.95
0.33431,63.559
0.37146,63.168
0.41447,62.973
0.45357,62.973
0.49169,62.777
0.53275,62.777
0.5738,62.777
0.61095,62.777
0.64321,62.582
0.6696,62.582
0.69013,62.386
0.70381,62.19
0.71261,61.995
0.71554,61.604
0.71359,61.408
0.70772,61.017
0.69795,60.626
0.68524,60.43
0.66862,60.039
0.64907,59.648
0.62659,59.452
0.60313,59.061
0.57869,58.67
0.55425,58.279
0.52981,58.083
0.50733,57.692
0.4868,57.497
0.46725,57.106
0.45161,56.715
0.43891,56.128
0.4262,55.737
0.41447,55.346
0.40371,54.954
0.39492,54.563
0.3871,53.977
0.38025,53.585
0.37439,53.194
0.3695,52.803
0.36559,52.412
0.36168,52.021
0.35875,51.825
0.35679,51.434
0.35386,51.434
0.35191,51.434
0.34897,51.825
0.34604,52.608
0.34311,54.563
0.34018,57.692
0.33724,62.386
0.33431,68.253
0.33138,74.511
0.32845,80.574
0.32551,86.245
0.32356,91.525
0.32258,96.024
0.32063,99.739
0.31769,102.67
0.31574,104.63
0.31281,105.8
0.30987,106
0.30694,105.61
0.30401,104.63
0.30108,103.06
0.29814,101.11
0.29423,98.566
0.29228,95.828
0.29032,92.699
0.28739,89.179
0.28446,85.658
0.28152,81.943
0.27859,78.618
0.27566,75.685
0.27273,73.142
0.26979,70.795
0.26686,69.035
0.26686,67.471
0.26882,66.297
0.27664,65.515
0.28837,64.733
0.30499,64.146
0.3304,63.755
0.36461,63.364
0.40469,63.168
0.45064,62.973
0.49756,62.973
0.54448,62.777
0.58847,62.777
0.62659,62.777
0.65982,62.582
0.68719,62.582
0.70479,62.582
0.71652,62.386
0.72532,62.19
0.72923,61.799
0.72923,61.604
0.72434,61.213
0.71554,60.821
0.70283,60.43
0.68622,60.235
0.66764,59.844
0.64516,59.648
0.6217,59.257
0.59922,58.866
0.57771,58.475
0.55523,58.279
0.53177,57.888
0.50929,57.497
0.48778,57.106
0.46921,56.715
0.45161,56.323
0.43695,55.932
0.42326,55.346
0.41153,54.954
0.40176,54.563
0.39296,54.172
0.3871,53.781
0.38221,53.194
0.37732,52.803
0.37341,52.412
0.3695,52.021
0.36559,51.825
0.36266,51.434
0.35973,51.239
0.35679,51.434
0.35386,51.63
0.35093,52.608
0.348,54.368
0.34506,57.692
0.34311,62.386
0.34115,68.253
0.33822,74.511
0.33529,80.769
0.33236,86.636
0.32942,91.917
0.32649,96.61
0.32356,100.72
0.32063,103.85
0.31769,105.8
0.31378,107.17
0.31085,107.56
0.3089,107.17
0.30694,106.39
0.30499,104.82
0.30205,102.87
0.29814,100.52
0.29521,97.979
0.29228,94.85
0.28935,91.525
0.28543,88.005
0.2825,84.485
0.27859,80.965
0.27566,77.836
0.27273,75.098
0.27175,72.751
0.26882,70.795
0.26784,69.231
0.26882,67.862
0.27468,66.884
0.28641,66.102
0.30694,65.515
0.33529,65.124
0.37146,64.733
0.41349,64.537
0.46139,64.537
0.50929,64.342
0.55132,64.342
0.58749,64.342
0.62463,64.342
0.65885,64.146
0.68719,64.146
0.71065,63.95
0.72727,63.755
0.73803,63.559
0.74389,63.168
0.74487,62.973
0.74096,62.777
0.73314,62.386
0.72141,61.995
0.70772,61.799
0.69013,61.408
0.6696,61.213
0.64712,60.821
0.62268,60.43
0.59824,60.039
0.57283,59.844
0.54839,59.452
0.5259,59.257
0.5044,58.866
0.48485,58.475
0.46725,58.083
0.45259,57.692
0.44184,57.106
0.43109,56.91
0.42131,56.323
0.41251,55.932
0.40469,55.541
0.39883,55.15
0.39296,54.759
0.38905,54.368
0.38514,53.977
0.38123,53.781
0.3783,53.39
0.37634,53.194
0.37439,53.194
0.37243,53.585
0.3695,54.368
0.36755,56.323
0.36559,59.844
0.36266,64.928
0.35973,70.991
0.35777,77.64
0.35484,84.094
0.35288,90.157
0.34995,95.632
0.348,100.33
0.34604,104.24
0.34506,106.98
0.34311,108.93
0.34115,109.91
0.3392,109.91
0.33724,109.32
0.33431,108.34
0.33138,106.78
0.32942,104.82
0.32649,102.48
0.3216,99.935
0.31574,97.001
0.31183,93.872
0.30987,90.352
0.30792,87.027
0.30499,83.507
0.30205,80.378
0.3001,77.64
0.29717,75.293
0.29521,73.338
0.29423,71.773
0.29717,70.404
0.30499,69.426
0.31965,68.644
0.34311,67.862
0.3695,67.471
0.3998,67.275
0.43988,66.884
0.48583,66.688
0.53372,66.493
0.58065,66.493
0.62561,66.297
0.66471,66.102
0.69795,65.906
0.72434,65.515
0.74487,65.319
0.75953,64.928
0.76637,64.537
0.76931,64.146
0.76833,63.755
0.76442,63.364
0.7566,62.973
0.74487,62.777
0.73021,62.386
0.71163,61.995
0.6911,61.604
0.66862,61.408
0.64516,61.017
0.61975,60.626
0.59531,60.235
0.5738,59.844
0.55425,59.452
0.5347,59.061
0.51515,58.475
0.49853,58.083
0.48289,57.497
0.46823,56.91
0.4565,56.519
0.44575,55.932
0.43695,55.541
0.42913,55.15
0.42229,54.563
0.4174,54.172
0.41349,53.781
0.40958,53.39
0.40469,52.999
0.40078,52.608
0.39589,52.412
0.39198,52.412
0.38807,52.608
0.38319,53.585
0.37928,55.346
0.37439,58.866
0.37048,63.755
0.36657,69.818
0.36266,76.467
0.35973,82.921
0.35679,88.983
0.35191,94.655
0.348,99.348
0.34311,103.26
0.3392,106.19
0.33431,108.34
0.3304,109.32
0.32649,109.52
0.3216,108.93
0.31672,107.76
0.31378,106
0.30987,104.04
0.30596,101.5
0.30205,98.761
0.29717,95.632
0.29228,92.308
0.28837,88.788
0.28348,85.267
0.27957,81.747
0.27468,78.618
0.27077,75.88
0.26588,73.533
0.26295,71.578
0.261,70.013
0.26197,68.644
0.26686,67.471
0.27859,66.688
0.29717,66.102
0.32454,65.515
0.3607,65.124
0.40274,64.928
0.45064,64.733
0.49951,64.537
0.54643,64.537
0.59042,64.537
0.62463,64.342
0.65103,64.342
0.67644,64.146
0.69697,63.95
0.71163,63.755
0.72141,63.364
0.7263,63.168
0.72532,62.777
0.72043,62.386
0.71163,61.995
0.69892,61.604
0.68231,61.213
0.66471,60.821
0.64712,60.43
0.62561,60.039
0.60215,59.844
0.57771,59.452
0.5523,59.061
0.52786,58.67
0.50538,58.279
0.48387,57.888
0.46334,57.497
0.44575,57.106
0.43011,56.715
0.41642,56.128
0.40665,55.737
0.39785,55.15
0.39003,54.759
0.38221,54.368
0.37634,53.781
0.37048,53.39
0.36559,52.999
0.36168,52.608
0.35777,52.216
0.35386,52.021
0.35093,51.825
0.34702,51.63
0.34506,51.825
0.34213,52.216
0.34018,53.194
0.33627,55.346
0.33333,58.67
0.32942,63.559
0.32551,69.426
0.3216,75.685
0.31867,81.552
0.31476,87.223
0.31183,92.112
0.3089,96.415
0.30499,99.935
0.30303,102.48
0.30108,104.24
0.29814,104.82
0.29619,104.82
0.29228,104.04
0.28935,102.67
0.28641,100.72
0.2825,98.37
0.27859,95.632
0.27566,92.699
0.27175,89.374
0.26784,85.854
0.26588,82.529
0.26393,79.009
0.261,76.076
0.25806,73.533
0.25513,71.186
0.25122,69.231
0.24927,67.666
0.24829,66.297
0.25024,65.319
0.25806,64.537
0.27175,63.95
0.29326,63.364
0.32356,62.973
0.35484,62.777
0.38905,62.582
0.43109,62.386
0.47703,62.386
0.52297,62.19
0.56598,62.19
0.60411,61.995
0.63636,61.995
0.66276,61.799
0.68231,61.799
0.69501,61.408
0.70283,61.213
0.70479,61.017
0.70186,60.626
0.69599,60.43
0.68524,60.039
0.67155,59.648
0.65494,59.452
0.63441,59.061
0.6129,58.67
0.58847,58.475
0.565,58.083
0.54057,57.692
0.51613,57.497
0.49365,57.106
0.47507,56.715
0.45846,56.323
0.44282,55.932
0.42717,55.541
0.41349,55.15
0.40176,54.759
0.39101,54.172
0.38123,53.781
0.37341,53.39
0.36657,52.999
0.3607,52.608
0.35582,52.216
0.35191,51.825
0.34995,51.434
0.34702,51.043
0.34409,50.847
0.34115,50.652
0.33822,50.652
0.33627,51.043
0.33333,51.63
0.3304,52.999
0.32747,55.737
0.32454,59.648
0.3216,64.733
0.31867,70.404
0.31672,76.271
0.31574,81.747
0.31281,86.832
0.31085,91.33
0.30792,95.046
0.30596,97.979
0.30303,99.935
0.3001,101.11
0.29717,101.5
0.29423,101.3
0.2913,100.33
0.28837,98.761
0.28543,96.806
0.28446,94.263
0.28152,91.525
0.27859,88.396
0.27566,85.072
0.27175,81.552
0.26882,78.227
0.26588,75.293
0.26295,72.555
0.25904,70.404
0.25611,68.449
0.25318,66.884
0.2522,65.515
0.25318,64.537
0.25709,63.559
0.26491,62.973
0.27957,62.582
0.30108,62.19
0.3304,61.799
0.36559,61.604
0.40567,61.408
0.44868,61.408
0.49267,61.213
0.53372,61.213
0.57185,61.017
0.6002,61.017
0.62268,60.821
0.64321,60.626
0.65885,60.43
0.67058,60.235
0.67742,60.039
0.6784,59.844
0.67546,59.452
0.66862,59.061
0.65689,58.866
0.64223,58.475
0.62366,58.279
0.60411,58.083
0.58456,57.692
0.56598,57.497
0.54448,57.106
0.52297,56.91
0.50244,56.519
0.48192,56.128
0.46334,55.737
0.44673,55.346
0.43109,55.15
0.41838,54.759
0.40665,54.172
0.39589,53.781
0.38807,53.39
0.38221,52.999
0.37634,52.608
0.37048,52.216
0.36559,51.825
0.36168,51.434
0.35777,51.043
0.35386,50.652
0.35093,50.456
0.348,50.261
0.34506,50.261
0.34213,50.652
0.34018,51.239
0.33822,52.608
0.33627,55.346
0.33431,59.452
0.33138,64.537
0.32845,70.404
0.32551,76.076
0.32356,81.552
0.32063,86.636
0.31867,91.134
0.31574,94.85
0.31378,97.588
0.31085,99.739
0.3089,100.91
0.30792,101.3
0.30596,101.11
0.30303,100.13
0.3001,98.566
0.29717,96.61
0.29423,94.263
0.2913,91.525
0.28837,88.396
0.28543,85.072
0.28152,81.747
0.27859,78.422
0.27566,75.489
0.2737,72.751
0.27273,70.404
0.26979,68.449
0.26784,66.884
0.26588,65.515
0.26588,64.537
0.26979,63.559
0.27859,62.973
0.29326,62.582
0.31574,62.19
0.34604,61.799
0.38221,61.604
0.41838,61.408
0.45259,61.213
0.49267,61.213
0.53372,61.213
0.57283,61.017
0.60704,61.017
0.63539,60.821
0.65885,60.626
0.67546,60.43
0.68719,60.235
0.69306,60.039
0.69404,59.844
0.6911,59.452
0.68426,59.257
0.67351,58.866
0.65982,58.67
0.64223,58.279
0.62268,58.083
0.60215,57.692
0.57967,57.301
0.55718,57.106
0.5347,56.91
0.51222,56.519
0.49169,56.128
0.47312,55.737
0.45748,55.346
0.44379,54.954
0.43109,54.563
0.41935,54.172
0.4086,53.781
0.39883,53.39
0.39101,52.999
0.38416,52.608
0.37732,52.216
0.37243,51.825
0.36755,51.434
0.36364,51.043
0.3607,50.652
0.35875,50.652
0.35582,50.456
0.35288,50.456
0.34995,50.847
0.348,51.63
0.34506,53.39
0.34213,56.519
0.3392,61.213
0.33627,66.688
0.33333,72.751
0.3304,78.618
0.32747,84.289
0.32551,89.374
0.32454,93.677
0.32258,97.393
0.32063,100.13
0.31769,102.09
0.31476,103.06
0.31281,103.46
0.30987,103.06
0.30694,102.09
0.30401,100.52
0.30108,98.566
0.29814,96.219
0.29521,93.481
0.29326,90.352
0.2913,87.027
0.28837,83.507
0.28543,80.183
0.28152,76.858
0.27859,74.12
0.27566,71.773
0.27273,69.818
0.26979,68.057
0.26882,66.688
0.26979,65.515
0.27566,64.537
0.28446,63.95
0.29912,63.364
0.32063,62.973
0.35093,62.777
0.38905,62.386
0.43109,62.19
0.47605,62.19
0.52102,61.995
0.56403,61.995
0.60313,61.799
0.63636,61.604
0.66373,61.408
0.68231,61.408
0.69501,61.213
0.70479,61.017
0.71065,60.821
0.71163,60.626
0.7087,60.235
0.70186,59.844
0.69013,59.648
0.67546,59.257
0.65787,59.061
0.63832,58.67
0.61584,58.279
0.59238,58.083
0.57185,57.692
0.55132,57.497
0.53079,57.106
0.51026,56.91
0.48974,56.519
0.47116,55.932
0.45455,55.541
0.43988,55.15
0.42717,54.759
0.41544,54.368
0.40567,53.977
0.39687,53.585
0.39003,53.194
0.38514,52.803
0.37928,52.412
0.37537,52.216
0.37048,51.825
0.36657,51.63
0.36364,51.434
0.35973,51.239
0.35679,51.434
0.35386,52.021
0.35093,53.194
0.348,55.346
0.34506,59.257
0.34213,64.342
0.34018,70.209
0.33822,76.467
0.33529,82.334
0.33236,88.005
0.32942,92.894
0.32649,97.197
0.32356,100.52
0.32063,103.06
0.31769,104.82
0.31574,105.61
0.31281,105.61
0.31085,104.82
0.3089,103.65
0.30596,102.09
0.30303,99.935
0.3001,97.588
0.29717,94.85
0.29423,91.721
0.2913,88.396
0.28837,84.876
0.28543,81.552
0.2825,78.422
0.27957,75.685
0.27664,73.338
0.27468,71.382
0.2737,69.818
0.2737,68.449
0.27566,67.471
0.2825,66.493
0.29423,65.906
0.31378,65.515
0.34115,65.124
0.37634,64.928
0.4174,64.733
0.46237,64.537
0.50831,64.537
0.54741,64.342
0.58162,64.342
0.61584,64.342
0.64712,64.342
0.67351,64.146
0.69404,63.95
0.70968,63.755
0.71945,63.559
0.72434,63.364
0.72532,62.973
0.72043,62.777
0.71652,62.386
0.71065,61.995
0.6999,61.799
0.68524,61.408
0.66569,61.017
0.64418,60.821
0.62072,60.43
0.59629,60.235
0.57185,59.844
0.54839,59.648
0.5259,59.257
0.50538,58.866
0.4868,58.279
0.47116,58.083
0.45748,57.497
0.44673,57.106
0.43695,56.715
0.42717,56.323
0.41935,55.932
0.41251,55.346
0.40665,55.15
0.40176,54.759
0.39687,54.368
0.39394,53.977
0.39003,53.781
0.3871,53.585
0.38514,53.585
0.38221,53.781
0.38025,54.563
0.3783,56.519
0.37537,59.648
0.37243,64.537
0.3695,70.404
0.36657,76.858
0.36364,83.312
0.3607,89.374
0.35777,94.85
0.35484,99.544
0.35288,103.46
0.35093,106.39
0.34897,108.54
0.34702,109.52
0.34409,109.52
0.34115,108.93
0.33822,107.76
0.33529,106
0.33236,104.04
0.32845,101.69
0.32551,99.153
0.3216,96.219
0.31867,92.894
0.31574,89.374
0.31378,86.05
0.31085,82.725
0.30792,79.596
0.30499,76.858
0.30205,74.511
0.29912,72.555
0.29717,70.991
0.29717,69.622
0.30205,68.644
0.31378,67.862
0.33236,67.275
0.35973,66.884
0.38905,66.493
0.42131,66.102
0.46334,65.906
0.50929,65.906
0.55718,65.711
0.60215,65.711
0.64418,65.515
0.68035,65.319
0.70968,65.124
0.73314,64.928
0.74976,64.537
0.76051,64.342
0.7654,63.95
0.76442,63.559
0.76051,63.168
0.75367,62.777
0.74291,62.386
0.72923,61.995
0.71163,61.604
0.6911,61.213
0.66862,60.821
0.64516,60.626
0.61975,60.235
0.59433,59.844
0.56989,59.452
0.54839,59.061
0.52884,58.67
0.50929,58.279
0.49071,57.888
0.47312,57.301
0.45748,56.91
0.44379,56.519
0.43206,55.932
0.42229,55.541
0.41349,54.954
0.40567,54.563
0.39785,54.172
0.39296,53.781
0.38807,53.39
0.38319,52.999
0.37928,52.803
0.37439,52.608
0.3695,52.412
0.36461,52.803
0.3607,53.585
0.35582,55.346
0.35191,58.279
0.34702,62.777
0.34311,68.449
0.33822,74.707
0.33431,81.16
0.33138,87.027
0.32845,92.308
0.32454,97.001
0.32063,100.91
0.31769,104.04
0.31378,106
0.31085,106.98
0.30694,107.17
0.30303,106.78
0.29912,105.61
0.29521,103.85
0.29228,101.69
0.28935,99.348
0.28641,96.61
0.2825,93.677
0.27761,90.352
0.2737,87.027
0.26979,83.507
0.26588,80.183
0.261,77.249
0.25709,74.707
0.25318,72.36
0.24927,70.6
0.24731,69.035
0.24731,67.666
0.25122,66.688
0.25904,65.906
0.27468,65.515
0.29717,64.928
0.32942,64.733
0.36852,64.537
0.41349,64.342
0.46237,64.146
0.51026,63.95
0.55621,63.95
0.59726,63.755
0.62952,63.559
0.65298,63.559
0.67546,63.364
0.69208,62.973
0.70479,62.777
0.71163,62.582
0.71359,62.19
0.71065,61.799
0.70283,61.408
0.69208,61.213
0.67742,60.821
0.65982,60.43
0.63832,60.039
0.61877,59.844
0.59824,59.452
0.57576,59.061
0.55132,58.67
0.52786,58.279
0.5044,58.083
0.48289,57.692
0.46237,57.301
0.44477,56.91
0.42815,56.323
0.41447,55.932
0.40274,55.346
0.39296,54.954
0.38514,54.563
0.3783,54.172
0.37146,53.781
0.36461,53.39
0.35973,52.803
0.35484,52.412
0.35093,52.216
0.34702,52.021
0.34311,51.825
0.34018,51.825
0.33724,51.825
0.33333,52.412
0.33138,53.585
0.32845,55.737
0.32551,59.452
0.32258,64.342
0.31965,70.013
0.31574,75.88
0.31281,81.552
0.30987,86.832
0.30694,91.525
0.30401,95.437
0.30108,98.761
0.29814,101.11
0.29521,102.48
0.29423,103.06
0.2913,102.87
0.28837,102.09
0.28543,100.72
0.2825,98.761
0.27859,96.415
0.27468,93.677
0.27077,90.548
0.26686,87.223
0.26393,83.898
0.26002,80.574
0.25709,77.445
0.25415,74.707
0.2522,72.164
0.24927,70.013
0.24731,68.253
0.24438,66.884
0.2434,65.711
0.24438,64.928
0.25122,64.146
0.26295,63.559
0.28348,62.973
0.31183,62.777
0.348,62.582
0.38319,62.386
0.42033,62.19
0.46237,62.19
0.50733,61.995
0.54936,61.995
0.58847,61.799
0.6217,61.799
0.64907,61.604
0.6696,61.408
0.68426,61.213
0.69306,61.017
0.69697,60.626
0.69501,60.43
0.68915,60.039
0.67937,59.844
0.66667,59.452
0.65005,59.257
0.6305,58.866
0.60899,58.475
0.58553,58.279
0.56109,57.888
0.53763,57.692
0.51417,57.301
0.49169,56.91
0.47019,56.519
0.45259,56.128
0.43891,55.737
0.42424,55.346
0.41056,54.954
0.39883,54.563
0.38905,54.172
0.38025,53.781
0.37341,53.194
0.36657,52.803
0.3607,52.412
0.35679,52.216
0.35191,51.825
0.34897,51.434
0.34604,51.043
0.34409,50.847
0.34115,50.847
0.3392,51.043
0.33627,51.63
0.33333,52.608
0.3304,54.759
0.32845,58.279
0.32551,62.973
0.32258,68.449
0.31965,74.12
0.31769,79.596
0.31574,84.681
0.31476,89.374
0.31281,93.286
0.30987,96.415
0.30792,98.761
0.30499,100.13
0.30303,100.91
0.3001,100.72
0.29717,99.935
0.29423,98.566
0.2913,96.806
0.28837,94.459
0.28641,91.917
0.28446,88.788
0.28152,85.658
0.27859,82.334
0.27566,79.009
0.27273,76.076
0.26979,73.338
0.26588,70.991
0.26295,69.035
0.26002,67.275
0.25806,65.906
0.25709,64.928
0.25904,63.95
0.26393,63.364
0.2737,62.777
0.28935,62.386
0.31183,61.995
0.34213,61.799
0.37928,61.604
0.42033,61.408
0.46334,61.408
0.50635,61.408
0.54741,61.408
0.58358,61.213
0.61388,61.017
0.63636,60.821
0.652,60.626
0.66569,60.43
0.67449,60.235
0.67937,60.039
0.67937,59.844
0.67449,59.452
0.66569,59.061
0.65298,58.866
0.63734,58.475
0.61877,58.279
0.59824,58.083
0.57576,57.692
0.55621,57.497
0.53666,57.106
0.51613,56.91
0.49658,56.519
0.47703,56.128
0.45943,55.737
0.44282,55.346
0.42815,54.954
0.41544,54.563
0.40469,54.172
0.39492,53.781
0.38612,53.39
0.37928,52.999
0.37439,52.608
0.3695,52.216
0.36461,51.825
0.3607,51.434
0.35679,51.043
0.35288,50.847
0.34995,50.652
0.34702,50.652
0.34409,50.847
0.34115,51.434
0.3392,52.608
0.33627,55.15
0.33431,58.866
0.33236,63.95
0.32942,69.622
0.32747,75.489
0.32454,81.16
0.32258,86.441
0.31965,90.939
0.31769,94.85
0.31476,97.979
0.31281,100.33
0.30987,101.69
0.30792,102.28
0.30596,102.28
0.30401,101.3
0.30205,99.935
0.29912,98.175
0.29619,96.024
0.29228,93.481
0.28935,90.352
0.28641,87.223
0.2825,83.898
0.27957,80.378
0.27664,77.249
0.2737,74.316
0.27077,71.969
0.26882,69.818
0.26686,68.057
0.26491,66.688
0.26393,65.515
0.26588,64.537
0.27077,63.95
0.2825,63.364
0.30108,62.973
0.32845,62.582
0.36266,62.386
0.40274,62.19
0.44673,61.995
0.48583,61.995
0.52102,61.995
0.55914,61.799
0.59531,61.799
0.62757,61.604
0.65396,61.604
0.67449,61.408
0.69013,61.213
0.6999,61.017
0.70381,60.626
0.70283,60.43
0.69795,60.039
0.68817,59.844
0.67644,59.452
0.66178,59.061
0.64418,58.866
0.62366,58.67
0.60215,58.279
0.57869,58.083
0.55523,57.692
0.53275,57.301
0.51026,57.106
0.48974,56.715
0.47116,56.323
0.45357,55.932
0.43988,55.541
0.42913,55.15
0.41838,54.759
0.40762,54.368
0.39883,53.781
0.39101,53.585
0.38416,52.999
0.37732,52.608
0.37243,52.216
0.36852,51.825
0.36461,51.63
0.3607,51.434
0.35777,51.239
0.35484,51.239
0.35288,51.434
0.34995,52.216
0.34702,53.781
0.34409,56.715
0.34115,61.213
0.33822,66.493
0.33529,72.555
0.33236,78.422
0.32942,84.094
0.32649,89.179
0.32454,93.677
0.32258,97.588
0.32063,100.52
0.31867,102.48
0.31574,103.85
0.31378,104.24
0.31085,103.85
0.30792,102.87
0.30499,101.5
0.30205,99.544
0.29912,97.393
0.29521,94.655
0.29228,91.721
0.28837,88.592
0.28543,85.267
0.28348,81.747
0.28055,78.618
0.27761,75.685
0.27468,73.142
0.27175,70.991
0.26882,69.231
0.26686,67.666
0.26686,66.493
0.26979,65.711
0.27859,64.928
0.29326,64.342
0.31183,63.95
0.33529,63.559
0.36852,63.168
0.4086,62.973
0.45259,62.973
0.49853,62.777
0.54252,62.777
0.58358,62.777
0.62072,62.777
0.65103,62.582
0.67546,62.386
0.69404,62.386
0.70674,62.19
0.71359,61.995
0.71457,61.799
0.71359,61.408
0.70772,61.213
0.69892,61.017
0.68622,60.626
0.6696,60.43
0.65103,60.039
0.6305,59.844
0.60704,59.648
0.58358,59.257
0.56012,58.866
0.53861,58.67
0.52004,58.279
0.50049,58.083
0.48094,57.692
0.46334,57.301
0.4477,56.91
0.43304,56.519
0.42033,56.128
0.40958,55.737
0.40078,55.346
0.39198,54.954
0.38514,54.563
0.37928,54.172
0.37439,53.781
0.37146,53.585
0.36755,53.194
0.36364,52.999
0.3607,52.803
0.35777,52.999
0.35484,53.585
0.35191,54.759
0.34995,57.106
0.34702,60.821
0.34409,65.906
0.34115,72.164
0.3392,78.227
0.33724,84.289
0.33529,89.961
0.33236,95.046
0.3304,99.348
0.32747,102.67
0.32454,105.22
0.32258,106.98
0.31965,107.56
0.31672,107.76
0.31378,107.17
0.31085,106
0.3089,104.24
0.30694,102.48
0.30499,100.13
0.30205,97.393
0.29912,94.459
0.29619,91.33
0.29326,87.81
0.29032,84.485
0.28739,81.16
0.28446,78.227
0.28152,75.88
0.27957,73.729
0.27664,71.969
0.27664,70.6
0.27859,69.426
0.28446,68.449
0.29521,67.862
0.31476,67.471
0.34213,67.08
0.37732,66.688
0.42033,66.493
0.46823,66.493
0.51808,66.297
0.56696,66.297
0.6129,66.297
0.64907,66.102
0.6784,65.906
0.70577,65.906
0.72923,65.711
0.74682,65.515
0.76051,65.124
0.76735,64.928
0.77028,64.537
0.76735,64.342
0.76051,63.95
0.74976,63.559
0.73607,63.168
0.7175,62.973
0.69892,62.582
0.67937,62.19
0.65689,61.995
0.63343,61.604
0.60802,61.408
0.58456,61.017
0.56109,60.626
0.53959,60.235
0.51906,59.844
0.50147,59.452
0.48583,58.866
0.47116,58.475
0.46041,58.083
0.45161,57.497
0.44282,57.106
0.435,56.715
0.42913,56.128
0.42326,55.737
0.41838,55.346
0.41349,54.759
0.40958,54.368
0.40567,53.977
0.40176,53.977
0.39785,53.977
0.39492,54.759
0.39101,56.323
0.38905,59.452
0.38612,63.95
0.38221,70.013
0.37928,76.467
0.37634,82.725
0.37243,88.983
0.3695,94.459
0.36559,99.348
0.36266,103.46
0.35973,106.58
0.35679,108.74
0.35386,109.91
0.35191,110.3
0.34897,109.91
0.34604,108.74
0.34311,107.17
0.3392,105.41
0.33529,103.26
0.33138,100.72
0.32845,97.979
0.32454,94.85
0.32063,91.525
0.31769,87.81
0.31378,84.485
0.31085,81.16
0.3089,78.227
0.30499,75.685
0.30108,73.533
0.29814,71.773
0.29619,70.404
0.29717,69.231
0.30499,68.449
0.31867,67.666
0.34115,67.275
0.37341,66.884
0.41251,66.688
0.45064,66.493
0.48974,66.297
0.53372,66.102
0.57869,65.906
0.6217,65.906
0.65885,65.711
0.6911,65.515
0.71652,65.319
0.73607,65.124
0.74976,64.733
0.7566,64.537
0.75953,64.146
0.75758,63.755
0.75073,63.364
0.74194,62.973
0.72825,62.582
0.71261,62.19
0.69306,61.799
0.67058,61.408
0.64712,61.213
0.6217,60.821
0.59531,60.43
0.56891,60.039
0.54448,59.648
0.52004,59.257
0.50049,58.866
0.48289,58.475
0.46628,58.083
0.44966,57.497
0.43597,57.106
0.42326,56.519
0.41251,56.128
0.40371,55.737
0.39492,55.346
0.38807,54.759
0.38221,54.368
0.37634,53.977
0.37146,53.781
0.36755,53.39
0.36461,53.194
0.3607,52.999
0.35679,53.194
0.35386,53.585
0.34995,54.759
0.34604,56.91
0.34213,60.821
0.33822,65.906
0.33333,72.164
0.32942,78.618
0.32551,84.681
0.32258,90.352
0.32063,95.437
0.31769,99.739
0.31378,103.26
0.31085,105.8
0.30694,107.37
0.30401,108.15
0.3001,107.95
0.29717,107.17
0.29326,105.8
0.28935,104.24
0.28543,102.09
0.28152,99.544
0.27859,96.61
0.27664,93.481
0.2737,90.157
0.26979,86.636
0.26686,83.312
0.26295,79.987
0.26002,77.249
0.25611,74.707
0.2522,72.555
0.24927,70.795
0.24829,69.426
0.24927,68.253
0.25415,67.471
0.26393,66.688
0.28055,66.102
0.30694,65.711
0.34115,65.319
0.38221,65.124
0.42913,64.928
0.47898,64.733
0.52786,64.733
0.5738,64.537
0.61584,64.537
0.65103,64.342
0.67937,64.146
0.69892,63.95
0.71163,63.755
0.72141,63.559
0.7263,63.168
0.72727,62.973
0.72434,62.582
0.71652,62.19
0.70381,61.799
0.68915,61.408
0.6696,61.213
0.64809,60.821
0.62463,60.43
0.60313,60.039
0.58162,59.844
0.55816,59.452
0.5347,59.061
0.51124,58.67
0.48876,58.279
0.46823,58.083
0.45064,57.497
0.43402,57.106
0.41935,56.715
0.40762,56.128
0.39687,55.737
0.38807,55.346
0.38123,54.954
0.37537,54.368
0.3695,53.977
0.36364,53.781
0.35973,53.39
0.35484,52.999
0.35191,52.608
0.348,52.608
0.34409,52.608
0.34115,52.803
0.33724,53.585
0.33431,55.15
0.33138,57.692
0.32942,61.799
0.32649,67.08
0.32356,72.751
0.31965,78.618
0.31672,84.289
0.31378,89.179
0.31085,93.677
0.30792,97.393
0.30401,100.13
0.30108,102.28
0.29814,103.46
0.29619,103.85
0.29423,103.46
0.2913,102.48
0.28837,101.11
0.28543,99.153
0.28152,96.806
0.27859,94.068
0.27664,91.134
0.27273,87.81
0.26979,84.289
0.26588,80.965
0.26295,78.031
0.25904,75.098
0.25709,72.947
0.25513,70.991
0.25318,69.231
0.25122,67.862
0.25024,66.688
0.25318,65.906
0.25904,65.124
0.27175,64.537
0.2913,64.146
0.31965,63.95
0.35386,63.559
0.39492,63.364
0.43304,63.168
0.46823,63.168
0.50831,62.973
0.54839,62.973
0.58456,62.973
0.61486,62.777
0.64027,62.582
0.65982,62.386
0.67351,62.19
0.68231,61.995
0.68524,61.604
0.68328,61.408
0.67742,61.017
0.66862,60.626
0.65689,60.43
0.64125,60.039
0.62268,59.844
0.60313,59.452
0.58065,59.257
0.55816,58.866
0.5347,58.475
0.51222,58.279
0.49071,57.888
0.47116,57.497
0.45259,57.106
0.43793,56.715
0.42522,56.323
0.41251,55.932
0.40176,55.346
0.39198,54.954
0.38319,54.563
0.37537,54.172
0.36852,53.781
0.36266,53.39
0.35777,52.999
0.35386,52.608
0.34995,52.412
0.34604,52.216
0.34409,52.021
0.34213,52.216
0.3392,52.412
0.33724,52.999
0.33431,54.759
0.33138,57.497
0.32942,61.799
0.32649,67.275
0.32356,73.142
0.32063,79.009
0.31769,84.485
0.31476,89.57
0.31281,94.068
0.31183,97.784
0.3089,100.72
0.30694,102.87
0.30401,104.04
0.30205,104.43
0.29912,104.04
0.29717,103.06
0.29423,101.69
0.2913,99.739
0.28837,97.393
0.28446,94.85
0.28152,91.721
0.27957,88.396
0.27761,84.876
0.27468,81.356
0.27175,78.227
0.26882,75.489
0.26588,73.142
0.26295,70.991
0.26002,69.231
0.25709,67.862
0.25709,66.688
0.26002,65.906
0.26784,65.124
0.27957,64.537
0.29619,64.146
0.3216,63.95
0.35484,63.755
0.39492,63.559
0.43891,63.364
0.48387,63.364
0.52884,63.168
0.57087,63.168
0.60802,62.973
0.6393,62.973
0.66373,62.777
0.68328,62.582
0.69501,62.386
0.70088,62.19
0.70381,61.995
0.70283,61.604
0.69795,61.408
0.68915,61.017
0.67644,60.626
0.65982,60.235
0.64125,60.039
0.61975,59.844
0.59629,59.452
0.57185,59.061
0.55034,58.67
0.53079,58.279
0.51026,58.083
0.48974,57.692
0.47019,57.301
0.45259,56.91
0.43597,56.519
0.42229,56.128
0.41056,55.541
0.3998,55.15
0.39101,54.759
0.38319,54.368
0.37634,53.977
0.37048,53.585
0.36657,53.194
0.36266,52.803
0.35973,52.412
0.35582,52.216
0.35288,52.021
0.34995,52.216
0.348,52.608
0.34506,53.585
0.34213,55.346
0.3392,58.67
0.33627,63.168
0.33333,68.84
0.33138,74.902
0.32942,80.965
0.32649,86.636
0.32356,91.721
0.32063,96.024
0.31867,99.739
0.31574,102.48
0.31281,104.43
0.30987,105.41
0.30694,105.8
0.30401,105.41
0.30108,104.43
0.29814,102.87
0.29619,100.91
0.29326,98.566
0.29032,95.828
0.28739,92.894
0.28348,89.57
0.28055,86.245
0.27664,82.725
0.2737,79.596
0.26979,76.662
0.26686,74.12
0.26295,71.969
0.261,70.209
0.26002,68.84
0.26002,67.471
0.26295,66.688
0.26979,65.906
0.28348,65.319
0.30499,64.733
0.33529,64.537
0.37243,64.146
0.41447,63.95
0.46041,63.755
0.50733,63.755
0.5523,63.559
0.58847,63.559
0.61681,63.364
0.64516,63.168
0.6696,63.168
0.68915,62.973
0.70283,62.777
0.71163,62.582
0.71457,62.386
0.71359,61.995
0.70772,61.604
0.69795,61.408
0.68524,61.017
0.6696,60.626
0.65298,60.43
0.63245,60.039
0.61095,59.844
0.58749,59.452
0.56305,59.061
0.53861,58.866
0.51613,58.475
0.49462,58.083
0.4741,57.692
0.45552,57.301
0.43891,56.91
0.4262,56.519
0.41544,55.932
0.40567,55.541
0.39589,55.15
0.38807,54.759
0.38025,54.368
0.37439,53.977
0.36852,53.585
0.36364,52.999
0.35973,52.803
0.35582,52.608
0.35288,52.412
0.34897,52.608
0.34702,53.194
0.34506,54.368
0.34213,56.715
0.3392,60.626
0.33627,65.906
0.33333,71.969
0.3304,78.031
0.32747,84.094
0.32454,89.57
0.3216,94.655
0.31867,98.957
0.31574,102.67
0.31378,105.22
0.31183,106.98
0.30987,107.76
0.30694,107.95
0.30499,107.17
0.30205,106
0.29912,104.43
0.29521,102.48
0.29228,100.13
0.28935,97.588
0.28543,94.459
0.2825,91.134
0.27859,87.614
0.27664,84.289
0.27468,80.965
0.27175,78.031
0.26882,75.293
0.26588,73.142
0.26295,71.382
0.261,69.818
0.261,68.644
0.26588,67.666
0.27566,67.08
0.29326,66.493
0.31965,66.102
0.34995,65.711
0.38612,65.515
0.43109,65.515
0.47996,65.319
0.52981,65.319
0.57869,65.319
0.62268,65.319
0.66178,65.319
0.69404,65.124
0.71945,65.124
0.73803,64.928
0.75171,64.733
0.75855,64.537
0.75953,64.342
0.7566,63.95
0.74976,63.559
0.73998,63.168
0.72532,62.973
0.70772,62.582
0.68719,62.386
0.66373,61.995
0.6393,61.604
0.6129,61.408
0.58651,61.017
0.56012,60.626
0.53763,60.235
0.51808,59.844
0.49853,59.648
0.47898,59.061
0.46139,58.67
0.44673,58.279
0.43304,57.888
0.42131,57.497
0.41153,57.106
0.40274,56.715
0.39589,56.323
0.39003,55.932
0.38514,55.541
0.38123,55.15
0.3783,54.954
0.37537,54.759
0.37243,54.759
0.3695,54.954
0.36755,55.737
0.36461,57.301
0.36168,60.43
0.35973,65.124
0.35679,70.991
0.35386,77.249
0.35093,83.703
0.34897,89.765
0.34702,95.241
0.34506,100.13
0.34311,104.04
0.34018,107.17
0.33724,109.32
0.33529,110.69
0.33236,111.08
0.32942,110.69
0.32649,109.91
0.32454,108.54
0.3216,106.78
0.31867,104.63
0.31672,102.28
0.31476,99.544
0.31281,96.61
0.30987,93.286
0.30694,89.765
0.30499,86.441
0.30205,83.312
0.29912,80.378
0.29619,77.836
0.29326,75.685
0.2913,73.924
0.2913,72.555
0.29423,71.578
0.30108,70.6
0.31378,70.013
0.33431,69.426
0.36364,69.035
0.40176,68.84
0.44575,68.644
0.49462,68.644
0.54448,68.449
0.59335,68.449
0.63832,68.253
0.6784,68.057
0.71163,68.057
0.73607,67.862
0.75269,67.471
0.76637,67.275
0.77615,66.688
0.78104,66.297
0.78201,65.906
0.77908,65.319
0.77126,64.928
0.75953,64.537
0.74487,63.95
0.7263,63.559
0.70577,63.168
0.68426,62.777
0.66373,62.386
0.64027,61.995
0.61584,61.799
0.5914,61.408
0.56794,61.017
0.54545,60.626
0.52493,60.235
0.50635,59.844
0.49071,59.257
0.47605,58.866
0.46432,58.279
0.45357,57.888
0.44575,57.301
0.43891,56.91
0.43304,56.323
0.42717,55.932
0.42131,55.346
0.4174,55.15
0.41251,54.759
0.4086,54.368
0.40469,54.172
0.40078,54.368
0.39687,55.15
0.39296,56.715
0.38905,59.648
0.38612,64.146
0.38221,70.013
0.3783,76.662
0.37341,83.312
0.3695,89.57
0.36461,95.241
0.3607,100.33
0.35582,104.63
0.35191,108.15
0.348,110.5
0.34409,111.86
0.34018,112.45
0.33627,112.06
0.33333,111.28
0.3304,109.71
0.32551,107.95
0.3216,105.8
0.31672,103.26
0.31183,100.52
0.30694,97.393
0.30108,93.872
0.29619,90.352
0.2913,86.636
0.28641,83.116
0.28348,79.987
0.27957,77.249
0.27566,75.098
0.27175,73.142
0.26882,71.578
0.26882,70.404
0.2737,69.231
0.28543,68.644
0.30596,68.057
0.33529,67.666
0.37341,67.471
0.41838,67.275
0.46041,67.08
0.50049,66.884
0.54643,66.884
0.5914,66.688
0.63245,66.493
0.66862,66.493
0.69795,66.297
0.72043,65.906
0.73705,65.711
0.74682,65.515
0.75171,65.124
0.75171,64.733
0.74682,64.342
0.739,63.95
0.72727,63.559
0.71261,63.168
0.69501,62.777
0.67351,62.386
0.65005,61.995
0.62463,61.604
0.59922,61.213
0.57185,60.821
0.54643,60.43
0.52102,60.039
0.49756,59.648
0.47801,59.257
0.46139,58.67
0.44477,58.279
0.43011,57.692
0.4174,57.301
0.40567,56.91
0.39589,56.323
0.3871,55.932
0.38025,55.541
0.37439,55.15
0.36852,54.563
0.36461,54.172
0.35973,53.977
0.35679,53.781
0.35484,53.585
0.35191,53.585
0.34897,53.781
0.34506,54.563
0.34115,56.128
0.33822,59.061
0.33431,63.364
0.3304,69.035
0.32747,75.098
0.32356,81.16
0.31965,87.027
0.31672,92.308
